ecg,time
0.0143705658418602,15.0013433322085
0.0157599534159596,15.0063185364262
0.0174746663727694,15.0116902626944
0.0198993246831306,15.01829226295
0.0215240242175322,15.0223140737498
0.0232067774485265,15.0263358845495
0.0246687386532231,15.0298754820792
0.0258988450025289,15.0330646197197
0.0269222281263964,15.0361001344104
0.0277063910652517,15.0390213201146
0.0282234950220346,15.0418399176018
0.0284678571076773,15.0446797593492
0.0283999407797843,15.0477131400626
0.027871764561564,15.0513688007873
0.0270614052299143,15.0545210100584
0.02597877926247,15.0576732193296
0.0248944510772748,15.0603467948218
0.0238210038103951,15.0627576084012
0.0227477452465649,15.0650383143438
0.0216744536042686,15.067248245419
0.0206042072167169,15.0694198428438
0.0195407212292396,15.0715740999767
0.0184876660605284,15.0737261051944
0.0174484855596086,15.0758875216074
0.0164263473468074,15.0780678970124
0.0154241432546349,15.0802754151523
0.0144444909015759,15.082517393045
0.0134897514250987,15.084800595155
0.0125620361324757,15.0871314812675
0.0116632152421275,15.0895163948565
0.0107949315076151,15.0919617038832
0.00995860393448052,15.0944739473049
0.00915543720682852,15.0970599583212
0.00838133688188522,15.0997453573047
0.00762001096749899,15.1026097512335
0.00687528233586298,15.1056733650129
0.00615092623453071,15.1089605098546
0.00545092179628024,15.1124992435702
0.00477941255643304,15.116322064422
0.00414063146540436,15.1204668489329
0.00353878025436581,15.1249782230026
0.00297784303216952,15.1299098539714
0.00246132745677101,15.1353286134604
0.00199200717237577,15.1413216463417
0.00157199373560734,15.1480060173011
0.0012151227360395,15.1552523820653
0.000918394428687216,15.1631049963666
0.000675165909294334,15.171697545293
0.000479292963245407,15.1812066844683
0.000337504931741853,15.1912066844683
0.00024373810259693,15.2012066844683
0.000179559987708577,15.2112066844683
0.000134830879439394,15.2212066844683
0.000103722029945514,15.2312066844683
8.23996513693842e-05,15.2412066844683
6.80688086524898e-05,15.2512066844683
5.8655053969137e-05,15.2612066844683
5.26633637498476e-05,15.2712066844683
4.90532708733012e-05,15.2812066844683
4.71157262671239e-05,15.2912066844683
4.63698203676379e-05,15.3012066844683
4.64879462612776e-05,15.3112066844683
4.72460594075741e-05,15.3212066844683
4.84914417513293e-05,15.3312066844683
5.01213829954979e-05,15.3412066844683
5.20685827281186e-05,15.3512066844683
5.42909334365499e-05,15.3612066844683
5.67643606833941e-05,15.3712066844683
5.94778704795167e-05,15.3812066844683
6.24301906995767e-05,15.3912066844683
6.56275506124341e-05,15.4012066844683
6.90822689720839e-05,15.4112066844683
7.28119225915389e-05,15.4212066844683
7.68389435864823e-05,15.4312066844683
8.11905479293395e-05,15.4412066844683
8.58989364969681e-05,15.4512066844683
9.10017381229072e-05,15.4612066844683
9.65426865878056e-05,15.4712066844683
0.000102572543017125,15.4812066844683
0.000109150294068631,15.4912066844683
0.000116344676603835,15.5012066844683
0.000124236103402646,15.5112066844683
0.000132919094516616,15.5212066844683
0.00014250535852905,15.5312066844683
0.000153127722166076,15.5412066844683
0.000164945182501392,15.5512066844683
0.000178149464151175,15.5612066844683
0.000192973620932257,15.5712066844683
0.000209703453581836,15.5812066844683
0.000228692864378707,15.5912066844683
0.000250384805089504,15.6012066844683
0.000275340313179126,15.6112066844683
0.000304279474050156,15.6212066844683
0.000338140351781449,15.6312066844683
0.000378165651973975,15.6412066844683
0.000426033357287197,15.6512066844683
0.000480191558042599,15.660586283628
0.000540130409957155,15.6692007891905
0.00060623102154653,15.6771088697939
0.000678975685048523,15.6843718357481
0.000758887907004881,15.6910457983646
0.000846519250178901,15.6971819724797
0.000942451240458017,15.7028275167398
0.00104728853960324,15.7080254084537
0.00116166940695547,15.7128151144071
0.00128626814020435,15.7172329791243
0.00142180117583475,15.7213122757703
0.0015690425474513,15.7250837846666
0.00172883053539169,15.7285757850406
0.00190210221963915,15.7318145193303
0.0020899128001572,15.7348242890848
0.00229349148226138,15.7376278054794
0.00251430673856236,15.7402464210649
0.00275416195695604,15.7427004426287
0.00301535335808643,15.7450095427078
0.00330090631342922,15.7471932445501
0.00361497278939288,15.7492717307017
0.00396353206496068,15.7512671148919
0.00435574921628656,15.7532058551294
0.00480695584047303,15.7551240423619
0.00534659600636009,15.7570815865995
0.00603511137899297,15.7591802413373
0.00680245228314304,15.7611312739508
0.00764521663817504,15.7629306589165
0.00857330731898958,15.7646074728499
0.00951049532259592,15.7660600598633
0.0105300466829003,15.7674341213074
0.0117097467561024,15.7688218577827
0.0131649239484483,15.770312461924
0.0151427838700182,15.7720623727753
0.0171871196404019,15.7736472415885
0.0194384256764092,15.7752321104018
0.0213684676204914,15.7765235259424
0.0230385854165501,15.7776366073439
0.0245395486472076,15.778673797884
0.0258910868559521,15.779684748463
0.0270848464641332,15.780706023906
0.0280940667419599,15.7817783245817
0.0288660173009272,15.7829668943154
0.0292761514185118,15.7844363495945
0.0290251386853375,15.7861398272979
0.0281153825197384,15.7878433050013
0.0270059103468748,15.7892336380145
0.02573296772613,15.7905651985398
0.0242936322930559,15.7919311459846
0.0226966280515632,15.7933758446342
0.0209487295584224,15.7949396456709
0.019752388379979,15.7960242751027
0.0186044567415533,15.7971089045345
0.0160042977816218,15.7998150597822
0.0133987976215808,15.8030204316695
0.0114722894109032,15.8058945319987
0.0100307784543997,15.8085029805825
0.00891149610822112,15.8109729410662
0.00799979964051611,15.8134790999977
0.00728120145693772,15.8160518909773
0.00675591476312496,15.8187143811989
0.00643758034873839,15.8214895824187
0.0063535417497294,15.8240341366217
0.00646101488831535,15.8263721238306
0.00673462111605027,15.8285534221368
0.00716697263018829,15.8306313395329
0.00777018130726342,15.8326684409651
0.00858849916342332,15.8347564415656
0.00973702459564639,15.8370566747747
0.0113925865348136,15.8397159001299
0.0134733010618777,15.8424581781593
0.0150471369401672,15.8442388149591
0.016832665491116,15.846019451759
0.0186756458518612,15.8476297690899
0.0206170292867485,15.8491127438004
0.0227199365738107,15.8505118407252
0.0250339972489017,15.8518469727252
0.0276037740060487,15.8531279402675
0.0304725185329695,15.8543599535958
0.0336847526994401,15.8555463199669
0.037287896665794,15.8566895769543
0.0413351844113338,15.8577923962992
0.0458861111832974,15.8588573429243
0.0510084136728466,15.8598870526959
0.0567811520631734,15.8608844340281
0.063296700032038,15.8618525011031
0.0706640711797964,15.8627943975296
0.0790132105267173,15.8637134283884
0.0885006172619208,15.8646131040054
0.0993165427736594,15.8654971778941
0.111695083199064,15.8663697411961
0.125928076346413,15.8672353430523
0.142384988874238,15.8680991716001
0.161542992212804,15.868967360124
0.184037434595299,15.8698476052996
0.210762022387344,15.870750648749
0.24164997483184,15.8716544618515
0.277449138792879,15.8725673569306
0.319200327592883,15.8735034456127
0.368664191819096,15.87449259172
0.40603179777736,15.8751864256322
0.444584109398323,15.8758802595444
0.478877222887953,15.8765013027527
0.509045178155816,15.8770745531309
0.535572194582513,15.8776292973829
0.558369315398748,15.8781888100153
0.576831642265399,15.8787791176184
0.589512744803085,15.8794431393082
0.592725348348066,15.8801799556147
0.583971069701341,15.8809440356075
0.561895530696324,15.8817577153422
0.527178736053636,15.8825837348788
0.479184118498872,15.8834404531177
0.415727021330782,15.8843521248218
0.364503808446309,15.8849892289829
0.308576996307525,15.8856263331439
0.260034868243267,15.8861514668608
0.219301632636015,15.8865848210743
0.183967984220892,15.8869638265939
0.152559596681952,15.8873100190241
0.124228038311007,15.8876362020601
0.0984088165927919,15.8879515044506
0.0746495096108783,15.88826409771
0.0524756376935977,15.8885838956338
0.0311039476680932,15.8889294559197
0.00742481267488422,15.8893781776027
-0.00121713580753956,15.8895674678388
-0.00909887433912692,15.889756758075
-0.0156416843103605,15.8899290665717
-0.0218372367583404,15.8901081800099
-0.0280571682633595,15.8903077825471
-0.034052122054401,15.8905245298757
-0.0396656360697502,15.8907564902848
-0.0448105714809175,15.8910030179603
-0.049441644904204,15.8912643329437
-0.0535390441433996,15.8915412885905
-0.0570986923498989,15.8918352621117
-0.0601262446694457,15.892148122232
-0.0626325857865186,15.8924822518049
-0.0647435551715783,15.8928675442214
-0.0661777562938545,15.8932524362643
-0.0671313439554658,15.8936693257913
-0.0676187811791734,15.8941242625627
-0.0676489038795485,15.8946245218583
-0.0672242051262826,15.8951795933509
-0.0663350320403767,15.8958037034323
-0.0649549013457178,15.8965157769645
-0.0630278850502296,15.8973450475974
-0.0604326210540191,15.898343964018
-0.0568310848381501,15.8996422923715
-0.0528040531244875,15.9010526311577
-0.0488965264204389,15.9024198613342
-0.0451602934586088,15.9037482684182
-0.0416215242563468,15.905039690523
-0.0382942334611467,15.9062946535211
-0.0351853395783033,15.9075130290019
-0.0322968916443713,15.908694385647
-0.0296272482293128,15.9098381749427
-0.0271718459068119,15.9109438272094
-0.0249237996002269,15.9120107969896
-0.022874422061752,15.9130385780937
-0.0210136959117979,15.9140266992157
-0.0193307026586286,15.9149747061838
-0.0178140075501138,15.9158821341901
-0.0163591794263769,15.9168095472753
-0.0149661792445685,15.9177609507234
-0.0136388957326737,15.9187382410001
-0.0123809877313549,15.9197436587832
-0.0111958652128413,15.9207798453946
-0.0100866336272244,15.9218499435507
-0.00905603521653636,15.9229577311669
-0.00810638665385002,15.9241078031443
-0.00723951216598972,15.9253058244869
-0.00645667035606403,15.9265588931012
-0.0057584713936754,15.9278760781334
-0.00514477843859665,15.9292692531514
-0.0046145815444709,15.9307544551391
-0.00416582021308497,15.9323542556811
-0.00381375399704471,15.9340003844915
-0.00354335761538823,15.9357013286106
-0.00333881264810052,15.9374757328555
-0.00318518772714554,15.9393475297548
-0.00306789111569228,15.9413494458193
-0.00297193765682477,15.943529418301
-0.00288062197872273,15.9459647639972
-0.00277232903688878,15.9488006839283
-0.00263700046589815,15.9518411935645
-0.00247829050887807,15.9548146404611
-0.00229464223891864,15.9577688074419
-0.00208751815246277,15.9607407707571
-0.00185970818129192,15.9637582597742
-0.00161433981609034,15.9668439692163
-0.00135433655338909,15.9700178502063
-0.00108213139655931,15.97329840662
-0.000799541235442541,15.9767035159566
-0.000507732993019027,15.9802510034272
-0.000207239806440666,15.9839590908953
0.000102001285921899,15.9878469059411
0.000420617992066706,15.9919352429609
0.000749830199612578,15.9962480277805
0.00108022143172337,16.0006609944258
0.00142773548467454,16.0053849029922
0.00179839588942089,16.0104984480331
0.00215961085805943,16.0155280178795
0.00252843463097988,16.020684722875
0.00283928860540286,16.0250154322314
0.00313049858181693,16.029046228792
0.00341631826749631,16.0329608660763
0.00370435468141246,16.0368484329295
0.00400008133757153,16.040765284329
0.00430826156042641,16.0447536106827
0.00463359328138499,16.0488489850534
0.00498103794796118,16.0530832845563
0.00535619416877345,16.0574875125384
0.00576565921409701,16.0620932908198
0.00621753960339012,16.0669341811522
0.00671200091936496,16.0719452900448
0.00722724510280909,16.0768557901393
0.00777411779303093,16.0817334967047
0.00835372119380305,16.0865421370959
0.00897210077904829,16.0912840529217
0.00963562535900401,16.0959562280234
0.0103539617355209,16.1005708022363
0.0111526456683827,16.1052179585474
0.0120462792232455,16.1098906098814
0.0130575926850464,16.1146076544599
0.0142178971820288,16.1194020822068
0.0155779901771397,16.1243498745376
0.0172425144385539,16.1296508158779
0.0195768389542558,16.1361104376098
0.0212477134780985,16.1402909483592
0.022992325584875,16.1444714591086
0.0244926296098245,16.1480866173793
0.0257507672122768,16.151308792948
0.026800822986662,16.1543556867929
0.0276200611278754,16.1572989928953
0.0281713951499561,16.1601243526916
0.0284520683070978,16.1629535964499
0.0284286749855371,16.1659480283388
0.0279793033504808,16.1694702240587
0.0271857076868012,16.1727471310992
0.0260893534957698,16.1760240381396
0.0249995757654891,16.1787448284145
0.0239254927373048,16.1811743524613
0.0228523197973876,16.1834645433651
0.021778929137997,16.1856797208287
0.0207082342485675,16.1878540350694
0.0196439307779466,16.1900092783728
0.0185897058713547,16.1921609779891
0.0175490277709751,16.1943210646081
0.0165250917996612,16.196499253648
0.0155208162340873,16.1987038392254
0.0145388445139118,16.200942209221
0.0135815630585254,16.2032211706409
0.0126511051794085,16.20554721129
0.0117493647209646,16.2079266809463
0.0108780072358809,16.2103659403223
0.0100384710329309,16.2128715171805
0.00923198238938008,16.215450214062
0.00845682040594688,16.2181190471113
0.00769406111629904,16.2209650585907
0.00694753946725281,16.2240080787881
0.00622100824464143,16.2272720870664
0.00551842869339344,16.2307847408098
0.00484393077315994,16.234578064413
0.0042017429247195,16.2386893539339
0.00359607690230869,16.2431624892986
0.00303094908007056,16.2480500972444
0.00250992780725649,16.2534174687635
0.0020358661845997,16.2593493412642
0.00161096466800671,16.2659593468618
0.00124775506186111,16.2731510608906
0.000945341471339849,16.2809379876719
0.000697060800767578,16.2894497901102
0.0004967211192557,16.2988582022697
0.000349356216329755,16.3088582022697
0.000251973256214048,16.3188582022697
0.000185375194696651,16.3288582022697
0.000138972867610867,16.3388582022697
0.000106685578285367,16.3488582022697
8.45310599443907e-05,16.3588582022697
6.96153971451461e-05,16.3688582022697
5.97922341678417e-05,16.3788582022697
5.35136745079629e-05,16.3888582022697
4.97014022345892e-05,16.3988582022697
4.76200640150149e-05,16.4088582022697
4.67707567546077e-05,16.4188582022697
4.68135715991009e-05,16.4288582022697
4.7515984250845e-05,16.4388582022697
4.87193789086348e-05,16.4488582022697
5.03169210859793e-05,16.4588582022697
5.22384208321768e-05,16.4688582022697
5.44397443760892e-05,16.4788582022697
5.68953929589669e-05,16.4888582022697
5.95933655487612e-05,16.4988582022697
6.25316704649481e-05,16.5088582022697
6.57160141965716e-05,16.5188582022697
6.91583261478813e-05,16.5288582022697
7.28758827398236e-05,16.5388582022697
7.68908730708331e-05,16.5488582022697
8.12303046263722e-05,16.5588582022697
8.59261873287802e-05,16.5688582022697
9.10159633831247e-05,16.5788582022697
9.65431733437393e-05,16.5888582022697
0.000102558368710454,16.5988582022697
0.000109120300483877,16.6088582022698
0.00011629743351555,16.6188582022698
0.000124169860349173,16.6288582022698
0.000132831718180151,16.6388582022698
0.000142394252013007,16.6488582022698
0.000152989720903078,16.6588582022698
0.000164776419391357,16.6688582022698
0.000177945193513252,16.6788582022698
0.000192727986488998,16.6888582022698
0.000209409179242094,16.6988582022698
0.000228340836858055,16.7088582022698
0.00024996350243773,16.7188582022698
0.000274835009742429,16.7288582022698
0.000303671114485027,16.7388582022698
0.000337403924075547,16.7488582022698
0.000377267782815524,16.7588582022698
0.000424928665763257,16.7688582022698
0.000479131192674347,16.7782856225878
0.000539173755695297,16.7869452931772
0.00060543568597177,16.7948942627566
0.000678409448100464,16.8021942171075
0.000758632624903614,16.8089016746871
0.000846673318087494,16.8150681882188
0.000943132354704684,16.8207412242039
0.00104863661341589,16.82596406058
0.00116384851866377,16.8307763793237
0.0012894702710724,16.8352147653593
0.00142624903923762,16.8393126742778
0.00157499301686609,16.8431010724319
0.00173657874069871,16.8466083898291
0.00191198590554822,16.8498610162264
0.00210231644296825,16.8528833719501
0.00230885344561073,16.8556982837215
0.00253312515977082,16.8583271943194
0.00277700442213321,16.8607904928423
0.00304286925191946,16.8631079124223
0.00333384291652383,16.8652990146003
0.00365419841783913,16.8673839890299
0.00401006998762388,16.8693849011389
0.00441082709524403,16.8713280589499
0.00487207396108476,16.8732491612304
0.00542358258451043,16.8752069958473
0.00612278483612495,16.8772917632954
0.00689873837406911,16.8792227809247
0.00775109401341546,16.881005660482
0.00869024780431779,16.8826694470221
0.00965492405559133,16.8841350688835
0.0106996475546698,16.8855139464306
0.0119017702890299,16.8868990750719
0.0133732770578233,16.8883776961801
0.0153449820205024,16.8900950940338
0.0173336294954725,16.8916217430826
0.0195109443285724,16.8931483921314
0.0214217600926408,16.894425774923
0.0230853461504406,16.8955350036885
0.0245816168970638,16.8965706959355
0.0259285186696338,16.8975813603057
0.0271170792639264,16.8986034643248
0.0281199308364091,16.899678077416
0.0288831784567194,16.9008718017584
0.0292778237912506,16.902355892158
0.0290078836462846,16.9040462911041
0.028092954540949,16.9057366900502
0.0269809164925424,16.9071233575525
0.0257046692059833,16.9084548132365
0.0242619784463667,16.9098218038829
0.022661636479374,16.9112683267159
0.0209102451903488,16.9128348598941
0.0196990211186816,16.9139332915216
0.0185387159743282,16.9150317231491
0.01593210745421,16.9177521629973
0.0133420243914841,16.9209484775717
0.0114253189645593,16.9238153115361
0.0099888037545122,16.9264196470335
0.00887066789676961,16.9288899851281
0.00795877176207609,16.9313972285439
0.00723858616575389,16.9339715804967
0.00670999402265638,16.9366360870901
0.006386040862503,16.9394137783891
0.00629449089710924,16.9419817688165
0.00639533649417683,16.9443377729128
0.00666203939948527,16.9465319337888
0.00708590407587689,16.9486165931015
0.00767694766235711,16.9506522401307
0.00847501601349173,16.9527257313834
0.00958252733301423,16.9549838296833
0.0112016977403593,16.9576274279123
0.013247312029137,16.9603615574771
0.0148289293095236,16.9621739166458
0.0166253965880445,16.9639862758145
0.0184702798902448,16.9656163777572
0.0204046538696521,16.9671110380421
0.0224941047327014,16.968518010573
0.0247895856395843,16.9698592506336
0.0273361327727865,16.9711454216964
0.0301770582672056,16.9723821055487
0.0333569907491379,16.9735728703679
0.036922922877685,16.9747202579125
0.0409274595016033,16.9758269197184
0.045429794399976,16.9768955125136
0.0504967097521688,16.977928621031
0.0562061868686122,16.9789291364375
0.0626493224204992,16.9799000678231
0.0699335536493815,16.9808445539232
0.0781867590634647,16.981765882457
0.0875628340812952,16.9826675461998
0.0982487937358758,16.9835532844527
0.110474459329607,16.9844271603934
0.124526115932883,16.9852936901479
0.140765771196937,16.9861580133651
0.159660264584604,16.9870261895142
0.181829452236613,16.9879057771056
0.208140245292102,16.9888072051065
0.238622231920858,16.9897113204542
0.273940580129371,16.9906237252071
0.315101861530165,16.9915578355915
0.363768645858047,16.9925413737934
0.40152307533504,16.993247558309
0.440634333388106,16.9939537428246
0.475384767054277,16.9945825355177
0.505908645279014,16.9951596134767
0.53277079648641,16.9957156337701
0.555933313132414,16.9962741091376
0.574847532041123,16.996860342322
0.588187057011099,16.9975143501065
0.592501553048574,16.9982501677257
0.584946634364558,16.9990109651878
0.564241947634918,16.9998191584409
0.530596943988055,17.0006475653736
0.483986199913332,17.0014997363325
0.421864534639068,17.0024088830135
0.369907734841987,17.0030635347807
0.312861294060528,17.0037181865479
0.263485007519734,17.0042541298304
0.222236406028415,17.0046933413247
0.186553682336876,17.0050757563926
0.154881801742213,17.0054240582512
0.126338599301116,17.0057515152321
0.100345305357374,17.0060674312766
0.0764457043262325,17.0063799676403
0.0541738705017419,17.006698750877
0.0327952618691105,17.0070410640927
0.00969327520117468,17.0074719538729
0.000219456655646071,17.007675654077
-0.00836836793454182,17.0078793542812
-0.0150333160503159,17.0080533362024
-0.0212069138192225,17.0082301493453
-0.0274359731783178,17.0084278669897
-0.0334615644749135,17.0086430281531
-0.0391179925024186,17.0088735350314
-0.0443125281887726,17.0091186326546
-0.0489965188915442,17.0093784657789
-0.05314808430569,17.0096538297283
-0.0567618629740052,17.009946050803
-0.0598427222135809,17.0102569476591
-0.0624016963313104,17.010588848411
-0.0645666435471077,17.0109710615165
-0.0660508864303944,17.0113529447439
-0.0670530591141929,17.011766316387
-0.0675879607079983,17.0122170836178
-0.06766493693321,17.0127123338891
-0.0672872679924223,17.0132612857844
-0.0664468782329763,17.0138775816044
-0.0651193844447257,17.0145795171508
-0.0632529655949396,17.0153948823706
-0.0607364057577837,17.0163725232509
-0.057273078434446,17.0176274381874
-0.0532380179789114,17.0190432091471
-0.0493151177239552,17.0204147898059
-0.0455595220503916,17.0217472050596
-0.0419992579475533,17.0230425040523
-0.0386493235640239,17.0243013187212
-0.0355172599616116,17.0255235724519
-0.0326055661767335,17.0267088569619
-0.0299129505004757,17.0278566316074
-0.0274351283642842,17.0289663268875
-0.0251654352044887,17.0300373941615
-0.0230953525814678,17.0310693233629
-0.0212149850792274,17.0320616403735
-0.0195134936940246,17.0330138905227
-0.0179794854930727,17.0339256117945
-0.0165182268035288,17.0348506149219
-0.0151182380946722,17.0357994848223
-0.0137835130913295,17.0367740312096
-0.0125177263457223,17.0377764589222
-0.0113243095382029,17.0388093641362
-0.0102063954778279,17.0398758328054
-0.00916675982692044,17.0409795704949
-0.00820775920948883,17.0421250783702
-0.00733126492093975,17.0433178975832
-0.00653859055301216,17.0445649584372
-0.00583041038432499,17.0458750965022
-0.00520666273131802,17.0472598476372
-0.00466642718477825,17.0487347370411
-0.00420775344314426,17.0503215109924
-0.00384435639521065,17.0519630982085
-0.00356439571598661,17.0536575002594
-0.00335187457752221,17.0554232246976
-0.00319180806716689,17.057283503172
-0.00306960899047037,17.0592699185911
-0.00297039051572383,17.0614283548696
-0.00287773247824332,17.0638319378215
-0.00277081463882842,17.0666152530019
-0.00263651335494386,17.0696572556245
-0.00247951803946832,17.0726317687442
-0.00229768692603846,17.0755858423999
-0.0020921819480881,17.0785568715517
-0.00186567155067009,17.0815727606577
-0.00162126357181345,17.084656299445
-0.00136191865836461,17.0878274870904
-0.00109013304965437,17.0911048510332
-0.000807794062161062,17.0945062710675
-0.000516135073291295,17.0980495644971
-0.000215746036956226,17.1017529341834
9.33917714009418e-05,17.1056354776541
0.000411874252093113,17.1097179415706
0.00074089863909696,17.1140241686309
0.00107150125818665,17.1184362572877
0.00141896839673409,17.1231561197577
0.00179003269912938,17.1282723014942
0.0021514409831974,17.1333023759201
0.00252120895963305,17.1384709004197
0.00283238690497124,17.1428053923027
0.00312374468554725,17.1468380035691
0.00340962662601495,17.1507536804479
0.00369766508544091,17.154641859173
0.00399334187244049,17.1585590385267
0.00430142087669983,17.1625474708475
0.00462659794829657,17.1666427775605
0.00497382829547738,17.1708768548151
0.00534870100644363,17.1752807160112
0.00575779954717294,17.1798859852276
0.00620921088965369,17.1847262229992
0.006703307051517,17.1897387510055
0.00721805472222299,17.1946500543515
0.00776437489951914,17.1995288745485
0.00834332699643527,17.2043385911067
0.00896095231468176,17.2090816217618
0.00962359967486061,17.2137548998311
0.0103406429014703,17.2183688815626
0.0111378312606768,17.2230157015896
0.0120296371617604,17.2276877801242
0.0130386879228343,17.2324038940277
0.0141960754118511,17.2371965686704
0.0155520928985504,17.242140644092
0.0172097686395184,17.2474321688742
0.0195233998228783,17.2538508977685
0.0212025797479784,17.2580600219498
0.022958228785977,17.2622691461311
0.0244648559529232,17.2658971381643
0.0257274152146926,17.2691247975847
0.0267816065732562,17.2721736695385
0.027606295685412,17.275120603216
0.028162915529934,17.2779471928964
0.0284491495483471,17.2807750289058
0.0284324750855186,17.2837639181095
0.0279944289372611,17.2872677858677
0.0272033814972624,17.2905645628175
0.0261046552864416,17.2938613397674
0.0250139601716432,17.2965892783553
0.0239397668514677,17.2990215017547
0.0228666059690444,17.3013130371572
0.0217932052409251,17.3035289572645
0.0207224527490603,17.3057036594772
0.0196580409829322,17.3078590495639
0.018603659271224,17.3100107166867
0.0175627791621485,17.3121706291781
0.0165385997914141,17.3143485259637
0.0155340430525352,17.3165527166932
0.0145517559740561,17.3187905991357
0.0135941284084655,17.3210689864287
0.0126632967457126,17.3233943702567
0.0117611580635038,17.3257731014424
0.0108893810152015,17.3282115399418
0.0100494066241016,17.3307162119524
0.0092424641019966,17.333293916061
0.00846715981460406,17.3359604927357
0.00770420745817405,17.3388040008327
0.00695744364473811,17.3418442169872
0.00623061805722554,17.3451050755559
0.00552768949652641,17.3486141794047
0.00485278598519846,17.3524034887742
0.00421013525759926,17.3565102211709
0.0036039502938465,17.3609781560086
0.0030382517211887,17.3658597801882
0.00251661597983646,17.371220173448
0.00204190700568892,17.3771437504157
0.00161633726397407,17.3837436811833
0.00125225635098974,17.3909280069125
0.000949061271591581,17.3987060560628
0.000700086069123664,17.4072069530275
0.000499132169979952,17.4166017745887
0.000350992305900245,17.4266017745887
0.000253107195557254,17.4366017745887
0.000186173390995354,17.4466017745887
0.000139539001660182,17.4566017745887
0.000107088183448674,17.4666017745887
8.4818035452481e-05,17.4766017745887
6.98209383279156e-05,17.4866017745887
5.99405920396822e-05,17.4966017745887
5.36217828424591e-05,17.5066017745887
4.97809506550868e-05,17.5166017745887
4.76790942413708e-05,17.5266017745887
4.68148137036021e-05,17.5366017745887
4.68464921706868e-05,17.5466017745887
4.75404267140506e-05,17.5566017745887
4.87371799978581e-05,17.5666017745887
5.03293408119029e-05,17.5766017745887
5.22463124958728e-05,17.5866017745887
5.44436730407851e-05,17.5966017745887
5.68957176047734e-05,17.6066017745887
5.95902954938821e-05,17.6166017745887
6.25253036093718e-05,17.6266017745887
6.57063624534203e-05,17.6366017745887
6.91453317978055e-05,17.6466017745887
7.28594282550786e-05,17.6566017745887
7.68707861104217e-05,17.6666017745887
8.12063593075085e-05,17.6766017745887
8.58981024523017e-05,17.6866017745887
9.0983397970624e-05,17.6966017745887
9.65057195890054e-05,17.7066017745887
0.000102515542225961,17.7166017745887
0.000109071527509328,17.7266017745887
0.000116242034526484,17.7366017745887
0.000124107029234312,17.7466017745887
0.000132760495816169,17.7566017745887
0.000142313492614599,17.7666017745887
0.000152898048907989,17.7766017745887
0.00016467217377103,17.7866017745887
0.000177826355153656,17.7966017745887
0.000192592082466633,17.8066017745887
0.000209253155115409,17.8166017745887
0.000228160883998999,17.8266017745887
0.00024975482110291,17.8366017745887
0.000274591478602996,17.8466017745887
0.000303384821212341,17.8566017745887
0.00033706448485188,17.8666017745887
0.000376861333033245,17.8766017745887
0.000424436323811567,17.8866017745887
0.000478604297659997,17.8960406121983
0.000538618149866355,17.9047111207559
0.000604855502257997,17.9126699503344
0.000677809664761339,17.919978864431
0.000758019769305222,17.926694469126
0.000846055814756952,17.9328683903525
0.000942520894072885,17.9385481610746
0.00104804457478744,17.9437771260311
0.00116329209683504,17.9485950144989
0.00128896900757141,17.9530384648825
0.00142582610532139,17.9571409739027
0.00157467553830178,17.9609335493689
0.00173639829017047,17.9644446555184
0.00191197883770749,17.9677007149995
0.00210252413519613,17.9707261746395
0.00230932296453733,17.9735438866574
0.00253390929837808,17.9761753128137
0.00277816221036235,17.978640858913
0.00304446622624903,17.9809602683857
0.00333595104490664,17.9831531061492
0.00365689542948442,17.9852395545446
0.00401343711809227,17.98724165262
0.00441494199155049,17.9891856461868
0.00487698782660452,17.9911070866141
0.00542923443440911,17.9930643605883
0.00612921057534407,17.9951480282781
0.00690578972256389,17.9970775284232
0.00775884196404318,17.9988591476283
0.00869879872889546,18.0005219263464
0.00966678105732979,18.0019902542119
0.0107140294872644,18.0033700309334
0.0119177261421344,18.0047545392331
0.0133890333792117,18.0062306692886
0.0153553787349775,18.0079416054791
0.0173469065718765,18.0094693949073
0.0195270830785643,18.0109971843355
0.021435986420708,18.0122729302836
0.0230982187616624,18.0133812902311
0.0245934167713066,18.014416587436
0.0259392483949395,18.0154271544611
0.0271265945296434,18.016449439077
0.0281279366211981,18.0175246045224
0.0288890857483474,18.0187195972891
0.0292799001877924,18.020207387111
0.0290052879234065,18.0218946255011
0.0280889872238223,18.0235818638912
0.0269762480643732,18.0249676198911
0.0256991334962538,18.0262990408975
0.0242555675389656,18.027666291873
0.0226543595929771,18.0291132802287
0.0209020755931241,18.0306805143777
0.0196866727367335,18.0317828327589
0.0185229051131101,18.0328851511402
0.0159146966804031,18.0356094595711
0.0133289383468703,18.0388034244923
0.0114151581192848,18.0416683530001
0.00998036336445703,18.0442716031146
0.00886300902170294,18.0467420375904
0.00795166698335074,18.0492495636209
0.00723185085973145,18.0518243239937
0.006703437846341,18.0544893592827
0.00637944361611418,18.0572677043993
0.00628763509016634,18.0598378629589
0.0063882253882405,18.0621955801286
0.00665459750610011,18.0643909749279
0.00707795582109475,18.0664762994481
0.00766814070180093,18.0685118390161
0.0084645745168967,18.0705839053713
0.00956839001039401,18.072837666993
0.0111843861869227,18.0754795377606
0.0132268271178392,18.0782123803492
0.0148096320318883,18.0800277886762
0.0166077009442477,18.0818431970032
0.0184533722910837,18.083475198244
0.0203876641053273,18.0849709270937
0.0224764357980355,18.0863785831265
0.0247707872772632,18.0877203308122
0.0273158013350871,18.0890069160377
0.0301548059169157,18.0902439604066
0.0333324648030308,18.0914350651077
0.0368957389081095,18.092582771343
0.0408971865681557,18.0936897287989
0.0453959897839464,18.0947586034538
0.0504588700381163,18.0957919773754
0.0561637286564048,18.0967927393164
0.0626015713584738,18.0977638978756
0.0698797272757535,18.098708591961
0.0781259295208881,18.0996301081241
0.0874938876174974,18.1005319377673
0.0981703921908399,18.1014178196934
0.11038496606697,18.1022918154054
0.12442351195993,18.1031584393196
0.140647529886292,18.104022828551
0.159523167966896,18.1048910387469
0.181669262250855,18.1057706207911
0.207950987858512,18.106671985338
0.238403868632941,18.1075761577792
0.273687889327924,18.1084885702544
0.314807354236087,18.1094225943364
0.363418433288828,18.1104058142035
0.401198674223243,18.1111129084746
0.440347663926063,18.1118200027457
0.475128838549984,18.1124493792943
0.505676132434078,18.1130267605431
0.532560058350518,18.1135829044482
0.555746222815814,18.1141413438073
0.574689705523409,18.114727335689
0.588071883123706,18.1153807098013
0.592459701259453,18.1161164927595
0.584984726728308,18.1168770971447
0.564371577115879,18.1176849424464
0.530794568518671,18.1185136175073
0.484271602230596,18.1193655535197
0.422238398711957,18.1202745292916
0.370237964334077,18.1209303037666
0.313122820279069,18.1215860782416
0.263695439562888,18.1221227107432
0.222415514493454,18.1225622960415
0.186711747923658,18.1229449295546
0.1550240600026,18.1232933677666
0.126468193583274,18.1236209086084
0.100464502184176,18.1239368672761
0.0765565390550956,18.1242494047683
0.0542788915729512,18.1245681307072
0.032899878809718,18.1249102537094
0.00982963460696107,18.1253401526371
0.000299080374110076,18.1255448601804
-0.00833643090627911,18.1257495677238
-0.0150075241895474,18.1259236492743
-0.021180015066864,18.1261003659577
-0.0274093164909644,18.1262980053923
-0.0334361034925091,18.1265131019769
-0.0390942747911172,18.1267435505267
-0.0442908554421916,18.1269885912406
-0.0489770448789702,18.1272483655747
-0.0531308720608842,18.1275236663377
-0.0567469191095592,18.1278158176486
-0.0598300185006712,18.1281266360306
-0.0623911871031861,18.1284584472845
-0.0645577059339432,18.1288403921384
-0.0660442302285914,18.1292221405483
-0.0670486287732911,18.129635355981
-0.0675857072572415,18.1300859373957
-0.0676648341350382,18.1305809636445
-0.0672893251808156,18.1311296409384
-0.0664511759576827,18.1317455850437
-0.0651260988731831,18.1324470633112
-0.0632624578327361,18.1332618008604
-0.0607494862577215,18.1342384846059
-0.0572923161053326,18.1354914869666
-0.0532569589061875,18.1369075043273
-0.0493334322289599,18.13827927524
-0.0455770264566556,18.1396118636961
-0.0420158543003941,18.1409073289126
-0.0386649584779504,18.1421663079199
-0.0355319077225652,18.1433887266322
-0.0326192207870701,18.1445741779342
-0.0299256211495421,18.1457221216275
-0.0274468363234946,18.1468319882852
-0.0251762113061521,18.1479032291716
-0.0231052350201409,18.1489353340783
-0.0212240174371827,18.1499278287801
-0.0195217231476859,18.1508802585896
-0.017986961228414,18.151792161608
-0.0165254105492965,18.1527170627904
-0.0151251037703475,18.1536658255529
-0.0137900388950677,18.1546402559319
-0.0125238909092279,18.1556425572617
-0.0113300921728043,18.1566753238234
-0.0102117764072493,18.1577416391902
-0.00917172043932785,18.1588452058942
-0.0082122823316145,18.1599905211755
-0.00733533511848464,18.1611831210044
-0.00654219446502846,18.1624299286827
-0.00583353710608931,18.1637397700388
-0.00520930427129199,18.1651241668784
-0.004668579045148,18.1665986231638
-0.0042094154270329,18.1681848510582
-0.00384546356455895,18.1698262498104
-0.00356502248652283,18.1715203792318
-0.0033520879058346,18.173285741782
-0.00319167289591065,18.1751455401527
-0.00306919060722158,18.1771313102273
-0.00296975832495802,18.1792888519532
-0.00287696740505376,18.1816911212602
-0.00277002893765391,18.1844722801413
-0.00263571805215123,18.1875140185366
-0.00247875260830413,18.1904884390459
-0.00229696107324701,18.1934425013649
-0.00209148934536358,18.1964135750876
-0.00186499882797417,18.1994295517334
-0.00162059566758045,18.2025132137856
-0.00136124183231407,18.2056845560874
-0.00108943623737396,18.2089621036262
-0.000807069170297239,18.2123637348012
-0.000515376645080058,18.2159072665372
-0.000214950568217847,18.2196109024094
9.4226733068423e-05,18.2234937424343
0.000412751150256101,18.227576539095
0.000741821114612011,18.2318831474726
0.00107249664482179,18.236295982277
0.00142018348157676,18.2410185883141
0.00179119707835191,18.2461337215135
0.00215265349033374,18.2511640543133
0.00252201303841214,18.256326281929
0.0028331023159332,18.2606590619467
0.00312445280381398,18.2646910855279
0.00341036193468584,18.268606624265
0.00369844955205704,18.2724949232536
0.0039941933511854,18.2764124049713
0.00430235668209204,18.2804012909883
0.00462763588691516,18.2844971814616
0.00497498837566751,18.2887319674581
0.005350006649184,18.2931366631314
0.00575927929480386,18.297742899224
0.00621090082308306,18.3025842467073
0.00670507200285109,18.3075962543213
0.00721995242415252,18.3125075122481
0.00776639824823161,18.3173860582088
0.00834549781739247,18.3221955251462
0.00896329067245144,18.3269382815659
0.00962613455821404,18.3316113014621
0.0103434676369284,18.3362254056975
0.0111409931800251,18.3408723009861
0.0120332122284218,18.345544513772
0.013042774747524,18.3502608452052
0.014200821004554,18.3550539216105
0.0155577560137938,18.3599988351532
0.0172169658845498,18.3652924619793
0.019535180276716,18.3717202179958
0.021212502372638,18.3759229221812
0.0229656826190529,18.3801256263666
0.0244709096749722,18.3837507589452
0.0257324960998556,18.3869772004428
0.0267857795751462,18.3900256312609
0.0276092709964874,18.392971761975
0.0281647301577844,18.3957980774006
0.0284497439355942,18.3986262190483
0.0284315967890963,18.4016163191196
0.0279910781479966,18.4051241761098
0.027199473167016,18.408416566804
0.0261012774021753,18.4117089574982
0.0250107881223177,18.4144353270213
0.023936621155408,18.4168669617975
0.0228634592202635,18.419158205326
0.0217900619931411,18.4213739649844
0.0207193231695361,18.4235485841763
0.0196549359498047,18.4257039439455
0.0186005891943491,18.4278556200004
0.0175597537348662,18.4300155725174
0.0165356278752917,18.4321935353612
0.0155311327195599,18.4343978148667
0.0145489145111393,18.4366358067331
0.0135913623495219,18.4389143228662
0.0126606119515522,18.4412398542239
0.0117585596865668,18.4436187515484
0.0108868735296697,18.4460573751372
0.0100469939100583,18.4485622517456
0.00924014940287812,18.4511401810724
0.00846487719212134,18.4538072522855
0.00770196798364796,18.4566513091038
0.00695525805422105,18.4596921397917
0.00622849776384472,18.4629536885457
0.00552564644659968,18.4664635701439
0.00485083254919324,18.4702537588241
0.00420828396204354,18.4743614892061
0.00360221340119115,18.4788305625531
0.00303664057112243,18.4837134960873
0.00251514014989248,18.4890754152931
0.00204057370725446,18.4950008046407
0.00161515217416787,18.5016029340865
0.00125126300199995,18.5087888773921
0.000948239597247944,18.5165688697938
0.000699416767556172,18.5250721529896
0.0004985974925963,18.5344699469469
0.000350635308052582,18.5444699469469
0.000252863999793854,18.5544699469469
0.000186005012358731,18.5644699469469
0.00013942165447216,18.5744699469469
0.000107006558102745,18.5844699469469
8.47615749389439e-05,18.5944699469469
6.97820979092277e-05,18.6044699469469
5.99139832045316e-05,18.614469946947
5.36036204544381e-05,18.624469946947
4.97686160959326e-05,18.634469946947
4.76707880379459e-05,18.644469946947
4.68092980258232e-05,18.654469946947
4.68429119042695e-05,18.664469946947
4.75381891877126e-05,18.674469946947
4.87358742533749e-05,18.684469946947
5.03286825110781e-05,18.694469946947
5.224610566202e-05,18.704469946947
5.4443783263216e-05,18.714469946947
5.68960532797502e-05,18.724469946947
5.95907947542187e-05,18.734469946947
6.25259252626236e-05,18.744469946947
6.57070797211514e-05,18.754469946947
6.91461280015492e-05,18.764469946947
7.28602938545961e-05,18.774469946947
7.68717166846075e-05,18.784469946947
8.1207354196172e-05,18.794469946947
8.58991638648841e-05,18.804469946947
9.09845304286904e-05,18.814469946947
9.65069296120559e-05,18.824469946947
0.000102516838200643,18.834469946947
0.000109072919704463,18.844469946947
0.000116243535233224,18.854469946947
0.000124108653024312,18.864469946947
0.000132762259922579,18.874469946947
0.000142315417452485,18.884469946947
0.00015290015876393,18.894469946947
0.000164674497708002,18.904469946947
0.000177828928199192,18.914469946947
0.000192594947183131,18.924469946947
0.000209256363696742,18.934469946947
0.000228164501105751,18.944469946947
0.000249758927753943,18.954469946947
0.000274596177607871,18.964469946947
0.000303390244899959,18.974469946947
0.000337070806302593,18.984469946947
0.000376868782798417,18.994469946947
0.000424445215484727,19.004469946947
0.000478613540142844,19.0139085561027
0.000538627571050083,19.0225788494785
0.000604864960116964,19.0305374847828
0.000677818995178945,19.0378462235942
0.000758028772239467,19.0445616699445
0.000846064247883278,19.0507354480599
0.000942528466196368,19.056415089377
0.00104805093832723,19.0616439371359
0.00116329684620803,19.0664617195264
0.00128897166957474,19.0709050737689
0.00142582613433632,19.0750074956586
0.00157467231047864,19.0787999920894
0.00173639109384896,19.0823110265325
0.00191196686645965,19.0855670209041
0.00210250648145282,19.0885924214236
0.00230929860370318,19.0914100797193
0.00253387708264172,19.094041457076
0.00277812084945188,19.0965069588456
0.00304441426663748,19.0988263280924
0.00333588684430046,19.1010191294376
0.00365681712151158,19.1031055450202
0.00401334256348793,19.1051076138442
0.00441482872044375,19.1070515819391
0.004876853005879,19.108973001523
0.00542907507317966,19.1109302620319
0.00612902459685504,19.1130139301789
0.00690558235089051,19.114943448736
0.00775860992689616,19.1167250785884
0.008698537009471,19.1183878593335
0.00966646140410887,19.1198561471585
0.0107136596029253,19.1212359028805
0.0119173152308854,19.1226204057033
0.0133885996378763,19.1240965484942
0.0153549782648579,19.1258075353816
0.0173466579255856,19.1273354343588
0.0195270403678177,19.1288633333359
0.02143607168867,19.130139118665
0.0230983843640773,19.1312474818008
0.0245936505894392,19.1322827698843
0.0259395483192681,19.1332933205989
0.0271269626777993,19.1343155818114
0.0281283790806744,19.1353907138407
0.0288896161122328,19.1365856535596
0.0292805613955242,19.1380733248678
0.0290060896009281,19.1397606214532
0.0280898301949428,19.1414479180386
0.0269771052544392,19.1428336800545
0.0257000023095575,19.1441650876746
0.0242564414676557,19.1455323201113
0.0226552313687318,19.1469792872208
0.0209029382541208,19.1485464972422
0.0196876668758853,19.1496486686682
0.0185240031664606,19.1507508400942
0.0159157857946922,19.1534750108348
0.013329755387648,19.1566691283448
0.0114158026281875,19.159534166544
0.0099809073931366,19.1621374765357
0.0088635071557463,19.1646079008477
0.00795213084040192,19.16711540581
0.00723228856945886,19.1696901376719
0.00670385634818442,19.1723551372516
0.00637984916446812,19.1751334391022
0.00628803397200283,19.1777035559326
0.00638862248053568,19.1800612336246
0.00665499643211783,19.1822565897846
0.007078358814275,19.1843418733282
0.00766854765574914,19.1863773641206
0.00846498009392075,19.1884493632256
0.00956877178640536,19.1907030098783
0.0111847840452346,19.1933448207853
0.0132272518598862,19.1960775916919
0.0148101246258605,19.1978929965481
0.016608278277765,19.1997084014044
0.018454036673326,19.2013403953142
0.0203884132431975,19.2028361107539
0.0224772733123082,19.2042437518403
0.0247717179251685,19.2055854834474
0.0273168324618472,19.2068720526194
0.0301559471919664,19.2081090815632
0.0333337257549646,19.2093001708984
0.036897132173725,19.2104478625123
0.0408987287480325,19.2115548066164
0.0453976983919609,19.212623668678
0.0504607659639714,19.2136570308853
0.0561658369715963,19.2146577820894
0.0626039216212817,19.2156289308769
0.0698823541553324,19.21657361611
0.0781288744312791,19.2174951243669
0.0874972005789246,19.218396947102
0.0981741335016073,19.2192828231312
0.110389209682636,19.2201568140318
0.124428349340954,19.2210234343021
0.140653075781557,19.2218878211825
0.159529568888924,19.2227560305086
0.181676711881187,19.2236356135407
0.207959760379182,19.224536981813
0.238413958679251,19.2254411522873
0.273699535080054,19.2263535651259
0.314820898216187,19.2272875939763
0.363434512040815,19.2282708293932
0.401213543632933,19.2289778824316
0.440360773723569,19.22968493547
0.475140512541479,19.2303142857185
0.505686710166652,19.2308916535337
0.532569616244805,19.2314477922266
0.555754675131923,19.2320062336677
0.574696794575783,19.2325922370029
0.588076995824707,19.233245640438
0.592461434977739,19.2339814254048
0.584982782302251,19.2347420390034
0.564365427944392,19.2355499005332
0.530785250649917,19.2363785644348
0.484258195318423,19.2372305121654
0.422220877916688,19.2381394963234
0.370222541840338,19.2387952179601
0.313110675166349,19.2394509395968
0.263685727537347,19.2399875397306
0.22240729419085,19.2404271075329
0.186704530377897,19.2408097308588
0.155017596172837,19.2411581627366
0.126462333963187,19.2414856997034
0.100459139153989,19.2418016564244
0.0765515764180949,19.242114193907
0.0542742098073149,19.2424329225587
0.0328952262023018,19.242775054453
0.0098235253538011,19.2432049993143
0.000295632144298834,19.2434096596707
-0.00833764352629296,19.2436143200271
-0.0150084526719918,19.2437883970208
-0.0211809921481399,19.2439651181352
-0.0274102806609174,19.2441627611757
-0.0334370112226894,19.2443778607485
-0.0390951010843164,19.2446083120041
-0.0442915865238104,19.2448533553615
-0.0489776737239561,19.2451131324267
-0.0531313957799912,19.2453884361234
-0.0567473373794476,19.2456805906699
-0.0598303325764469,19.245991412687
-0.0623913991654438,19.2463232280809
-0.0645578634180087,19.2467051893941
-0.0660442757882416,19.2470869444067
-0.0670485647638756,19.2475001674272
-0.0675855358985863,19.2479507578539
-0.0676645565201472,19.2484457949518
-0.0672889406518681,19.2489944855248
-0.0664506803794411,19.2496104466121
-0.0651254834567764,19.2503119469247
-0.0632617048406256,19.2511267146819
-0.060748556320444,19.2521034443969
-0.0572910856508674,19.2533565383299
-0.0532557371006358,19.2547725437579
-0.0493322356973116,19.2561443054291
-0.0455758648597678,19.2574768854495
-0.0420147332266609,19.258772342555
-0.0386638814231662,19.2600313135331
-0.0355308768941581,19.2612537241782
-0.0326182374733079,19.26243916732
-0.0299246859206051,19.2635871027398
-0.0274459491629806,19.264696961008
-0.0251753717132426,19.2657681933939
-0.023104442096833,19.2668002896967
-0.0212232699660048,19.2677927756965
-0.019521019661842,19.2687451967071
-0.0179863000741786,19.269657090824
-0.0165247701607736,19.2705819970024
-0.0151244866430309,19.271530765015
-0.013789447426802,19.2725052010785
-0.0125233275931587,19.2735075086009
-0.0113295595882254,19.2745402819561
-0.0102112772098717,19.275606604834
-0.00917125734917003,19.2767101799151
-0.00821185811825261,19.2778555046317
-0.00733495258344669,19.2790481152082
-0.00654185642118375,19.2802949352888
-0.00583324635394128,19.2816047911792
-0.00520906357235789,19.2829892053732
-0.00466839109301212,19.2844636828724
-0.0042092828174712,19.2860499375102
-0.00384539048345993,19.2876913454904
-0.00356500567146416,19.2893854882622
-0.00335212419248206,19.2911508685335
-0.0031917589417484,19.2930106904136
-0.00306932277606047,19.2949964920869
-0.00296993250168949,19.2971540776096
-0.00287717863676075,19.2995564112208
-0.00277027049326804,19.302337675619
-0.00263597683187991,19.3053795951081
-0.00247902249163805,19.3083540871548
-0.0022972394804665,19.3113081476286
-0.00209177585383367,19.3142791676569
-0.00186529408855164,19.3172950498802
-0.00162090065654077,19.3203785827939
-0.00136155742661101,19.3235497644796
-0.00108976304473166,19.3268271214839
-0.00080740752843891,19.3302285326626
-0.000515726718207273,19.3337718146003
-0.000215312497846852,19.337475169811
9.38526468437706e-05,19.3413576963743
0.000412364228596228,19.345440143346
0.000741419989640964,19.3497463594167
0.00107209758707874,19.3541590091664
0.00141974844806728,19.3588808987046
0.00179080154779885,19.3639963561936
0.0021522700861979,19.3690266630937
0.00252176623552213,19.3741906493185
0.00283290091320823,19.3785239343914
0.00312427315839589,19.3825561552101
0.00341019416311101,19.3864717684466
0.00369828772511574,19.3903600720678
0.00399403306398404,19.3942775098479
0.00430219404182097,19.3982663120769
0.00462746726262596,19.4023620851481
0.00497480997784498,19.4065967218273
0.00534981429531302,19.4110012363704
0.00575906809396851,19.4156072580373
0.00621066474718693,19.4204483553077
0.00670483958616256,19.4254604340549
0.00721971363135707,19.4303716725433
0.00776615632860154,19.4352502463551
0.00834525031298495,19.4400597374167
0.00896303568646934,19.44480252309
0.00962586855096724,19.4494755678523
0.0103431817531293,19.4540896634057
0.011140682427603,19.458736552475
0.0120328691049565,19.4634087526155
0.0130423898103026,19.4681250632358
0.0142003806146658,19.4729181021055
0.0155572367072033,19.4778629392336
0.0172163124341375,19.4831563771083
0.0195341202951911,19.4895833255357
0.0212116090123323,19.4937865998869
0.0229650099428248,19.4979898742381
0.0244703625853193,19.5016152611257
0.025732036404234,19.5048418110596
0.0267854013383549,19.5078902812286
0.0276089997747531,19.5108364832327
0.0281645625750511,19.5136628229724
0.0284496852318311,19.516490937408
0.0284316693853195,19.5194809297795
0.0279913711008196,19.5229884316254
0.0271998160309985,19.5262812112665
0.0261015736635222,19.5295739909075
0.02501106639384,19.5323004997518
0.0239368972827733,19.5347321868494
0.0228637356028321,19.5370234563206
0.0217903382063268,19.5392392302261
0.0207195982972494,19.5414138567689
0.0196552090177693,19.5435692191902
0.0186008592743388,19.5457208943918
0.0175600199661766,19.5478808432714
0.0165358894747494,19.5500588001383
0.0155313889778731,19.5522630716144
0.0145491647920075,19.554501053574
0.0135916060873613,19.5567795580193
0.0126608486435383,19.5591050759585
0.0117587888962766,19.5614839581213
0.0108870948844732,19.5639225647495
0.0100472070927738,19.5664274225194
0.00924035415588277,19.5690053309921
0.00846507921041425,19.5716723578893
0.00770216628687028,19.5745163655282
0.00695545168983352,19.5775571411411
0.00622868571935184,19.5808186280432
0.00552582766215755,19.5843284399471
0.00485100592708383,19.5881185498409
0.0042084483901389,19.5922261908211
0.00360236778974202,19.5966951622145
0.00303678391065525,19.601577978571
0.00251527158571494,19.6069397613562
0.00204069259319476,19.6128649889262
0.0016152576667791,19.6194669225282
0.00125135141762904,19.6266527207897
0.000948312813114816,19.6344325390021
0.000699476557789177,19.6429356084464
0.000498645466711913,19.6523331363881
0.000350665093142131,19.6623331363881
0.000252882448556005,19.6723331363881
0.000186016333765568,19.6823331363881
0.000139428272715325,19.6923331363881
0.000107009904501337,19.7023331363881
8.47625851820268e-05,19.7123331363881
6.97814373382048e-05,19.7223331363882
5.99121341563903e-05,19.7323331363882
5.36009243460903e-05,19.7423331363882
4.97653062367459e-05,19.7523331363882
4.7667019054518e-05,19.7623331363882
4.68051698022003e-05,19.7723331363882
4.6838486917558e-05,19.7823331363882
4.75335041358097e-05,19.7923331363882
4.87309476334892e-05,19.8023331363882
5.03235195946945e-05,19.8123331363882
5.22407018182539e-05,19.8223331363882
5.44381261840153e-05,19.8323331363882
5.68901244287663e-05,19.8423331363882
5.95845702439181e-05,19.8523331363882
6.25193763012099e-05,19.8623331363882
6.57001727287069e-05,19.8723331363882
6.91388244615293e-05,19.8823331363882
7.28525499397055e-05,19.8923331363882
7.68634826743021e-05,19.9023331363882
8.11985736852802e-05,19.9123331363882
8.58897727473699e-05,19.9223331363882
9.09744556256372e-05,19.9323331363882
9.64960874968657e-05,19.9423331363882
0.000102505132655606,19.9523331363882
0.000109060239719422,19.9623331363882
0.000116229751926728,19.9723331363882
0.000124093615927262,19.9823331363882
0.000131732321732683,19.9911665681941
0.000140040615298784,20
