ecg,time
0.0115578221270103,15.000851270364
0.0106956486496887,15.0032873947621
0.00986526252561607,15.0057918021849
0.00906777041965003,15.008371544569
0.00828874735776384,15.0110898362164
0.00752325584616864,15.0139920223748
0.00677505641517407,15.0170998056303
0.00604802980664847,15.0204386432769
0.00534626683686096,15.0240379851327
0.00467402466582527,15.0279320313877
0.00403565148299766,15.0321607173481
0.00343545112934513,15.0367712328985
0.00287746490275403,15.0418207181057
0.00236519852303821,15.0473810196621
0.00190135680197321,15.0535468415767
0.00149180314809419,15.0603716249438
0.00114767999687193,15.0677197543882
0.000862156842968625,15.0756974003232
0.000635112288067389,15.0844462766961
0.000460726877333739,15.0942992086649
0.000347264132238299,15.1035287576085
0.00025965761797291,15.1135287576085
0.000198444631088347,15.1235287576085
0.000156102356534911,15.1335287576085
0.000127201723059087,15.1435287576085
0.000107744454352493,15.1535287576085
9.4859786889071e-05,15.1635287576085
8.65519239594298e-05,15.1735287576085
8.14609954000855e-05,15.1835287576085
7.86651296925216e-05,15.1935287576085
7.75372602787269e-05,15.2035287576085
7.76497400986181e-05,15.2135287576085
7.87124335341821e-05,15.2235287576085
8.05318456269719e-05,15.2335287576085
8.29832847285541e-05,15.2435287576085
8.59915398676928e-05,15.2535287576085
8.95175024272452e-05,15.2635287576085
9.35490959510174e-05,15.2735287576085
9.80953556900792e-05,15.2835287576085
0.00010318281699838,15.2935287576085
0.000108853626339012,15.3035287576085
0.000115164997180474,15.3135287576085
0.00012218979881366,15.3235287576085
0.000130018198865021,15.3335287576085
0.000138760395194883,15.3435287576085
0.000148550586674167,15.3535287576085
0.000159552462416327,15.3635287576085
0.000171966655644724,15.3735287576085
0.000186040838976888,15.3835287576085
0.000202083474032304,15.3935287576085
0.000220482736566097,15.4035287576085
0.00024173292991897,15.4135287576085
0.000266471965566898,15.4235287576085
0.00029553556858529,15.4335287576085
0.00033003737684271,15.4435287576085
0.000371490215531779,15.4535287576085
0.000421994837623963,15.4635287576085
0.000479552807485725,15.4727992704399
0.000544876839126189,15.4813615793933
0.000618979319219462,15.4892685992243
0.00070304129670146,15.4965708054187
0.000798410145155273,15.5033151615884
0.000906613364924646,15.5095453359433
0.00102938018593705,15.5153019409786
0.00116866758861762,15.5206227427868
0.00132669083465779,15.5255428429963
0.00150595645505889,15.5300948658932
0.00170930366620515,15.53430914522
0.00193995060534598,15.5382139008235
0.00220155114792637,15.541835396418
0.00249826338115499,15.5451981025098
0.00283483461659038,15.5483248686033
0.00321671061248407,15.5512370946034
0.0036501746566073,15.5539549097827
0.00414253478834706,15.5564973793672
0.00470238171756318,15.558882745765
0.00533995487747928,15.5611287285721
0.00606046158651981,15.5632336766643
0.00685484553739839,15.5651706167261
0.00773237110139547,15.5669713419633
0.00870683483721654,15.5686672965344
0.00979913740116008,15.5702910319268
0.0110446998100914,15.5718824022718
0.0125553054865568,15.5735462990038
0.0146257907556247,15.5755048663026
0.0163943312444572,15.5769847487029
0.0183055192892721,15.5784646311032
0.0200485920061478,15.5797630155363
0.0215824293359354,15.5809097994069
0.0229601260668324,15.5819864715737
0.0241926313904673,15.5830401023402
0.0252680339212178,15.5841079540246
0.0261564857861764,15.5852332746879
0.0267997812821459,15.5864880867785
0.0270530874719763,15.5880662426973
0.0266611025421564,15.5897725229287
0.0256886488009091,15.5914788031601
0.0245505834115358,15.5928938459632
0.0232613794517048,15.5942555292768
0.021818423899852,15.5956495627643
0.0202299586243345,15.5971184809668
0.0185017997552607,15.5987014069514
0.017068384805489,15.6000458538014
0.0157166579226236,15.6013903006515
0.0135938461282761,15.6036996584312
0.0117831532733644,15.6059178464672
0.0102456827227751,15.6080423736024
0.0089260866052577,15.6100998843941
0.00777517047946104,15.6121263633391
0.00674566324608034,15.6141790283148
0.00577811888662965,15.6163805305225
0.00480149877096964,15.6189642918415
0.00424340988636413,15.6206585461986
0.00374309382771959,15.6223528005558
0.00333497669884724,15.6238875793313
0.0029852155536608,15.6253372758051
0.0026650712999215,15.6267965903447
0.00235467220612741,15.628358757814
0.0020304660207433,15.6301823236673
0.00162544260583034,15.6328200810093
0.00120017022569162,15.6362001422538
0.000895256917546621,15.6392084377149
0.000648749190651706,15.6422007161357
0.00041767450868094,15.6457444109284
0.000196497453423077,15.6503919373382
3.9172765908592e-05,15.6556253688846
-3.02967678856541e-05,15.6607078541086
-2.03539980505849e-05,15.6652428897789
5.68670609828849e-05,15.6693168595427
0.000196281826000088,15.6729694823561
0.000396536403542597,15.6762529835926
0.000658227744472614,15.679213736003
0.000984961151929127,15.6819097318512
0.0013829999259601,15.6843950429892
0.00186319653913698,15.6867271472257
0.00244525170056137,15.6889742553267
0.00317062674711571,15.6912387624009
0.00412692463064334,15.6936823753587
0.00544691662308598,15.6964740928541
0.00712670795184197,15.6994756969258
0.00852894941650564,15.7016747751158
0.0101011553922209,15.7038738533057
0.011599367203993,15.705727148251
0.0131296050293834,15.7073950715784
0.0147403069333881,15.708931893127
0.0165134587904323,15.7104025356073
0.0184714222655244,15.7118051803845
0.0206675484598364,15.7131581899854
0.0231278386390976,15.7144579217963
0.0258977304452707,15.7157108994461
0.0290175373045219,15.7169186113956
0.0325241286318758,15.7180805097272
0.0364737456524982,15.7192014317522
0.040922932624103,15.7202838037558
0.0459370633314791,15.7213303503398
0.0515893527230107,15.7223434857769
0.0579729362039719,15.7233270178136
0.0651950331087698,15.7242842726203
0.0733839616069849,15.7252187360867
0.0826950679553654,15.7261341266557
0.0933179231851157,15.7270344162638
0.105488818129121,15.727924089209
0.119505683090404,15.7288082217782
0.135750901426493,15.7296927237694
0.154727886833809,15.7305848013955
0.177123446809863,15.7314937988225
0.203483515544533,15.7324184706896
0.233988306866188,15.7333469521402
0.269417503367168,15.7342889598142
0.310865321945642,15.7352605602498
0.360232945986378,15.7362961232081
0.396566044787238,15.7370068727384
0.433876191932623,15.7377176222688
0.467071747602605,15.7383567869592
0.496251488856086,15.738948967261
0.521800403773745,15.7395227528873
0.543576353879637,15.7401013654455
0.560929401808491,15.7407108473861
0.572356295085584,15.7413934053006
0.574295429490665,15.7421474242483
0.564393508595754,15.7429273744998
0.541281612872834,15.7437542212655
0.503598549186601,15.7446314607726
0.451994104896278,15.745530108461
0.386661572868058,15.7464490772769
0.339319931941927,15.747032647239
0.288369664041329,15.7476162172011
0.243566902206894,15.7481086873237
0.205266321905201,15.748525411173
0.171663661302343,15.7488957104473
0.141602413194296,15.7492374003895
0.11437554263657,15.7495617722464
0.089485328238768,15.7498773906877
0.0665062174468747,15.750192486417
0.0449468723636888,15.7505180129708
0.0238598994620142,15.750877425809
0.00754465347027043,15.7511965427345
-0.00159252192426936,15.7513974055396
-0.00989113795215462,15.7515982683447
-0.0165093184753167,15.751774423651
-0.0226223276333228,15.7519530297421
-0.0287858727643673,15.7521527057143
-0.0347433298461716,15.7523699545299
-0.0403305310555108,15.752602653261
-0.0454557684563185,15.7528500396022
-0.0500709799404284,15.7531122602984
-0.0541545414933723,15.7533901177105
-0.0577010964669116,15.7536849483649
-0.0607153210658959,15.7539985832108
-0.0631999045178423,15.7543333645534
-0.0651486449354654,15.7546895255017
-0.06659489594491,15.7550721997274
-0.0675581937364622,15.7554865453444
-0.0680510270911492,15.7559380644882
-0.0680819672218203,15.7564337325185
-0.067653492759441,15.7569826013937
-0.0667566531731905,15.757598005319
-0.0653662307221117,15.7582977853565
-0.0634300089037727,15.7591087520344
-0.0608384243935575,15.7600772958606
-0.0573103741344358,15.7613087394308
-0.0531215989241044,15.7627242796581
-0.0490483599920619,15.7640944856317
-0.0451463371151715,15.7654248860093
-0.0414439698110344,15.7667177394541
-0.0379564953891883,15.7679738014433
-0.0346916200560588,15.7691930734269
-0.0316519690426304,15.7703751997143
-0.0288363529872987,15.771519677124
-0.0262405729246703,15.7726259639052
-0.0238580362179487,15.7736935322865
-0.0216802854576459,15.7747218876298
-0.0196974759342887,15.7757105664814
-0.0178988100057725,15.7766591203134
-0.0162729279670938,15.7775670887006
-0.0147095544408685,15.7784942852597
-0.013207150921912,15.7794454549267
-0.0117697890891442,15.7804224852329
-0.0104013232279195,15.7814276135285
-0.00910538829515703,15.7824634767073
-0.00788534797820144,15.7835332117225
-0.00674424054785039,15.7846405889689
-0.00568472207318817,15.785790193445
-0.0047090065675558,15.7869876769189
-0.00381880200447408,15.7882401192344
-0.00301524004288746,15.7895565641998
-0.00229879529773174,15.7909488485492
-0.00166918600885321,15.7924329531622
-0.00112523923104843,15.7940313586699
-0.000687866919999863,15.7956770416735
-0.000343076930339286,15.7973773204466
-7.54032819182207e-05,15.799150826295
0.000129478779148714,15.8010214163803
0.000285210048662101,15.8030216929819
0.000405271451737922,15.8051993684126
0.000503861236529943,15.8076312958958
0.000597893997864869,15.81046148456
0.000714274608723747,15.8140528723741
0.000851457578277658,15.8178427320258
0.00102776164284958,15.8220712026739
0.00123582904472195,15.8265542517335
0.00144784870032918,15.8308659021781
0.00166626953924891,15.8352166289111
0.00190375369916217,15.8399498701604
0.00214929726703723,15.8448907100038
0.00239036435285763,15.8497856544256
0.00262494759033056,15.8545649146491
0.00282876269270507,15.8586979652243
0.00302191836960899,15.8625794945497
0.00321283204657986,15.8663635069331
0.00340627176385681,15.8701290643112
0.0036057587737762,15.8739279158173
0.00381437375087616,15.8777996600319
0.00403510291921012,15.8817776806546
0.0042710688333671,15.8858926631929
0.00452570721880479,15.8901747694861
0.00480293353756179,15.8946550024697
0.00510737768437394,15.8993664850243
0.00544477254453053,15.9043458280189
0.00582258394998303,15.9096341974144
0.00621202666437822,15.9147739721869
0.00662385068332376,15.9198798149847
0.00705732575607236,15.9248990309761
0.00751733216504098,15.9298441384856
0.00800845651241881,15.9347160517472
0.00853641919000875,15.9395207322212
0.00910745216295944,15.9442616734233
0.00972838773502539,15.9489404532106
0.0104066931811817,15.9535567304528
0.0111649060297708,15.9581922470381
0.0120189828020172,15.9628536845427
0.0129892278145522,15.9675521984191
0.0141039264568214,15.9723139784794
0.0154075070573515,15.9772000694633
0.0169860556044063,15.9823661788501
0.019093202785363,15.9883522874592
0.0208845683507613,15.9929022563971
0.0227902005711002,15.9974522253349
0.0243753407409269,16.0012008552069
0.0256911915459471,16.0044630380486
0.0267947269833439,16.0075099493903
0.0276817558276863,16.0104693339502
0.0282986445001403,16.0132845238495
0.028647554723231,16.0160742425758
0.0287045127929294,16.0189833204494
0.0283812188340206,16.022288773248
0.0273799411757332,16.0266194408267
0.0264872985836897,16.0292872953247
0.0254311576636985,16.0319551498227
0.024360256027182,16.0343871676116
0.0232878426921037,16.0366712320992
0.02221433954746,16.0388729422889
0.0211425284853054,16.0410289721313
0.0200760591073359,16.0431623798748
0.0190186268562051,16.0452893433199
0.0179737227551208,16.0474221454544
0.0169445662347709,16.049570693969
0.0159340959823308,16.0517433852833
0.0149449746556736,16.0539476491672
0.0139796029772961,16.056190305168
0.0130401318041448,16.058477826072
0.0121285241404644,16.0608165395024
0.0112464666054897,16.0632127828057
0.0103954043368831,16.065673062949
0.00957657340487721,16.0682041761853
0.00879050456758264,16.0708150819974
0.0080155650302819,16.0735980152461
0.00725557557436855,16.0765721393765
0.00651426596544056,16.0797607257329
0.00579559718056651,16.0831906228763
0.00510372827722683,16.0868929322422
0.00444296139395761,16.090903844837
0.00381764708430895,16.095265789916
0.00323202468204788,16.1000292761146
0.0026899809691003,16.1052562000357
0.00219475182254854,16.1110258855591
0.00174873263148654,16.1174443531598
0.00136366320343107,16.1244473827959
0.00104153595156621,16.1320087721684
0.000829612977345972,16.1383736820868
0.000667839357745432,16.1447385920052
0.000497620044750532,16.1539127854946
0.000372636953390194,16.1634757030368
0.000280669181416839,16.1734757030368
0.000216831582852014,16.1834757030368
0.000173088694284234,16.1934757030368
0.00014364027978222,16.2034757030368
0.000124240655187588,16.2134757030368
0.000111860502797813,16.2234757030368
0.000104403155167176,16.2334757030368
0.00010044478213046,16.2434757030368
9.90244268015146e-05,16.2534757030368
9.94939772111796e-05,16.2634757030368
0.000101418641523621,16.2734757030368
0.000104512366913847,16.2834757030368
0.000108595291234161,16.2934757030368
0.000113565041876936,16.3034757030368
0.000119377263292432,16.3134757030368
0.000126032737194313,16.3234757030368
0.000133569437895029,16.3334757030368
0.000142058403310353,16.3434757030368
0.000151602691766374,16.3534757030368
0.000162339035294559,16.3634757030369
0.000174442118793427,16.3734757030369
0.000188131733004066,16.3834757030369
0.000203683405637445,16.3934757030369
0.000221443568628024,16.4034757030369
0.000241850959696831,16.4134757030369
0.000265466923983326,16.4234757030369
0.000293018812617748,16.4334757030369
0.000325463185911457,16.4434757030369
0.00036407978205732,16.4534757030369
0.00041061465812671,16.4634757030369
0.000467113663265975,16.4734126665831
0.000531492964561056,16.4826037405943
0.000604585445532672,16.49108059964
0.000687528096016794,16.4988987311059
0.000781645775559734,16.506110487916
0.000888449293618062,16.5127643673691
0.001009651596427,16.5189053087154
0.00114719264295491,16.5245749871315
0.00130326986489391,16.5298120591335
0.00148037354765247,16.5346523769559
0.00168132633618569,16.5391292079969
0.00190933279045501,16.5432734523564
0.00216803683551361,16.5471138424799
0.00246159156775346,16.5506771226764
0.00279474807164003,16.5539882421161
0.00317296695810202,16.5570705627248
0.0036025663338078,16.5599460687204
0.00409091855992988,16.5626356027485
0.00464672544530074,16.5651591576388
0.00528041788947386,16.5675362442685
0.00599802641793364,16.5697673109828
0.00679121698379889,16.571824427474
0.00767057510966646,16.5737429781835
0.00865230840394789,16.5755590113661
0.00976232486548819,16.5773123024698
0.011048484474623,16.5790574987517
0.0126670131954307,16.5809481745601
0.0151425585781942,16.5834193853656
0.0166863205207301,16.584805610592
0.0182989759829001,16.5861918358184
0.0197661315005357,16.5874442833791
0.0210796023429955,16.5886034595961
0.0222542227237062,16.5897230557683
0.0232833686615571,16.5908429408291
0.0241438164164903,16.5920039405214
0.024790710614968,16.5932654954152
0.025127256177453,16.5947571213384
0.0247597864136638,16.5970294308129
0.0240060700695317,16.598526287281
0.0229437461655705,16.6000231437491
0.0217400024541769,16.6014320686382
0.0203977697467968,16.6028510369604
0.0189263988695687,16.6043262901839
0.0173343572767266,16.6058947507733
0.0167438273139469,16.6064784988487
0.0161633731437424,16.6070622469241
0.014119842839911,16.6092547697943
0.0123141682016444,16.6114143737585
0.0107012589502767,16.6135791319287
0.00920678894031979,16.6158501768388
0.00777865367022482,16.6183430676028
0.00678185222774111,16.6203343313815
0.00589959532357374,16.6223255951602
0.00523250308531326,16.6240141933827
0.00467966434189849,16.6255637485129
0.00418384723332079,16.6270961654857
0.00371249152167234,16.6287066384926
0.00323371456192947,16.6305330549783
0.00268024701658094,16.6329534961531
0.00209179933609953,16.6360277473293
0.00164637234897504,16.6388523643679
0.00128744699822198,16.6415897071804
0.000955103610375491,16.6446722743786
0.00062171155445027,16.6486126449878
0.000351487406065768,16.6529469138145
0.000148908307349104,16.6577506091319
3.44688995416862e-05,16.6626989697766
1.35993489044827e-05,16.6670930128089
6.89060634935547e-05,16.6710539525929
0.000193144662832767,16.6746177323184
0.000383644577963916,16.6778347953104
0.000641144567484864,16.6807588107178
0.000969292611662894,16.6834425713466
0.00137593476233467,16.6859440575318
0.0018754065120466,16.6883274722471
0.00249574800187333,16.6906777442128
0.0032926288674191,16.693117077781
0.00441776881982943,16.6959268159597
0.0058516240127819,16.6989022546697
0.00761708532344924,16.7020140194051
0.00885564216260655,16.7039276297532
0.0102435639522783,16.7058412401014
0.0116909637527095,16.7075993891202
0.0132019289059573,16.7092046953029
0.0148558948597532,16.710731982989
0.0166800017681834,16.7121869180485
0.018717434694027,16.7135846685854
0.0210026520963443,16.7149291843795
0.0235736577533552,16.7162244318661
0.0264619401144068,16.7174697430235
0.0297137954103424,16.7186699632824
0.0333737966049531,16.7198269692471
0.0374886528351627,16.720942042169
0.0421218183177618,16.7220193527165
0.0473422973061424,16.7230618739413
0.0532310117314827,16.7240727357844
0.0598821496391701,16.7250550029582
0.0674121114207328,16.7260124691916
0.0759593522392805,16.7269488378487
0.0856928320914574,16.7278680999016
0.0968215735109331,16.7287746522057
0.109607534100918,16.7296734156874
0.124388085693697,16.7305702569577
0.141605144637402,16.7314722238155
0.161857867998626,16.7323883273606
0.185914285033451,16.7333279269189
0.213740588551997,16.7342691601553
0.246027625663201,16.7352208307361
0.283698891651191,16.7361960863379
0.328171608296902,16.7372190241119
0.366257879756296,16.7380225700235
0.406242588786251,16.7388261159351
0.441603684102813,16.7395287181816
0.472382748441327,16.7401589692549
0.499392689146587,16.740754606862
0.522762625512892,16.7413412100111
0.542127705321323,16.7419420035082
0.556544856579049,16.7425868138758
0.56383520596779,16.7433313955029
0.560180179741792,16.7441049895481
0.544293324455464,16.7449117995704
0.514534164409463,16.745770551587
0.469124111361833,16.7466872220751
0.409192139872531,16.7476237524668
0.359996337324661,16.7482769887293
0.305672368099685,16.7489302249917
0.258128806331368,16.7494686036363
0.218061054328853,16.7499121839082
0.183231345264604,16.7502992316394
0.152231446246378,16.7506519293178
0.124246265622683,16.7509834240939
0.0987355736104146,16.7513029581841
0.0752729236224288,16.7516185666864
0.0534281446708918,16.7519395065304
0.032549335132997,16.7522816634433
0.0105676518040855,16.7526983446351
-2.68556273599808e-05,16.7529296213469
-0.00749262023086122,16.7531091474833
-0.0143240506844065,16.7532886736198
-0.0203109554303615,16.7534609538419
-0.0264537769269977,16.7536560089505
-0.0324613775396561,16.7538697870367
-0.0381398998555066,16.7540995812456
-0.0433799389377244,16.7543442600726
-0.0481228944092285,16.7546037267055
-0.0523407117441878,16.7548786050725
-0.0560240272402128,16.7551700828171
-0.0591750073675631,16.7554798492695
-0.0619517234584355,16.7558336660185
-0.0639917220855629,16.7561858493115
-0.0655306683884064,16.7565642457504
-0.0665853297378245,16.7569733525874
-0.0671686354776163,16.7574183943372
-0.0672900693115368,16.7579059690962
-0.0669536368305614,16.7584445836209
-0.0661535114286295,16.7590464285497
-0.0648688054309406,16.759728112047
-0.0630555500304577,16.7605137055045
-0.0606232811093587,16.7614432127209
-0.0573568041581858,16.7625996832647
-0.0531713265228146,16.7640248306149
-0.0490899111892976,16.7654011306902
-0.0451730965467991,16.7667364722078
-0.0414527775035418,16.7680336642862
-0.0379458199156912,16.7692937531004
-0.0346608162719699,16.7705168970523
-0.0316009429923985,16.7717028256004
-0.028765388429781,16.7728510815344
-0.026150227829029,16.7739611475033
-0.0237490708203379,16.775032508433
-0.0215536062807029,16.7760646764632
-0.0195540889285665,16.7770571925523
-0.0177397803601109,16.778009612525
-0.016099345355182,16.7789214818549
-0.0145319983891834,16.7798465581504
-0.0130252378782102,16.7807954940486
-0.0115832408332394,16.7817700997952
-0.0102098806582342,16.7827725811779
-0.00890881699421218,16.7838055351413
-0.00768344348844029,16.7848720482564
-0.00653683410325547,16.7859758265676
-0.00547168684189289,16.7871213715883
-0.0044902645437131,16.7883142246805
-0.00359433180969829,16.789561316198
-0.00278508610470742,16.7908714815538
-0.00206307924820992,16.7922562561468
-0.00142812191621406,16.7937311642212
-0.000879155990610019,16.7953179502027
-0.000435024572239805,16.7969596219403
-8.51185638501937e-05,16.7986540993201
0.000186218386978429,16.8004198949114
0.000393377361229607,16.8022802421491
0.000550020291233541,16.8042667254816
0.000669580359081018,16.8064252301147
0.000766079712496184,16.8088288827117
0.000855926705147952,16.8116122678602
0.000964080623439401,16.8151012734803
0.00109464011895768,16.8188737838518
0.00126233532505429,16.8230410336241
0.00147109242022954,16.8276408124173
0.00171444813036026,16.8326381369965
0.00195970428670684,16.8375311429506
0.00221377861147701,16.8425788764609
0.00242620280016939,16.8468033048003
0.00262298875598974,16.8507243841448
0.00281420665801822,16.8545264711825
0.00300521728998205,16.8582978267015
0.00319979991003731,16.862093979204
0.00340110589911672,16.8659563657458
0.00361205210018585,16.8699194736804
0.00383554353484584,16.8740144358509
0.00407465591835668,16.8782716027057
0.00433278105572271,16.8827219676583
0.00461381730199847,16.8873984735739
0.0049224778617711,16.8923374029963
0.00526479623301069,16.8975795593553
0.00562946565816817,16.9028918276465
0.00600728701336455,16.9080992157623
0.00640354489853172,16.913238527525
0.00682018138336012,16.9182908315417
0.00726180372062428,16.9232665204329
0.0077331048920378,16.9281703408345
0.0082394942305013,16.9330086309613
0.008786759982593,16.9377847726376
0.00938120786856287,16.9425000897334
0.0100297385307907,16.9471540336262
0.0107445477203084,16.9517729938998
0.0115484245317088,16.9564244822071
0.0124571479417947,16.9611039689719
0.0134945648926413,16.9658304082698
0.0146951063027771,16.970642853801
0.0161179803801272,16.9756358740142
0.017897900940707,16.9810766255739
0.0203355584531841,16.9875537463658
0.0219301102548244,16.9914255770097
0.0235725381980409,16.9952974076536
0.0250103060920332,16.9987489289011
0.0262238536940002,17.0018857013417
0.0272315804311062,17.0048879677413
0.0279922999798862,17.0077650089214
0.0284865505930523,17.0105530586309
0.0287061998792135,17.0133766804249
0.0286063518017433,17.0164164884342
0.0280132629151782,17.0201633209484
0.027192323816048,17.0231950084739
0.0261205058002761,17.0262266959995
0.0250409846994284,17.0288377096021
0.0239686384035345,17.0312091285299
0.0228955934920242,17.0334586834324
0.0218222859075537,17.0356412937815
0.0207519111411816,17.0377876756253
0.0196881820924652,17.0399179336875
0.0186347315304945,17.0420466272022
0.017594956632848,17.0441850782597
0.0165720228795446,17.0463426028589
0.0155687677196558,17.0485272356465
0.0145877461483653,17.0507461928176
0.0136312544106876,17.0530061973329
0.0127013436819311,17.0553137100161
0.0117998293849522,17.0576751186699
0.0109282980221341,17.0600969041448
0.0100881228428928,17.0625857664253
0.00928046518619658,17.0651487848739
0.00849830336477492,17.0678219101644
0.00772861994683997,17.07067398685
0.00697521675560518,17.0737255921125
0.00624191229392701,17.0770012664963
0.00553274383614235,17.0805293761666
0.00485193079390925,17.0843428268577
0.0042038081026562,17.0884799841452
0.00359271099582487,17.0929860051998
0.00302278018610825,17.097915140275
0.00249770272425783,17.1033347867653
0.00202041753353534,17.1093327846163
0.00159301822207448,17.116027611284
0.00123222974531278,17.1232316517011
0.000931826420608082,17.1310338769858
0.000689057372486785,17.1399245363281
0.000546410484332544,17.1473127103347
0.000404299471393483,17.1573127103347
0.000305575311151694,17.1672719160998
0.000236616414846941,17.1772719160998
0.0001893172935086,17.1872719160998
0.000157414183446029,17.1972719160998
0.000136310857225053,17.2072719160998
0.000122732883497825,17.2172719160998
0.000114420211286935,17.2272719160998
0.00010984134588133,17.2372719160998
0.000107963523700647,17.2472719160998
0.000108089973195929,17.2572719160998
0.000109752794949521,17.2672719160998
0.000112643706275592,17.2772719160998
0.000116568393700194,17.2872719160998
0.000121415644628776,17.2972719160998
0.000127136358093284,17.3072719160998
0.000133729648188346,17.3172719160998
0.000141234274103277,17.3272719160998
0.000149724194402122,17.3372719160998
0.000159307462067692,17.3472719160998
0.000170128049906272,17.3572719160998
0.00018237054846048,17.3672719160998
0.000196268034543103,17.3772719160998
0.000212113812350685,17.3872719160998
0.000230278251192281,17.3972719160998
0.00025123269118434,17.4072719160998
0.000275583532002274,17.4172719160998
0.000304121451328712,17.4272719160998
0.000337893739732037,17.4372719160998
0.000378312955554593,17.4472719160999
0.000427324366777057,17.4572719160999
0.000485037865271732,17.4668721394876
0.000550703898433348,17.4757438648605
0.000625257581469664,17.4839297763114
0.000709879053971328,17.4914831090916
0.000805928678636913,17.4984537446499
0.000914953151640625,17.5048879688148
0.00103870531090215,17.5108287416171
0.00117917010100716,17.5163159498268
0.00133859605448665,17.5213866211357
0.0015195298956078,17.5260751305891
0.00172485876775307,17.5304134050396
0.00195785860575366,17.534431121798
0.0022222543267168,17.5381558884467
0.00252229049139503,17.541613419387
0.00286282269100328,17.5448277228354
0.00324943309460415,17.5478212952603
0.0036885808762121,17.5506153229004
0.00418780680137988,17.5532299149127
0.0047560176809267,17.5556843862929
0.00540389866059682,17.5579976176421
0.00613314504668337,17.5601577704436
0.00693874381067438,17.562151264526
0.00783152050199396,17.5640122516035
0.00882785084446615,17.5657752414581
0.00995387322938038,17.5674784153682
0.0112577566378504,17.5691743051637
0.0129085297700196,17.5710233905136
0.0154362733416717,17.5734422377677
0.0170177490795773,17.5748027590367
0.0186708084866489,17.5761632803056
0.0201755920117845,17.5773924124107
0.0215238267413031,17.5785300619495
0.0227311301282494,17.5796292243901
0.0237910608301888,17.5807292721185
0.0246802175183908,17.5818706357065
0.0253531790231824,17.5831124395418
0.0257115168642763,17.5845843960183
0.0253505593073367,17.5868401260685
0.0245903303474855,17.5883165290648
0.0235168486358666,17.5897929320611
0.0222968376454728,17.5911861218949
0.0209326657741468,17.5925929445108
0.0194335391529681,17.5940592412348
0.0178075374312918,17.595622286968
0.0172242037367362,17.596184991886
0.0166488782778308,17.5967476968039
0.0155533750689733,17.5978602840922
0.0131902960800929,17.6004868709917
0.0112083087867283,17.6030049659025
0.0095655934781845,17.6053957549415
0.0081920310076097,17.6076843351399
0.00702856278674618,17.6099014760032
0.00602509221775833,17.6120883755768
0.00513500570494245,17.6143120968325
0.0043001047111203,17.6167239085705
0.00349240410723192,17.6194697672254
0.00303809699326819,17.6212553173657
0.00263266755855167,17.623040867506
0.00230147376844099,17.6246672893774
0.00201593699521599,17.6262190108308
0.0017535312604001,17.6277942076223
0.00149784863692397,17.6294973821103
0.00122781797225065,17.6315212813279
0.000870697591164018,17.6346700061481
0.000548142554699088,17.6381799037476
0.000318955183091667,17.6412608181145
0.000128822506623098,17.6443920626884
-5.05554433780401e-05,17.6481238801394
-0.000230749373412296,17.6533781181538
-0.000336751215897873,17.6586820568018
-0.000366267810577666,17.6634149129731
-0.000331214714863923,17.6676909987148
-0.000235353687594992,17.6715407537097
-7.9091146203429e-05,17.6750118461661
0.000139280727875928,17.6781522352585
0.000423188734893259,17.6810112512715
0.000778701669686038,17.6836433044777
0.00121537217250432,17.6861029222146
0.00174910466542664,17.6884505583142
0.00240737148018553,17.6907587207509
0.00324142897244315,17.6931278736417
0.00437868669266127,17.6957691332975
0.00589000849647408,17.6986669936117
0.00774048309188138,17.7016359374089
0.00910007111784077,17.7035231396408
0.0106385146801694,17.7054103418727
0.0122352192017409,17.7071259888184
0.0139243825639914,17.7087096625439
0.0157662169954168,17.7102097907965
0.0177887262542192,17.7116346101419
0.0200426836481633,17.713003567083
0.0225573962034373,17.7143171287718
0.0253787935846916,17.7155829255499
0.0285398371684923,17.716800213959
0.0320917216973348,17.7179742633167
0.0360840517051468,17.7191072560554
0.0405695208471588,17.7202007553426
0.0456189931085512,17.7212589301581
0.0513103790535798,17.7222848487641
0.0577355723953999,17.7232817486139
0.0650043431820667,17.7242530914764
0.0732468663340445,17.725202336987
0.0826266647158338,17.7261337767113
0.0933438702478959,17.727051869263
0.105650240646979,17.727961673074
0.119869091292183,17.7288691289226
0.136426256479485,17.7297814946543
0.155901509021793,17.7307080972339
0.179060346704324,17.731659424629
0.205854180548114,17.7326124396079
0.236954286621802,17.7335761759631
0.273253159642589,17.7345637768496
0.316089041613532,17.7355982527281
0.354624900061344,17.7364486319457
0.395306273031114,17.7372990111632
0.430877457707952,17.7380306549907
0.461715142860688,17.7386814085943
0.488744327817014,17.7392925098441
0.51214753825114,17.7398905370332
0.53161362425735,17.7404983919641
0.546298842643849,17.741143662334
0.554327171878536,17.7418734192445
0.552102492120109,17.7426527482022
0.537957310788119,17.743460210261
0.510387565659027,17.7443141840508
0.467324720346079,17.7452286427949
0.408388806244813,17.7461833954239
0.359863019516723,17.7468451812255
0.305998189606995,17.7475069670271
0.258711495481232,17.7480519827866
0.218820752446118,17.7485003012513
0.184129398646049,17.7488909027332
0.15324244021763,17.7492463929779
0.125352619197875,17.7495801213251
0.0999265897615799,17.7499014056914
0.0765462742760138,17.7502182461063
0.0547965803578541,17.750539665485
0.0340692653647294,17.7508806207611
0.0125808243113643,17.7512876274917
0.000719955107886548,17.7515467649455
-0.00678657216109289,17.7517285039352
-0.0136531208811522,17.7519102429249
-0.0196330909699438,17.7520835709665
-0.0257465009820299,17.7522790244394
-0.0317345645512399,17.752493444197
-0.0374004975898899,17.7527240406887
-0.0426326568469721,17.7529696164313
-0.0473711444061478,17.7532300354155
-0.0515871142820577,17.7535058968862
-0.0552706836275339,17.7537983710416
-0.058420210951597,17.7541091327957
-0.0611461016692878,17.7544568275576
-0.0631963482779801,17.7548094342684
-0.0647470808653321,17.7551882246162
-0.0658143924985023,17.7555975649909
-0.0664112128733891,17.7560426168569
-0.0665471548180721,17.7565298893123
-0.0662265300624027,17.7570677564322
-0.0654441962645295,17.7576681531686
-0.0641803730191107,17.7583473657884
-0.0623932601942538,17.7591287822865
-0.059997334177436,17.7600508490146
-0.0567930092573775,17.7611915740104
-0.0526228940453016,17.7626174551809
-0.0485559771077812,17.7639933152783
-0.0446532984896233,17.7653276868276
-0.0409471666379885,17.7666235661328
-0.0374545226650684,17.7678821067932
-0.0341838956761205,17.7691035329824
-0.0311383439175857,17.7702876168937
-0.028316922326052,17.7714339306459
-0.0257155767071642,17.7725419778855
-0.0233278020760611,17.7736112589091
-0.0211451925939598,17.774641297037
-0.0191579301867482,17.7756316409628
-0.0173552254530582,17.7765818511507
-0.0157257127161363,17.7774914747283
-0.0141630835007609,17.7784178796192
-0.0126613836910298,17.7793682072719
-0.0112247308586933,17.7803443149025
-0.00985699073036156,17.781348427922
-0.00856181239238898,17.7823831678092
-0.00734257650826443,17.7834516518236
-0.00620234168085511,17.7845576249812
-0.00514378828709039,17.785705639147
-0.00416915942614758,17.7869013020707
-0.00328019803872494,17.7881516337876
-0.00247807825621098,17.7894655944961
-0.00176332719949079,17.7908548997302
-0.00113572982017206,17.7923353462539
-0.000594201543492676,17.7939291170478
-0.000158628470610638,17.7955732483216
0.000183638026425689,17.7972712550567
0.00044811566648461,17.7990417216761
0.000649125629386678,17.8009082554938
0.000800276731042463,17.8029030491285
0.000914973219185817,17.8050730763976
0.0010072523401839,17.8074936763014
0.0010936574208283,17.8103049955891
0.00119986866241604,17.8138544955737
0.00132804183063733,17.8176371821915
0.00149499127867349,17.8218407303276
0.00171787295088188,17.8267836964042
0.00195502426283025,17.8316723063
0.00220578692957326,17.8366919289863
0.00242137963858098,17.8409660793507
0.00262046947342721,17.8449085391881
0.00281322887986503,17.8487185485753
0.00300510489537205,17.8524902162766
0.0031999523972349,17.8562814393913
0.00340100116009037,17.8601347482869
0.0036112414955383,17.86408517989
0.00383363597551274,17.8681640957005
0.00407129590000011,17.8724018578635
0.00432762384025066,17.8768293234786
0.00460649832638216,17.8814791595786
0.00491256823372273,17.8863872169671
0.00525173773524391,17.8915937458144
0.00561623822206617,17.8969182942098
0.00599285735822121,17.9021243051121
0.00638819875857457,17.9072687479389
0.00680361131249959,17.9123248601655
0.00724377712103906,17.9173044166269
0.00771331248947383,17.9222115442527
0.00821761944130963,17.9270528069251
0.00876247059933139,17.9318317257486
0.00935415484478861,17.9365497759772
0.0099995492254962,17.9412065220543
0.0107100006406497,17.9458235269849
0.0115088770034652,17.9504737908362
0.0124115777293617,17.9551513838655
0.0134415995737852,17.9598747450031
0.0146326049251192,17.9646812494991
0.0160419050243919,17.9696611584079
0.0177973832656536,17.9750659844695
0.0202338182546217,17.9815782429826
0.0218409501420592,17.985492920568
0.0235006497314992,17.9894075981534
0.0249507555437094,17.9928817878885
0.0261740387198864,17.9960288026546
0.0271913275881883,17.9990341759115
0.0279645621398632,18.001918179396
0.0284711796618058,18.0047077839575
0.0287041666729088,18.0075265097933
0.0286211770026895,18.0105500047191
0.0280613244955908,18.014236117422
0.0272468189960812,18.0173099404452
0.0261712146417993,18.0203837634685
0.0250900340843816,18.0230124484432
0.0240174875442952,18.0253914757078
0.0229444495014042,18.0276449998428
0.0218710492435865,18.0298298068453
0.0208004232636211,18.0319773024151
0.0197362793329121,18.0341079226367
0.0186822585508965,18.0362364116616
0.0176417664501027,18.0383742032645
0.016617979028475,18.0405306841356
0.0156137539098968,18.0427139336164
0.0146316575689275,18.0449311959951
0.0136739973486396,18.0471892099102
0.0127428353487687,18.049494441772
0.0118399969156532,18.0518532786181
0.0109670784695234,18.0542721926994
0.0101254629595048,18.0567578683371
0.00931632058533729,18.0593173638604
0.00853364923051182,18.0619829216545
0.0077632879609509,18.0648265914026
0.00700904256605611,18.0678687723508
0.00627472129978289,18.071133849506
0.00556435234714058,18.0746500054736
0.00488214862652033,18.0784499255094
0.00423244199396902,18.0825717102467
0.00361957124385063,18.0870601796172
0.00304769124811088,18.0919691150277
0.0025205163584904,18.0973652083252
0.0020410233099642,18.103335207957
0.00161134109855349,18.1099960248347
0.00124764808450386,18.1171750300471
0.000944644455084931,18.1249472000791
0.000703690990691613,18.1335838001692
0.000556653254726708,18.1410196664134
0.000413643567511305,18.1508519365777
0.000312748429665017,18.1607498546664
0.000241731979937565,18.1707498546664
0.000193002942956214,18.1807498546664
0.000160121475796999,18.1907498546664
0.000138363400575136,18.2007498546664
0.000124358876399024,18.2107498546664
0.000115778935833446,18.2207498546664
0.000111044298934181,18.2307498546664
0.000109089957982035,18.2407498546664
0.000109197622442249,18.2507498546664
0.000110885091952269,18.2607498546664
0.000113834698456891,18.2707498546664
0.000117846205315609,18.2807498546664
0.000122805014821388,18.2907498546664
0.000128660581523617,18.3007498546664
0.000135412137335376,18.3107498546665
0.000143099907918958,18.3207498546665
0.000151800589509099,18.3307498546665
0.00016162628913504,18.3407498546665
0.000172726517324703,18.3507498546665
0.000185293189820688,18.3607498546665
0.000199568969680432,18.3707498546665
0.000215859710830677,18.3807498546665
0.000234552324420182,18.3907498546665
0.000256140196630703,18.4007498546665
0.000281259528915267,18.4107498546665
0.000310741970973597,18.4207498546665
0.000345692251997477,18.4307498546665
0.000387605269403796,18.4407498546665
0.000438547370345657,18.4507498546665
0.000497882505094355,18.4602312710744
0.000565351184335787,18.4689880237434
0.00064194386841296,18.4770671213952
0.000728877891655365,18.4845214851032
0.000827551644574751,18.491400525503
0.000939553549866393,18.4977500797175
0.00106668336849064,18.5036126862743
0.00121097924172651,18.509027834739
0.00137475028924926,18.5140321778329
0.00156061207010247,18.5186597402009
0.00177153087677235,18.5229421244483
0.00201087373256481,18.5269087094648
0.00228247128339048,18.5305868289877
0.00259069232588589,18.5340019514101
0.00294053967868545,18.5371778707488
0.00333777332555449,18.5401369038177
0.00378907065968,18.5429000984806
0.00430224661064567,18.5454874785834
0.00488656272624859,18.5479183438216
0.00555317921056776,18.5502116592837
0.00629820510287142,18.552340604967
0.00712170092813245,18.5543100242653
0.0080356452908722,18.5561543818001
0.00905821582158101,18.557908843861
0.0102193038531872,18.5596140610254
0.0115768231016623,18.56133022874
0.0133602664269401,18.5632705292687
0.0151637258490119,18.5649915273399
0.0171448220225982,18.5667125254112
0.0188514037722141,18.5681247344678
0.0203252350933852,18.5693424048718
0.0216428385181931,18.5704748690933
0.0228200098625392,18.571575598838
0.023847447358873,18.5726833820822
0.0246988440466858,18.5738403256433
0.0253235463767576,18.5751117466967
0.0256055126083768,18.5766538971748
0.0252784087449429,18.5784843514306
0.0243340429208096,18.5803148056864
0.023227233755118,18.5817932066141
0.0219866658005506,18.5831896324564
0.020605901501976,18.5846053919592
0.0190929682241621,18.5860854320439
0.0174552020944358,18.587667364461
0.0160654598317158,18.5890422260918
0.0147579172031545,18.5904170877225
0.0125529096499822,18.5929726528118
0.0107018371804686,18.5954225119008
0.00915792500090856,18.5977593661534
0.00785654181152485,18.6000110820351
0.00674264659105021,18.6022137700728
0.0057672760609111,18.6044211993888
0.0048780708360432,18.6067371662873
0.00399970730597384,18.6094126917579
0.0034422926979756,18.6113811080312
0.00295050551017293,18.6133495243046
0.00257018717348666,18.6150615652512
0.00225477474841527,18.6166385305563
0.00197225919799522,18.6181995592233
0.00170392203404112,18.6198412554696
0.00143152364160003,18.6217038092532
0.00111726058263239,18.6241673760122
0.000726405974117797,18.6278884284799
0.000444217306959228,18.6312582734952
0.000231247000316107,18.6344001687892
4.03982159415499e-05,18.6379187016333
-0.000146635726136378,18.6425360932174
-0.000291375217142582,18.6481330521506
-0.000347185545998842,18.6530075386717
-0.000335080532359558,18.6574316462016
-0.000260560769936817,18.6614146815137
-0.000125181154271533,18.6650060227491
7.18519235119229e-05,18.668249513573
0.000333349548506576,18.6711960324155
0.00066451876603422,18.6738996158828
0.00107353712526488,18.6764135758941
0.00157387889594476,18.6787959585925
0.00218945326855094,18.6811176991151
0.00296150814879558,18.6834649865808
0.00398589591543639,18.6860054556854
0.00539200651119272,18.6888727360113
0.00713863061794237,18.691840113232
0.00850174534250379,18.6938399624722
0.0100478507123444,18.6958398117125
0.0116033992129866,18.697601883548
0.0132614441817083,18.6992429547457
0.015024061867593,18.7007606051719
0.0169726656352974,18.7022145165995
0.0191274389327191,18.7036020651191
0.0215359245206754,18.7049370623314
0.0242325610713133,18.7062213199027
0.0272556406850096,18.7074572730184
0.0306516503043417,18.7086489195192
0.0344636599637648,18.7097971866538
0.0387490243611491,18.7109058602606
0.0435714217460938,18.7119780257745
0.0490037738363189,18.7130166399103
0.0551306006162179,18.714024650721
0.0620544378350253,18.7150055607582
0.0698995512526133,18.7159631948817
0.078815394097738,18.7169014453308
0.0889858979448404,18.7178245851898
0.100641042864033,18.7187374241456
0.114072895194361,18.7196454777804
0.129663903022428,18.7205554966347
0.14792765625044,18.7214759514885
0.169584375172554,18.7224182298464
0.194885245791425,18.7233702207979
0.224211376079125,18.7243291915737
0.258355978403359,18.7253063792765
0.298439153337036,18.7263198217914
0.346411706105043,18.7274072300065
0.381824677773932,18.7281566715825
0.418173002835379,18.7289061131585
0.450497889512479,18.7295798023356
0.478851691575494,18.7302024968747
0.503580581829846,18.7308032430145
0.524539775915827,18.7314052377463
0.541107113629529,18.7320332454882
0.551900855634528,18.7327241560405
0.553785481273529,18.7334986808005
0.544156742464144,18.7342938362466
0.521734785906865,18.7351290532176
0.484646170356344,18.7360200709121
0.430694392307145,18.7369756968066
0.379934332144265,18.7377106507383
0.322086572564814,18.7384456046701
0.271655058061729,18.7390359589658
0.229794573577163,18.7395087162279
0.193777674887245,18.7399133760469
0.161894669070198,18.7402775473341
0.133204075190601,18.7406166295193
0.107114124483534,18.7409407741569
0.0831854123554529,18.7412581424895
0.0610154108529062,18.7415771520554
0.040089303798677,18.7419100782096
0.0192387790036277,18.7422871344428
0.0101414681703808,18.7424716396048
0.00175399172028721,18.7426561447667
-0.00747750111655874,18.7428794270195
-0.014337363139743,18.743062784666
-0.020323020194658,18.7432382260316
-0.0264337322934604,18.7434361070443
-0.0323914093254029,18.7436525551215
-0.0380106344634205,18.7438849775644
-0.0431871572182072,18.7441323213513
-0.0478654985138135,18.7443945473876
-0.0520194910253498,18.7446723264669
-0.0556408997317355,18.7449668888027
-0.0587274505774903,18.745279966288
-0.0613373524222451,18.7456226171219
-0.0633391467662271,18.7459775313783
-0.0648435389672444,18.746359073457
-0.0658658911375275,18.7467716043015
-0.0664188858978969,18.7472203938317
-0.0665117293661512,18.747712099261
-0.0661481122536146,18.7482553034948
-0.0653216665416652,18.7488623983559
-0.0640110434714189,18.7495500993697
-0.0621716325001492,18.7503427594146
-0.0597117459210638,18.7512809635918
-0.0564123028991579,18.752449506871
-0.0522494255415686,18.7538700962051
-0.0481955399436482,18.7552421578869
-0.044309579454572,18.7565730678606
-0.0406220810001172,18.7578656197653
-0.0371490789777734,18.759120865857
-0.0338985439612915,18.7603389807046
-0.0308731377184489,18.7615197141343
-0.028071609932674,18.7626626301573
-0.0254896649206477,18.7637672315225
-0.0231206075001895,18.7648330208143
-0.0209558869166212,18.7658595243865
-0.018985581134205,18.7668462931283
-0.0171988339193712,18.7677928877538
-0.015584245732356,18.7686988528386
-0.0140266359358226,18.7696273138314
-0.0125303946064307,18.7705798035918
-0.0110995421744426,18.7715582532277
-0.00973792808349541,18.7725649189287
-0.00844918010472799,18.7736024609481
-0.0072366529966369,18.7746740453201
-0.006103374651268,18.7757834792679
-0.00505198968923986,18.7769353953129
-0.00408470011121432,18.778135507879
-0.00320320200051041,18.7793909815333
-0.00240861621158965,18.7807109782023
-0.00170140902465253,18.7821075056432
-0.00108129490314697,18.7835968045833
-0.000547105052155828,18.7852017763619
-0.000120507815532557,18.7868498475916
0.0002142868866415,18.7885535093691
0.000472608960570329,18.790331475851
0.000668701808121048,18.7922079648534
0.000816134207528259,18.794216169297
0.000928327569773499,18.7964048679616
0.00101944405569087,18.7988531128856
0.00110643902361693,18.8017105896215
0.00121675150216082,18.8053636998691
0.00134782822032256,18.80916502223
0.00151997673702849,18.8134306176739
0.00174491211127541,18.8183669867018
0.00198368343322638,18.8232617948252
0.00222911939419962,18.8281598852794
0.00244016133608942,18.8323359833961
0.002637605747855,18.8362386460185
0.00283007174569645,18.8400346114119
0.00302247250635885,18.8438069374547
0.00321845800279944,18.8476090724216
0.00342117742513107,18.8514814842726
0.00363359397773348,18.8554581216244
0.00385868394597821,18.8595699746917
0.00409959742339787,18.8638474093345
0.00435980254908498,18.8683215807491
0.00464328605610732,18.8730257576228
0.00495487904865597,18.8779966946367
0.0053007947733301,18.8832758010806
0.00566564774836852,18.8885695564537
0.00604492301033461,18.8937744169094
0.00644242129202985,18.8989044341735
0.00686078557979475,18.9039496701258
0.00730450604799378,18.9089183332436
0.00777839831236267,18.9138160369311
0.00828788795218799,18.9186486812856
0.00883880496758175,18.9234194635169
0.00943749770482362,18.9281294883208
0.0100909209611348,18.9327780561172
0.0108128090111185,18.9374001846126
0.0116249011129515,18.9420536429073
0.0125436593901482,18.946736377896
0.0135935639435767,18.9514682891532
0.0148104432794819,18.95629148374
0.0162570153052242,18.9613085046836
0.0180811234892677,18.9668166065227
0.0205201924780453,18.9732332850115
0.0220992455646507,18.9770477309381
0.0237181714922189,18.9808621768647
0.0251326646743187,18.9842729727266
0.0263268694668079,18.9873907103116
0.0273153332072998,18.9903877100966
0.0280509432877442,18.9932516703871
0.0285202385802251,18.9960374234646
0.0287127564469918,18.9988719669056
0.0285780653254608,19.0019470734963
0.0279116468968886,19.0058330342232
0.0270771610052539,19.0087824603607
0.0260116126559181,19.0117318864982
0.0249348956621459,19.0143067362232
0.0238627305743784,19.0166619848244
0.0227895287004454,19.0189029902853
0.02171631079422,19.0210808722136
0.0206463862983088,19.0232248900676
0.0195834752566912,19.0253544370821
0.018531190458015,19.0274836723868
0.0174929139282655,19.029623675478
0.0164717763488585,19.031783608791
0.0154705798013098,19.0339714097717
0.014491853291176,19.0361942343628
0.0135378681753031,19.0384587723706
0.0126106513504859,19.0407714735246
0.0117119957993483,19.0431387298643
0.0108434660041181,19.0455670432745
0.010006413636752,19.0480631510309
0.00920198027963492,19.0506341824135
0.00842087496753337,19.0533244391738
0.00765262831413919,19.0561955546772
0.00690103363131067,19.0592685123008
0.0061699328528583,19.0625682086828
0.00546338384320471,19.0661234321294
0.00478562097284351,19.0699675954016
0.00414098594771619,19.0741396781967
0.00353380529445338,19.0786856268125
0.00296818690466994,19.0836607970097
0.00244775510825584,19.089134263552
0.00197536439534476,19.0951964547877
0.00155429521456747,19.101946749754
0.00119981451064148,19.1092054815028
0.000905042839502816,19.1170739205532
0.000725304731059316,19.1236722068186
0.000548852537908589,19.1324639290047
0.000412624853284423,19.141940323288
0.000311112211086797,19.151940323288
0.000240679558149079,19.161940323288
0.000192437188263861,19.171940323288
0.000159919520366467,19.181940323288
0.000138411609145653,19.191940323288
0.00012457255323035,19.201940323288
0.000116102145663106,19.211940323288
0.000111441569196137,19.221940323288
0.000109538307119398,19.231940323288
0.000109681502697483,19.241940323288
0.000111393729501408,19.251940323288
0.000114360718243274,19.261940323288
0.000118384800347233,19.271940323288
0.000123353351857183,19.281940323288
0.000129217360393308,19.291940323288
0.00013597728744009,19.301940323288
0.000143674408619564,19.311940323288
0.000152386396276644,19.321940323288
0.000162226350263572,19.331940323288
0.000173344875180719,19.341940323288
0.000185935172210978,19.351940323288
0.00020024148976745,19.361940323288
0.000216571709553961,19.371940323288
0.00023531541086588,19.381940323288
0.000256969574393529,19.391940323288
0.000282175348631812,19.401940323288
0.000311771335599227,19.411940323288
0.000346872249180374,19.421940323288
0.000388987666460418,19.431940323288
0.000440206085387018,19.441940323288
0.000499693101131765,19.4513913115951
0.000567324899984304,19.4601191367848
0.000644102585311832,19.4681718142828
0.000731248054644332,19.4756020782698
0.000830163720147183,19.4824591299593
0.00094244221484506,19.4887886175256
0.00106988796422318,19.4946329089881
0.00121454436914483,19.5000313387037
0.00137872646633543,19.5050204178089
0.00156505645168288,19.5096340420213
0.00177650812724637,19.5139036964979
0.00201645702123248,19.5178586524712
0.0022887433737032,19.5215261447709
0.00259774708219426,19.52493155136
0.00294848375596182,19.5280985837256
0.00334672841040718,19.5310494830397
0.00379917638185875,19.5338052282152
0.00431366437065971,19.5363857807023
0.00489948107838636,19.5388103839429
0.00556782162128201,19.5410979532305
0.0063142661595553,19.5432203604076
0.00713930288349433,19.5451839933343
0.00805496138071234,19.5470232217447
0.00907948268461725,19.548773103639
0.0102428812374017,19.5504742193641
0.0116033715774806,19.5521867788197
0.0133933803613728,19.5541258980099
0.0151961857771965,19.5558392750175
0.0171758231950229,19.5575526520251
0.0188847410545273,19.5589617815947
0.0203612764649617,19.5601773838839
0.0216814528009682,19.5613080590833
0.0228610361969584,19.5624071465503
0.0238907057091193,19.5635133886746
0.0247441082613704,19.5646688786288
0.0253704846321869,19.5659389741515
0.0256534362635135,19.5674802595878
0.0253261712606689,19.5693082203291
0.0243811324407127,19.5711361810705
0.0232733954833089,19.5726128164992
0.022031421427988,19.5740080166932
0.020648787696574,19.5754228640957
0.0191335146934434,19.5769022666073
0.0174929010944565,19.5784838737786
0.016106709657577,19.5798521862282
0.0148019904101168,19.5812204986778
0.0125584719513396,19.5838159020953
0.0106808746886583,19.5863013182156
0.00912142391823259,19.5886666385685
0.00781320206215947,19.5909384684393
0.00669990703807131,19.5931502584452
0.0057328941271444,19.5953492943695
0.00486405972116974,19.5976194534376
0.00402057925891828,19.6001844953091
0.00340731123368248,19.6023519435101
0.00287303201522727,19.6045193917112
0.00248805823028153,19.6062904672189
0.00217725317670759,19.6078821617058
0.00190230223816311,19.6094386123263
0.00164389529954043,19.6110565427003
0.00138529671867909,19.6128610065106
0.00109728160968115,19.6151474812933
0.000708227459914629,19.6188748403708
0.000417309030335144,19.6223819827148
0.000205103728333281,19.6255557445455
1.97153165276815e-05,19.6290114396006
-0.000160098489982213,19.6334454634628
-0.000309976831615157,19.6391351635245
-0.000369571320294523,19.6440519263022
-0.000361785438192118,19.6485212165551
-0.000292027239000239,19.6525444849159
-0.000161798011627094,19.6561725909337
2.96263237888973e-05,19.6594467280614
0.000285151732422473,19.6624200425916
0.000609762527763185,19.6651449635673
0.00101114194904978,19.6676735063577
0.00150186594444769,19.6700624434745
0.00210443409620257,19.6723814491935
0.00285826274735383,19.6747160681597
0.00384764932530677,19.6772129824374
0.00522375395790284,19.6800625621424
0.00694039346498454,19.683016229524
0.00831075357944737,19.6850492685571
0.00986686794741321,19.6870823075902
0.0114329715493957,19.6888734205317
0.0130957739620447,19.6905349009359
0.0148513541861538,19.6920613801291
0.016791286010601,19.6935239597778
0.0189290771180397,19.6949157503377
0.0213189040675441,19.6962557369208
0.0239912655644406,19.6975436674858
0.026987893148972,19.6987838397106
0.030353503541577,19.699979507399
0.0341297279497736,19.7011312708299
0.0383752951793955,19.7022435134124
0.0431522327611812,19.7033190061671
0.0485325390312345,19.7043606857189
0.054598149458733,19.7053712539407
0.0614528792506604,19.7063546606219
0.069218068470402,19.707314511944
0.0780408344126323,19.708254675276
0.0881021182190121,19.7091793983592
0.0996279340114037,19.7100934550419
0.112904481309159,19.7110022784194
0.128307166672156,19.7119125861193
0.146338177475896,19.7128327144449
0.167699908480647,19.7137738358333
0.192706395956832,19.7147263986297
0.221685649996348,19.7156853623283
0.255414952666601,19.7166617052104
0.294982395458537,19.7176727964676
0.342243166837917,19.7187540985956
0.377956509875343,19.7195149189998
0.414738252378309,19.720275739404
0.447423786143789,19.7209567590553
0.476073377232578,19.7215834413956
0.501088652789034,19.7221859051501
0.522364474148072,19.7227875753937
0.539325212920744,19.7234127334094
0.550682691052574,19.724096411764
0.553467011629024,19.7248707603833
0.544825922041205,19.7256639068538
0.523530657735281,19.7264954507634
0.487758892831729,19.7273814489175
0.435246623600418,19.7283326648775
0.370957862858526,19.7292611893716
0.326273793297229,19.7298265926748
0.278323453615013,19.730391995978
0.235801328442603,19.7308741919304
0.199072323921665,19.7312869149496
0.166637861022517,19.7316562930508
0.137506951629499,19.7319986542141
0.111053400193367,19.7323246729007
0.0868232125909974,19.7326426683279
0.0644161745786192,19.7329608479285
0.0433525979311085,19.7332904457795
0.0226625897213829,19.7336563781115
0.00731402507967983,19.733967527825
-0.00144808816506348,19.7341665074997
-0.00942186532614477,19.7343654871744
-0.0159605939180671,19.7345447667562
-0.0220190596281401,19.7347272328368
-0.0281101327820756,19.7349308221605
-0.033984954180177,19.7351520504229
-0.0394854469074052,19.7353888319392
-0.0445237947529183,19.735640442488
-0.049054335152039,19.7359070656834
-0.0530568766693586,19.7361895406926
-0.0565268645763148,19.7364892423246
-0.0595130805254526,19.7368145822552
-0.0618853882658082,19.7371522607242
-0.0637495911589989,19.7375140285108
-0.0651213922150262,19.7379036183103
-0.0660149339147579,19.7383255136689
-0.066442120420213,19.7387853179237
-0.0664108875350729,19.739290144978
-0.0659229892310808,19.7398492277954
-0.0649681657764702,19.7404763798079
-0.063520129431877,19.7411897214274
-0.0615249782774898,19.7420167992272
-0.0588695603714354,19.7430056469506
-0.0552591817258708,19.7442673608736
-0.0511204034693078,19.7456730735874
-0.0471080826268402,19.7470337128344
-0.0432738244762461,19.7483541581951
-0.0396433345819282,19.7496366250884
-0.0362300974130583,19.7508818772885
-0.0330404770089941,19.7520899481379
-0.0300759801488752,19.7532605237775
-0.0273344649477717,19.7543931451637
-0.0248109310470712,19.7554873124433
-0.0224981318007163,19.7565425344448
-0.0203871002922036,19.7575583455145
-0.0184676206969951,19.7585343016439
-0.0167286530918338,19.759469962481
-0.0151300669481328,19.7603816965915
-0.0135891292314939,19.761316638502
-0.0121106954003046,19.7622761120669
-0.0106987389391654,19.7632621343865
-0.0093570531066471,19.7642770648647
-0.00808919551573081,19.7653236924107
-0.00689843613038398,19.7664053453065
-0.00578770273148779,19.7675260383049
-0.00475952377564826,19.7686906739313
-0.00381596810839845,19.7699053251879
-0.00295858030018708,19.7711776449276
-0.00218830911578478,19.7725174808643
-0.0015054243067372,19.7739378420811
-0.000909412197616288,19.7754565063656
-0.00040509860376758,19.7770759868546
-5.38976176740367e-06,19.7787375310718
0.00030686392243043,19.7804594715397
0.000546626898651966,19.7822616746533
0.000727914930054478,19.7841703863241
0.00086419353260399,19.7862221967132
0.000968970700054504,19.7884721388198
0.00105687360666308,19.7910125543881
0.0011464195070275,19.7940294014705
0.00126189925081752,19.7977637149511
0.00140157944157633,19.8016517107087
0.00158753589785869,19.8060979730934
0.00181542635263672,19.8109931270892
0.00205755091816882,19.8159118006234
0.00228982400549605,19.8205320284996
0.00249615834151714,19.8246133544021
0.00269180540283151,19.8284784323849
0.00288393013092964,19.8322621970214
0.00307699457881618,19.836037568332
0.00327447571238318,19.839853775326
0.00347945665783647,19.8437492323105
0.00369488943277035,19.8477568259388
0.00392378770418877,19.8519072445967
0.00416937368294936,19.8562309254259
0.00443523135367948,19.8607594203163
0.00472553209401086,19.8655267380463
0.00504540507752922,19.8705706965866
0.00540154893084334,19.8759340546969
0.0057684903445851,19.8811777454822
0.00615321196066347,19.8863712798969
0.0065559507759386,19.8914750913324
0.00698096569657987,19.896499475997
0.0074325042866649,19.9014477259059
0.00791567423083067,19.9063270742105
0.00843598103166729,19.9111423639353
0.00899940104472242,19.9158962930953
0.00961244021610106,19.920589413081
0.0102822478068494,19.9252206677546
0.0110277131918931,19.9298529066753
0.0118671356931412,19.9345129701214
0.0128192730659791,19.9392068007175
0.0139108935346625,19.9439580583701
0.0151829851688378,19.9488202549054
0.0167119687696042,19.953927156454
0.0187035730271339,19.9597087819099
0.020585406983184,19.9645650105928
0.0221786939459593,19.9684062179937
0.0238090601841238,19.9722474253945
0.0252107352771497,19.9756377300829
0.0263925834191931,19.9787441222186
0.0273685028767844,19.9817383079268
0.0280878014975361,19.9845943200312
0.0285407762956865,19.9873791461284
0.0287153784956746,19.9902216303696
0.0285572227599142,19.9933218051021
0.0279920325524393,19.9966609025511
0.0270627558681713,20
