ecg,time
0.367189645391486,15.0006139162163
0.404477370799176,15.0014086017296
0.437567012311181,15.0021145731454
0.466512362346101,15.0027586390193
0.491802769412562,15.003373164871
0.513401949739033,15.0039821395022
0.530819793907666,15.0046088821723
0.542944652155348,15.0052845158975
0.547246784519801,15.0060653921215
0.540368568238342,15.0068603071827
0.521188459405263,15.0076887347862
0.488024746697585,15.0085667507625
0.438757939568764,15.0095054482496
0.375511533284202,15.0104536319591
0.330821646702163,15.0110345359126
0.28254149234097,15.0116154398661
0.239685994308697,15.0121087800185
0.202737547887483,15.0125287315425
0.170150283805753,15.0129030661154
0.14090217425967,15.0132489677225
0.114354852890197,15.0135774884836
0.0900524728335311,15.0138970599382
0.0676026553865983,15.0142157450875
0.0465553049870787,15.0145440744104
0.0260722246010354,15.0149036799233
0.00906425360857496,15.0152467054851
-2.878258196318e-05,15.0154536440729
-0.00827962663608672,15.0156605826607
-0.0148461912901234,15.0158418686706
-0.02087658445666,15.0160247509389
-0.0269459122054923,15.0162289488867
-0.0328043626854542,15.0164509383983
-0.0382922557249646,15.0166885762596
-0.0433208777550461,15.0169411053373
-0.0478440501693026,15.0172086905319
-0.0518412539778788,15.0174921596422
-0.0553073364674848,15.0177928797331
-0.0584319911468661,15.0181373425437
-0.0607742576233309,15.0184776082888
-0.0626089927132848,15.0188419377075
-0.0639535418037515,15.0192343146873
-0.064821931892827,15.0196592655621
-0.0652258976763086,15.0201224437202
-0.0651731732740585,15.0206310270966
-0.0646652418009736,15.0211943653074
-0.0636914232497223,15.021826434291
-0.0622250640814297,15.0225455251165
-0.0602116229599352,15.0233795562487
-0.0575363870525544,15.0243774163203
-0.0538978918468755,15.0256533378415
-0.0497913778157326,15.0270550083988
-0.0458152820264525,15.0284117307416
-0.0420194579967347,15.0297281486078
-0.038428525140196,15.0310064440579
-0.0350552710435424,15.0322473752731
-0.0319055301933804,15.0334509831022
-0.0289803736296562,15.0346169670714
-0.026277293901967,15.0357448834562
-0.0237909878630296,15.0368342473605
-0.0215139664005655,15.0378845807266
-0.019437078216648,15.0388954281056
-0.0175499778830667,15.0398663519378
-0.015841546031224,15.0407969138284
-0.0142583568332893,15.0417115964583
-0.0127336541356295,15.0426496199678
-0.0112721473763571,15.0436124152739
-0.00987780083936425,15.0446020397697
-0.00855439321666181,15.0456209033101
-0.00730546359526519,15.0466718576764
-0.00613425986279008,15.0477583105299
-0.00504368481697625,15.0488843783753
-0.00403623996612741,15.0500550965324
-0.00311396659312639,15.0512767150924
-0.0022783830172707,15.052557129345
-0.0015304158712382,15.0539065298328
-0.000870321127215429,15.0553384306362
-0.000297586380830307,15.056871393792
0.000179752991950921,15.0584953398868
0.000554718314322415,15.0601636436093
0.00084397995452156,15.0618945970936
0.00106224721235157,15.0637087351059
0.00122328995602992,15.0656333403234
0.00134033399832317,15.067706769588
0.00142664392685151,15.0699873835909
0.00149659880345956,15.0725748648362
0.00156856728863243,15.0756766917591
0.00166314053207861,15.0794098345239
0.0017847136541245,15.0833473923803
0.00194140994213343,15.087598233941
0.00211736455496821,15.0918467561746
0.00231599161131835,15.0963492278971
0.00254403986145838,15.1013722226603
0.0027691824674008,15.1062725551248
0.00300178968879152,15.111306531001
0.00319715888258735,15.1154876457124
0.00338017315089828,15.1193535724211
0.00356045579063181,15.1230948872443
0.00374305032845772,15.1268005809669
0.00393155239020952,15.1305259385406
0.00412905193776118,15.1343119120073
0.00433851366994756,15.1381922205857
0.00456301672462808,15.1421972333295
0.00480594220025948,15.146356419035
0.00507113557990698,15.150699757365
0.00536311402282373,15.1552589341548
0.00568739810182812,15.1600686440486
0.0060510711654468,15.1651679533525
0.0064449515448818,15.1703598558991
0.00685769498434372,15.1754505908145
0.00729574736201139,15.1804834840676
0.00776131106552325,15.18543762572
0.00825966570063555,15.1903205228597
0.00879652145377387,15.1951356183209
0.00937847943688186,15.1998869570451
0.0100127602584089,15.2045761459559
0.0107101639584576,15.2092212309481
0.0114946826347107,15.2139016217329
0.0123816202207764,15.2186107558041
0.0133943598733622,15.2233673061488
0.0145662027667338,15.2282085322503
0.0159536217034835,15.233224577727
0.0176821676844939,15.2386667917878
0.0200991565128158,15.2452667284153
0.0216834015521964,15.2492068039972
0.0233193484917536,15.2531468795791
0.0247498332699667,15.2566467846876
0.0259561435192158,15.2598168601689
0.0269584447008177,15.2628437487517
0.027719793695261,15.2657513130908
0.0282164264570803,15.2685628152254
0.0284413006513836,15.2714024012532
0.0283524853643022,15.2744461046663
0.0277915837385283,15.2781491545625
0.0269751741547659,15.2812558112995
0.0258984197089045,15.2843624680366
0.0248193092810846,15.2870140596409
0.0237506379570366,15.2894119329538
0.0226826538393839,15.2916825717401
0.0216152501590174,15.2938835400985
0.0205514347848657,15.2960465938253
0.0194948244456466,15.2981923693114
0.0184489879591114,15.3003357388112
0.0174172695248133,15.3024882221831
0.0164027403569823,15.3046592667054
0.0154081966069898,15.3068569900539
0.0144361651106311,15.3090886623721
0.0134889153158176,15.3113610316878
0.0125684721776876,15.3136805591685
0.011676622172591,15.3160536176703
0.0108149251400461,15.318486644852
0.00998472628567417,15.3209862764779
0.00918715849110893,15.323559501764
0.00841412187679079,15.3262464290952
0.00765379523026311,15.3291130155576
0.00690993801798221,15.3321799824449
0.00618633593043203,15.3354719992464
0.00548698661851023,15.3390175993495
0.00481606473691972,15.3428499035069
0.00417785166983758,15.3470075957607
0.00357661935526225,15.3515363462495
0.00301644455433387,15.3564912102184
0.00250095379213654,15.3619409432809
0.00203305969485198,15.3679755001797
0.00161489576306997,15.3747165117249
0.00126268003552631,15.3819836153326
0.000970920651750736,15.3898596508748
0.000744170262238181,15.3984796452276
0.000607362267247709,15.4059745666251
0.000481271236763295,15.4155748110177
0.000394387866885024,15.4253330686932
0.000336548481567759,15.4353330686932
0.000302148611830194,15.4453330686932
0.000285282881694617,15.4553330686932
0.000281797148271621,15.4653330686932
0.00028897691660599,15.4753330686932
0.000305298905299494,15.4853330686932
0.000330222686898906,15.4953330686932
0.000364068906005102,15.5053330686932
0.000408020101746893,15.5153330686932
0.000463388151215502,15.5251900869804
0.000528035318600404,15.5342796715035
0.000602532307205151,15.5426414774401
0.00068792070294645,15.5503361466588
0.000785532681976556,15.5574199403205
0.000896949162660884,15.5639443603105
0.00102399719481023,15.5699566620309
0.00116876658156073,15.5755003018827
0.00133363740945556,15.5806153021648
0.00152131508252885,15.585338567286
0.00173487340828728,15.5897041737338
0.0019778078771531,15.5937436388595
0.00225410142070825,15.5974861638808
0.00256830513312483,15.6009588643323
0.00292564336026275,15.6041870052486
0.0033321490834656,15.6071942454358
0.00379484556886327,15.6100028959368
0.00432199791908404,15.6126342209023
0.00492347389340794,15.6151088133327
0.00561128658082634,15.6174470982738
0.00637385926265518,15.6196015248634
0.00721965681993985,15.6216045753522
0.0081636165526503,15.6234939142157
0.0092293040960321,15.6253100340254
0.0104591515250092,15.627106133428
0.0119647065338862,15.6289977830144
0.0142286230312591,15.6314289520601
0.0157548061243786,15.6328943170104
0.017364378833735,15.6343596819607
0.0188304838944529,15.6356730943465
0.0201372748458017,15.6368727525281
0.0213065307353257,15.6380205703753
0.0223358214934386,15.6391590189208
0.0232059092706402,15.6403278908043
0.0238787405766857,15.6415802924951
0.0242771743229382,15.6430193638407
0.0241476139190698,15.645028947297
0.0235196454672118,15.6466318429929
0.0225184295908287,15.6482347386888
0.0213780989103351,15.6496796390259
0.0201036047764089,15.6511056134248
0.018702113448752,15.6525711653281
0.0171829867338569,15.6541144414446
0.0162069958844226,15.6551040144549
0.0152506578012794,15.6560935874651
0.0142369620609562,15.6571928353384
0.0118874486873393,15.6599973607656
0.0099244979168518,15.6627073090322
0.00833515793054808,15.6652486779313
0.00703925781382234,15.667640368016
0.00597160909438498,15.6699042124459
0.00508117759742039,15.6720631532617
0.0043277922782738,15.6741429736584
0.00367896061425945,15.6761759170993
0.00310645242076479,15.6782092619842
0.00258052278404561,15.6803318168132
0.00204677403327832,15.6828107660324
0.00170155679563318,15.6846387653243
0.00139216467435808,15.6864667646163
0.00114652705764303,15.6880735922823
0.000941568474759555,15.6895402975086
0.000756362700829805,15.6909813692751
0.000578582519304258,15.6924850385274
0.000396200937384239,15.6941707737794
0.000185375861356646,15.6963342611453
-0.000131537008110193,15.7001333312842
-0.000383359672210583,15.7037758121648
-0.000579707758020742,15.7071362135491
-0.000766647683837085,15.7108996318755
-0.000990643557464123,15.7163976777371
-0.00116881531945529,15.7219745564948
-0.001289328161639,15.7270547451114
-0.00135625982287786,15.731621063634
-0.00136989219854103,15.735711201152
-0.00132805026057229,15.7393704114161
-0.00122727823564995,15.7426572281116
-0.00106319148380231,15.7456287683657
-0.000829484722154114,15.7483516145507
-0.000516380312373395,15.7508957064855
-0.000105735046485182,15.7533494562692
0.000444779308542064,15.7558607425369
0.00120451444905548,15.758592329796
0.0019801449352763,15.7609313948556
0.00284653949744468,15.7632704599153
0.00371968337978284,15.7654718155119
0.00481829898563718,15.7681023283998
0.00574639622340657,15.7701990785079
0.00674678676969134,15.772295828616
0.0077100193938198,15.7741221649275
0.00875829691795807,15.7758885415864
0.00989029395253928,15.7775568622915
0.0111686849997694,15.7791875481155
0.0126080983081166,15.7807644466926
0.0142459097569584,15.7822991132462
0.0160902908981041,15.7837745831262
0.0181767904501943,15.785199616036
0.0205288004752944,15.7865718007615
0.023172356359707,15.7878907285798
0.0261326198607662,15.7891555871937
0.0294518935630479,15.7903719209007
0.0331730874115994,15.791542770915
0.0373462229731166,15.79267139138
0.042029182502946,15.7937610066967
0.0472914986305575,15.7948152546192
0.0532150532268098,15.7958377316414
0.0598970194424395,15.7968320626114
0.0674540576284251,15.7978020132144
0.0760275299316425,15.7987515513142
0.0857916188057361,15.7996850291653
0.0969636613170985,15.8006072868508
0.109820268108063,15.8015239137926
0.12472200228767,15.8024416285225
0.142153420573245,15.8033689004951
0.162794519500377,15.8043171350561
0.186998585829345,15.805278597179
0.215045653951143,15.806246316857
0.247690691233302,15.8072313723777
0.285980102559771,15.8082507827032
0.331642764845146,15.8093377160238
0.36757758854847,15.8101310179518
0.404790806065959,15.8109243198798
0.437818767802049,15.8116294980731
0.466714269808423,15.8122732496907
0.491957508256272,15.8128877554028
0.513506525449791,15.8134969500584
0.530865666884485,15.8141241826309
0.542913909025332,15.8148007201603
0.547099084057136,15.8155817662662
0.540096842239008,15.8163770420344
0.52078006920818,15.8172059855701
0.487462331516101,15.8180846151489
0.4380227644703,15.8190239580114
0.37471326099277,15.8199712322961
0.330106019260003,15.8205503755306
0.281944913203218,15.8211295187652
0.239187130633751,15.8216216844314
0.202305907141443,15.8220409609908
0.169768091259336,15.8224148934387
0.14055913104978,15.8227605522895
0.114044140239903,15.8230889404012
0.0897688297347077,15.8234084719781
0.0673411063380979,15.8237272183864
0.0463092447960946,15.8240557664594
0.0258257959983743,15.8244160075021
0.00898590444403189,15.8247561457487
-7.67979231129766e-05,15.8249625584237
-0.00830198977171659,15.8251689710987
-0.0148645127722716,15.8253502246904
-0.0208950658993966,15.8255331947177
-0.0269636500923871,15.825737469802
-0.0328207431173654,15.8259595288315
-0.0383069428873046,15.8261972333482
-0.0433337041361559,15.8264498294056
-0.0478549492686621,15.8267174841552
-0.0518502204947466,15.8270010271709
-0.0553143432373358,15.8273018271025
-0.0584372067787068,15.8276464251997
-0.0607775415662577,15.8279867921771
-0.0626104173633087,15.8283512342251
-0.063953178643192,15.8287437382747
-0.0648198453121472,15.8291688338959
-0.06522213994195,15.8296321786938
-0.0651677787691625,15.8301409563081
-0.0646582134097034,15.8307045292061
-0.0636827205912734,15.8313368828325
-0.0622145846620154,15.8320563296661
-0.0601991485155078,15.8328908290265
-0.0575214228539331,15.8338893682085
-0.0538788702060813,15.8351665609927
-0.049772914999252,15.8365680209323
-0.0457976264806067,15.8379245589381
-0.0420027446170307,15.8392407994314
-0.0384128269708485,15.8405189185059
-0.0350406258254565,15.8417596715435
-0.0318919516519284,15.8429630982047
-0.0289678572309626,15.8441288976567
-0.0262658205368157,15.8452566262299
-0.0237805267175893,15.846345799265
-0.0215044774715943,15.8473959389868
-0.0194285146174077,15.8484065901869
-0.0175422879644226,15.8493773154444
-0.0158346753043357,15.850307676356
-0.0142517268730419,15.8512224737309
-0.0127272903765462,15.8521606173165
-0.011266069367091,15.853123542208
-0.00987202730040525,15.8541133073818
-0.00854894174199991,15.8551323246797
-0.00730035038324713,15.8561834483641
-0.00612949943207736,15.8572700892344
-0.00503928970726255,15.8583963678245
-0.00403222042068027,15.8595673247218
-0.00311033021708356,15.8607892170548
-0.00227513439996048,15.862069949768
-0.00152755615076463,15.8634197270919
-0.000867847456392811,15.8648520833332
-0.000295491213349798,15.866385612069
0.000181353631214806,15.8680097368377
0.000555914636282632,15.8696783095175
0.000844848923983474,15.8714096215409
0.00106286098937163,15.8732242345038
0.00122371772344425,15.8751494729612
0.00134064460299217,15.8772237655134
0.00142691013124592,15.8795056091233
0.00149690631551319,15.8820949909618
0.00156904331120774,15.8852003063799
0.0016638070728941,15.8889335077678
0.00178567494301457,15.8928731087815
0.001942463653953,15.8971204065643
0.00211872777629797,15.9013719205858
0.0023181611904697,15.9058886778881
0.00254601465415916,15.9109033644294
0.00277129698492118,15.9158033257475
0.00300324380217469,15.920819180888
0.00319816869164775,15.9249877853486
0.00338107201628481,15.928848636275
0.00356139106214577,15.9325880653297
0.00374411049612606,15.9362936695991
0.00393280559273844,15.9400201818206
0.00413055973844221,15.9438082947626
0.00434033697590796,15.9476915891891
0.00456522076644019,15.9517003873971
0.00480859949253194,15.9558641537031
0.00507432939135828,15.9602128986439
0.00536694353319154,15.9647783702684
0.00569198800776619,15.9695953654456
0.00605658758890088,15.9747030821767
0.00645059745648881,15.9798916429734
0.00686375050897538,15.9849823626323
0.00730214921757997,15.9900137887992
0.00776815258762219,15.9949667875253
0.00826702687451352,15.9998485456304
0.00880450864316914,16.0046626406805
0.00938720614681518,16.0094130533458
0.0100223491777451,16.0141013512162
0.0107209863875633,16.0187470286223
0.0115069375356401,16.0234278075134
0.012395617950023,16.0281375418721
0.0134105121266149,16.0328950478322
0.0145851443249804,16.0377380787812
0.015976535813506,16.0427580491178
0.0177121915716527,16.0482108803364
0.0201295504044979,16.0548001370871
0.0217100462832333,16.0587271782034
0.0233408503927297,16.0626542193198
0.0247676665728684,16.0661472416023
0.0259710910841782,16.0693142075954
0.0269705644309801,16.0723401340061
0.0277282124216961,16.0752455724496
0.0282211932500333,16.0780565653007
0.028442138177548,16.0808975534495
0.0283483821227241,16.0839459926915
0.0277779456868768,16.087666351178
0.0269597191689208,16.0907602400434
0.0258841988577677,16.0938541289088
0.0248056109923845,16.0965004859686
0.0237370068008544,16.0988961404866
0.0226690224662611,16.1011656267726
0.021601644291282,16.1033659559223
0.0205378980334256,16.1055286825017
0.0194814022961103,16.1076743466508
0.0184357236780313,16.1098177671243
0.0174042031033883,16.111970431377
0.0163899082780834,16.1141417662239
0.0153956318679751,16.1163398762892
0.0144238974380855,16.1185720233636
0.0134769712036183,16.1208449508375
0.0125568750791796,16.1231651177681
0.0116653926455108,16.1255388970174
0.0108040808404672,16.1279727284903
0.00997428224949521,16.1304732515183
0.00917712711294801,16.1330474610583
0.00840422690379665,16.1357365408863
0.00764408383033988,16.1386055184969
0.00690045605717281,16.1416751665117
0.00617713211481529,16.1449701986826
0.00547811204041302,16.1485192012543
0.00480757219846818,16.1523553582649
0.00416979458452266,16.1565174309114
0.00356904983874362,16.1610511885992
0.00300941053342176,16.1660118249477
0.00249449521450753,16.1714683067575
0.0020272060860388,16.1775109114858
0.00160966709159829,16.1842617326641
0.00125824935000154,16.1915360487854
0.00096720161926354,16.1994207502426
0.000741258192836712,16.2080513952144
0.000606313855174154,16.2154712521401
0.000479876643788779,16.2251169237554
0.000393348630207283,16.2348635898621
0.000335645696007868,16.2448635898621
0.000301312837884803,16.2548635898621
0.000284459333422389,16.2648635898621
0.000280939308917415,16.2748635898622
0.000288042032620413,16.2848635898622
0.000304243794780603,16.2948635898622
0.000328999202499509,16.3048635898622
0.000362618486303995,16.3148635898622
0.00040626649032876,16.3248635898622
0.000461361766431167,16.3347415320028
0.000525703981422557,16.3438513012395
0.00059985358709775,16.3522317893635
0.000684844809413053,16.3599437133557
0.000782002763158844,16.367043432043
0.000892900812238034,16.3735825364229
0.0010193574910193,16.379608362914
0.00116345291060113,16.3851644422199
0.00132755606638249,16.3902908653779
0.00151435971346628,16.3950246000962
0.00172692306008653,16.3993997807889
0.00196872474382712,16.4034479774361
0.00224372796632033,16.4071984387857
0.00255646055454375,16.4106783223161
0.00291211898137522,16.4139129286299
0.00331670222600568,16.4169259448315
0.0037771912916146,16.4197397013959
0.00430179725216874,16.4223754702079
0.00490031650192272,16.4248538357866
0.00558466398893482,16.427195190566
0.00634427149299917,16.4293544774035
0.00718662316474068,16.4313610322306
0.00812637069052606,16.4332523796603
0.00918655979382455,16.4350686752795
0.0104083689825134,16.436862074221
0.0118963088377146,16.4387411209268
0.0141200318489793,16.4411417356459
0.015654205785497,16.4426201435622
0.0172767957607733,16.4440985514785
0.0187569145277125,16.4454219022789
0.0200745366035402,16.4466258978343
0.0212539103883556,16.4477748319862
0.022293950329583,16.4489119072141
0.0231764463019757,16.4500766339132
0.0238648621213847,16.4513205676826
0.0242860302390347,16.4527411311545
0.0242135783790771,16.4546770895298
0.0236161230933716,16.4563121295567
0.0226207243947026,16.4579471695837
0.0214884320307301,16.4593983120813
0.0202226539438391,16.4608228097459
0.0188290908087955,16.4622837161289
0.0173170940924093,16.4638198146102
0.016251317356078,16.4648990731564
0.0152083593690202,16.4659783317025
0.0141781211065066,16.4670982972883
0.0118230452722053,16.469919800114
0.00987121747949029,16.4726262165653
0.00829121180122616,16.4751638837505
0.00700275629069383,16.4775523387452
0.00594103465387852,16.4798134392746
0.00505532772386909,16.4819701658075
0.00430570743885298,16.4840483920878
0.00365985345124841,16.4860805618877
0.003089617856569,16.4881144578369
0.00256514491172286,16.4902404597089
0.00203071931662849,16.4927349455713
0.00168971724657287,16.4945498263935
0.00138386233755112,16.4963647072157
0.00114001125244368,16.4979658214774
0.000936020355228849,16.4994307555619
0.000751425363504674,16.5008720948564
0.000574008639171425,16.5023780568189
0.000391687982669322,16.5040696520293
0.000180054136998841,16.5062511199719
-0.000135060444903581,16.5100470292599
-0.000383864856313829,16.5136607733329
-0.000578020429380853,16.51699338009
-0.000763376709096644,16.5207323984633
-0.000984668769141937,16.5261683268886
-0.00116305060917741,16.5317508751893
-0.00128377539693422,16.5368396349179
-0.0013509065578597,16.5414135081356
-0.00136480372842858,16.545510534618
-0.00132333244726454,16.5491755838026
-0.0012230573846122,16.5524676031522
-0.00105963657942072,16.5554430902084
-0.000826795334605445,16.5581689102765
-0.000514792789516966,16.5607151114241
-0.000105680759613905,16.5631693941417
0.000442441849955246,16.5656787985269
0.00119896869952523,16.5684072518991
0.00197540366282724,16.5707535592144
0.00284364765067415,16.5730998665296
0.0037162420206171,16.575300649083
0.0048093318266978,16.577918869899
0.00574153381007459,16.5800259538434
0.00674647829621542,16.5821330377878
0.00770846352325141,16.5839576983126
0.00875664015223368,16.5857248115125
0.00988774764395366,16.5873927650884
0.0111654844951053,16.5890235900513
0.012603975437365,16.5906004071137
0.0142407530583173,16.5921349838137
0.0160842189531963,16.5936105231524
0.0181697556675261,16.5950356196548
0.0205207487717457,16.5964078576704
0.0231629422154018,16.5977266898509
0.0261221398221705,16.5989916203472
0.0294403286294901,16.600208027572
0.0331603842880175,16.6013789443605
0.0373323042210298,16.6025076231747
0.0420138429028065,16.603597265002
0.0472746491712615,16.6046515436207
0.0531965175922018,16.6056740422946
0.0598765712425474,16.6066683845315
0.0674314089898273,16.6076383348203
0.0760022984243242,16.6085878579622
0.0857633306030123,16.6095213061796
0.0969316812059066,16.6104435154902
0.109783734577692,16.6113600704199
0.124679709132476,16.6122776820445
0.142103601348881,16.6132048076383
0.162734441824463,16.6141528320435
0.186929596640214,16.6151141940973
0.214965841529704,16.6160817699334
0.24759732583128,16.6170666172713
0.285868862285646,16.6180857137854
0.331504987802638,16.6191721130668
0.367460270031668,16.6199658309192
0.40470103523114,16.6207595487717
0.437751857650143,16.6214649442264
0.466665975303081,16.622108753259
0.491926863996088,16.6227232204058
0.513494555010311,16.6233322992425
0.530875284339151,16.6239593298673
0.542951142657582,16.6246355349374
0.547177133494172,16.6254164878717
0.540217633628202,16.6262116124969
0.520947355686901,16.6270403614121
0.487681235822006,16.6279187755022
0.438298430054057,16.628857906895
0.375009986121047,16.6298054676837
0.330369925632457,16.6303852506125
0.282162804567375,16.6309650335413
0.239367489626005,16.6314576231035
0.202460395723124,16.6318771403751
0.16990351036586,16.6322512138684
0.14067943644418,16.6325969558007
0.114151954332267,16.6329253871118
0.089866165719766,16.6332449284097
0.0674298396135075,16.6335636481596
0.0463918022824843,16.6338921130735
0.0259078747953011,16.6342521215667
0.00900805489516963,16.6345932743851
-6.58773133636036e-05,16.6347998743275
-0.00830057606700885,16.63500647427
-0.0148646330106437,16.6351877339111
-0.02089521051228,16.6353706668094
-0.0269641621908603,16.6355749083838
-0.0328218519843432,16.6357969364493
-0.0383087708889607,16.6360346108291
-0.0433363082943985,16.6362871763893
-0.0478583475510189,16.6365547994393
-0.0518544071329765,16.6368383088722
-0.055319329383491,16.6371390727211
-0.0584428808040476,16.6374836062203
-0.0607840043155616,16.6378239276748
-0.0626176332067648,16.6381883195314
-0.0639611119544529,16.6385807674354
-0.064828463336824,16.6390057996736
-0.065231414644552,16.639469072192
-0.065177688876583,16.6399777664034
-0.0646687495187197,16.6405412396838
-0.063693889107204,16.6411734738739
-0.0622264141718633,16.6418927732502
-0.0602117088263163,16.6427270815747
-0.0575348829744976,16.6437253487629
-0.053893790464023,16.6450020447218
-0.049787447875403,16.6464035949439
-0.0458116718721589,16.6477602138994
-0.0420162489233073,16.6490765335211
-0.0384257623874246,16.6503547320718
-0.0350529796352532,16.6515955659035
-0.0319037216615586,16.6527990750407
-0.0289790493995055,16.653964958708
-0.0262764474075755,16.6550927731441
-0.0237906061528521,16.6561820335392
-0.0215140315183801,16.6572322619609
-0.0194375684551833,16.658243003072
-0.0175508689315095,16.6592138193753
-0.0158428120139653,16.6601442724627
-0.0142596866607282,16.6610590170437
-0.0127350605072399,16.6619971053933
-0.0112736397690451,16.6629599706869
-0.00987938820698097,16.6639496711722
-0.00855608381345925,16.6649686177772
-0.00730726481105907,16.6660196636234
-0.00613617804488092,16.6671062180678
-0.00504572507709786,16.6682323997921
-0.00403840596828574,16.6694032469629
-0.0031162603153828,16.6706250134745
-0.00228080447534553,16.6719055998342
-0.00153296278252783,16.6732552039818
-0.000872988476577243,16.674687350928
-0.00030036581366015,16.6762206197534
0.000176801973637805,16.6778446623008
0.000551644757345941,16.6795131112887
0.000840826571072221,16.6812442584569
0.00105905496339717,16.6830586530663
0.00122009926483908,16.6849836004181
0.00133718655691552,16.6870574961185
0.00142358569243699,16.6893387744642
0.00149368634552248,16.691927282484
0.00156588710264882,16.6950309935297
0.00166072377041158,16.6987641667581
0.00178261483093557,16.7027028278569
0.00193950289315113,16.7069513035407
0.00211578661159386,16.7112017973787
0.00231507108214415,16.7157137020405
0.00254311690825506,16.7207311593136
0.00276846377621992,16.7256312214591
0.00300106746862003,16.730660420985
0.00319619879592668,16.7348327223633
0.00337919026864361,16.7386949511608
0.00355954829218936,16.7424348794085
0.00374227593174595,16.7461404907957
0.00393095475496382,16.7498666661431
0.00412867018388193,16.7536541679759
0.00433838644032995,16.7575366161929
0.0045631853401062,16.7615443438054
0.004806452556054,16.7657068149098
0.0050720403324611,16.7700540299675
0.00536447589304047,16.7746177179302
0.00568929624464596,16.7794326448454
0.00605361185731642,16.7845379691656
0.00644757005378296,16.7897277241605
0.00686057341362764,16.7948185984596
0.00729883015289388,16.799850614596
0.00776465144901872,16.8048040991488
0.00826330727305311,16.8096863411374
0.00880052509792044,16.8145008781425
0.00938290978930711,16.8192517132833
0.0100176866955606,16.8239404272198
0.0107157908075177,16.8285858499396
0.0115011205121625,16.8332664684152
0.0123890403693602,16.8379759460388
0.0134029891378017,16.8427330339656
0.0145763907603207,16.8475752634609
0.0159660201633866,16.8525934780919
0.017698503226521,16.8580415413243
0.0201157173480859,16.8646355774728
0.0216978977388631,16.8685684360816
0.0233310090918378,16.8725012946905
0.0247594634918285,16.8759973937231
0.0259641771856133,16.8791657496152
0.0269649173183512,16.8821921033768
0.0277242261700821,16.8850984930367
0.0282188475816976,16.887909710938
0.0284415594329773,16.8907500641415
0.0283500278375278,16.8937963650774
0.027783898177776,16.8975088901467
0.0269664916009221,16.9006085080581
0.0258904228162812,16.9037081259695
0.024811603201249,16.9063568374993
0.0237429708215645,16.9087534915456
0.022674988291809,16.9110234967558
0.0216076001845742,16.9132241129951
0.0205438242278905,16.9153869855132
0.0194872781917058,16.9175326978345
0.0184415296813023,16.9196760928092
0.0174099211019044,16.9218286724571
0.0163955217445947,16.9239998727538
0.0154011258481253,16.926197804123
0.0144292584542893,16.9284297320085
0.0134821872342597,16.9307024017565
0.0125619354735902,16.9330222732001
0.0116702880557957,16.9353957189851
0.0108088032200641,16.9378291777461
0.00997882472782831,16.9403292868761
0.00918148399819432,16.9429030383459
0.00840852021683719,16.9455911388249
0.0076482918356841,16.9484590280438
0.00690455750933117,16.9515274552593
0.00618110440863313,16.9548211138294
0.00548193139883911,16.9583685655704
0.00481121395725774,16.9622029651445
0.0041732336602806,16.9663630377403
0.00357226155244244,16.9708945061746
0.00301237185622154,16.9758524988622
0.00249718639577335,16.9813058827939
0.0020296116118352,16.98734478223
0.00161177505603041,16.9940910685956
0.00125997350134545,17.0013620955399
0.000968576898643296,17.009242849325
0.000742196456293743,17.0178686472417
0.000606133690153576,17.0253362321154
0.000479915075872043,17.0349565912299
0.000393157938135034,17.0447128877995
0.000335349242700429,17.0547128877995
0.000300917736708793,17.0647128877995
0.000283965448725488,17.0747128877995
0.000280340313677968,17.0847128877995
0.000287325093684063,17.0947128877995
0.000303388518316095,17.1047128877995
0.000327975772406961,17.1147128877995
0.000361384545213121,17.1247128877995
0.000404761984638509,17.1347128877995
0.000459624596540872,17.1446103743017
0.000523712241593959,17.1537389036694
0.000597575267549371,17.1621366727914
0.000682241139848512,17.169864488656
0.000779028900651765,17.1769788178653
0.000889505677478194,17.183531348367
0.00101548311438672,17.1895695036812
0.00115903356288712,17.1951368934926
0.00132251718931801,17.2002736811436
0.00150861672556878,17.2050169003988
0.00172037983876559,17.2094007458
0.00196127188367565,17.2134568418175
0.00223524053694581,17.2172144864633
0.00254679536844232,17.2207008810534
0.00290111102840747,17.2239413641372
0.00330415994401066,17.226959654362
0.00376289022830147,17.2297781063139
0.00428547105525372,17.2324180065762
0.00488164370582917,17.234899941759
0.00556324771719549,17.2372442881354
0.00632051407512505,17.2394079740278
0.00716016302206628,17.2414178487486
0.00809663497618798,17.2433113515322
0.0091525973115152,17.2451284168663
0.0103683274697542,17.2469204801445
0.0118431932111566,17.2487909570018
0.0140206930022097,17.2511533353411
0.0155610261636011,17.2526436464228
0.0171941426394066,17.2541339575044
0.0186860951312989,17.2554667399596
0.0200126257156384,17.2566750569897
0.0212002229256577,17.2578254269133
0.0222490063206771,17.2589617653189
0.0231416523755769,17.2601233940249
0.0238428912253883,17.2613606309397
0.0242827536706959,17.2627663829646
0.0242546515820138,17.2646468843064
0.0236803839902512,17.2663156982501
0.0226842917678652,17.2679845121938
0.0215561560775832,17.2694420109648
0.0202960802182085,17.2708659758535
0.0189078795457955,17.2723240411346
0.0174007646965728,17.2738556084621
0.0162535873763554,17.2750166890652
0.0151333863743985,17.2761777696683
0.0140463634339093,17.2773658000013
0.0117002912025734,17.2801984189476
0.0097706791342707,17.2828967186029
0.00820868194416383,17.2854266453737
0.00693443845769428,17.2878083342108
0.00588392390633634,17.2900636669191
0.00500706274507389,17.2922156905498
0.00426441498661614,17.2942904480744
0.00362399658727157,17.2963207827063
0.00305781622184416,17.2983554704824
0.00253577539892012,17.3004880459836
0.00199935374898497,17.3030140435226
0.00166607988992285,17.3048038175747
0.00136668317382439,17.3065935916269
0.00112606810417856,17.3081833630206
0.000923752186760815,17.3096446360244
0.000740127434332275,17.3110864281492
0.000563170406806864,17.3125970047643
0.000380653090585602,17.3143006570556
0.000166867266930374,17.3165203007196
-0.000145327793027172,17.320310767978
-0.000389136165033601,17.3238740418516
-0.000580118029278337,17.3271646560733
-0.000763671393895755,17.3308750845327
-0.00098250482669661,17.3362523809941
-0.0011612161546195,17.3418381661469
-0.00128234182192343,17.3469329898074
-0.00134989691833773,17.3515130062126
-0.00136425656321772,17.3556152660176
-0.00132330811450057,17.3592849137388
-0.00122362199840389,17.3625809105584
-0.00106088752926286,17.3655592856552
-0.00082885844327098,17.3682871217402
-0.000517784638929777,17.3708348920072
-0.000109805495436255,17.3732898878298
0.000436959685458511,17.3757994830492
0.00119119650773443,17.3785251804134
0.00196802344354588,17.3808756610112
0.0028373699169964,17.3832261416091
0.00370910079814332,17.3854250505141
0.00479635597983151,17.3880301003207
0.0057335157038059,17.3901496282329
0.00674396147502161,17.3922691561451
0.0077044863212862,17.3940918730748
0.00875178780552877,17.395858673201
0.00988160204462294,17.3975260521448
0.0111585227210881,17.3991572612278
0.0125957987708936,17.4007341581992
0.0142311844986026,17.4022688257337
0.0160733499208033,17.4037446616295
0.0181574150738341,17.4051700206411
0.0205067687789246,17.4065424998224
0.0231468564136148,17.4078614160849
0.0261041006762837,17.4091265851991
0.0294201486116322,17.4103432177481
0.0331378209506451,17.4115143389546
0.0373070664175919,17.4126432002755
0.0419855035578642,17.413732984509
0.0472428245877784,17.4147873932108
0.0531607028978931,17.4158099997275
0.0598361520268389,17.4168044259274
0.0673856319457066,17.4177744343135
0.0759502176013353,17.4187239857177
0.0857037667635709,17.4196574297726
0.0968631090083117,17.4205795958809
0.109704137917957,17.4214960594969
0.124586338292799,17.4224135178782
0.141992545764497,17.4233404060296
0.162599818609181,17.4242880706118
0.186773504359558,17.4252492923801
0.214783925123859,17.4262166437276
0.247383554831392,17.4272011439994
0.285613972084226,17.4282196912613
0.331190880411256,17.4293051116776
0.367186043631623,17.4300998051308
0.404481319643894,17.430894498584
0.437577279625231,17.4316004452236
0.466527904127642,17.4322444615032
0.491823335312353,17.4328589257811
0.513427713107312,17.4334678307932
0.530851259207911,17.4340944958817
0.54298276279257,17.4347700422217
0.547293220811927,17.4355508594768
0.54042306977804,17.4363457138861
0.52125100180607,17.4371740845374
0.488095261212245,17.4380520548444
0.438835827670513,17.4389907253439
0.375593172331557,17.4399389236887
0.330891795959908,17.4405199907941
0.282596805455906,17.4411010578996
0.239729485121189,17.441594502592
0.202772861289311,17.442014509945
0.170179542183399,17.4423888744085
0.140926623700979,17.4427347911907
0.114375320198027,17.443063317244
0.0900695795150293,17.4433828858897
0.067616946410797,17.4437015596344
0.046567408975458,17.444029864539
0.0260834412452252,17.4443894120511
0.00906130003825808,17.4447326610631
-3.45320443055213e-05,17.4449396372404
-0.00828775379441095,17.4451466134178
-0.0148547504925355,17.4453278939795
-0.0208852451490334,17.4455107613635
-0.0269547722822312,17.4457149449927
-0.0328134831528388,17.4459369205195
-0.0383016656655135,17.4461745443415
-0.0433305858492368,17.4464270590075
-0.0478540532368604,17.4466946291952
-0.0518515414994637,17.4469780825022
-0.0553179125264044,17.4472787858011
-0.0584427696534633,17.4476232152585
-0.0607853212387788,17.4479634600347
-0.0626203219271586,17.4483277667721
-0.0639651166873924,17.4487201188457
-0.0648337335070815,17.4491450421634
-0.0652379085171522,17.4496081895771
-0.0651853776812424,17.4501167383209
-0.0646776273183206,17.4506800363264
-0.0637039811262824,17.4513120585175
-0.0622377901532535,17.4520310935564
-0.0602245214593887,17.4528650554548
-0.0575494833962306,17.4538628223828
-0.0539113025687967,17.4551385874132
-0.0498044717021585,17.4565402953326
-0.045828024382481,17.4578970530666
-0.0420318310974694,17.4592135067395
-0.0384405212306779,17.4604918389196
-0.0350668885725357,17.4617328079583
-0.0319167721990677,17.4629364547096
-0.0289912468543116,17.464102478626
-0.0262878081544285,17.4652304358769
-0.0238011554594189,17.4663198414542
-0.0215238016377525,17.4673702171991
-0.0194465968720273,17.4683811075832
-0.0175591967464229,17.4693520749985
-0.0158504824784013,17.4702826810389
-0.0142671410905851,17.4711973382212
-0.0127422790133422,17.4721353351174
-0.0112806069254994,17.4730981017215
-0.00988608918108885,17.4740876950755
-0.00856250458531443,17.4751065245946
-0.00731339236886659,17.4761574415114
-0.00614200058912502,17.4772438527941
-0.00505123223296935,17.4783698740574
-0.00404358900737838,17.4795405394587
-0.00312111238944485,17.480762097536
-0.00228532086820371,17.4820424414489
-0.00153714119192461,17.4833917587212
-0.000876829348937879,17.4848235589727
-0.000303872778427629,17.4863563972867
0.000173718963821545,17.4879803038465
0.00054891713364725,17.4896485481195
0.000838396270551936,17.4913794223951
0.00105686800229638,17.4931934555194
0.00121810445949258,17.4951179209339
0.0013353337010419,17.4971911596612
0.00142182266815147,17.4994715023642
0.00149195298256854,17.5020585644588
0.00156409540961205,17.5051596227378
0.00165886662538254,17.508892753308
0.00178061197172303,17.5128298608454
0.00193750040820637,17.5170808202348
0.00211363170415041,17.5213292800971
0.00231242118831084,17.525831357354
0.00254066681440251,17.5308546145357
0.00276597377410158,17.5357549675511
0.00299871813732632,17.5407887130381
0.0031942125923167,17.5449702304931
0.00337732078051961,17.5488363236354
0.00355767793746612,17.5525776898297
0.00374033236932943,17.5562833681953
0.00392888163795467,17.5600086628283
0.00412641630220677,17.563794534083
0.00433590082403766,17.5676747046742
0.00456041341729616,17.5716795439935
0.00480333360169997,17.5758385191545
0.00506850453117122,17.580181606411
0.00536044006842127,17.584740486477
0.00568465608495373,17.5895498466135
0.00604822915209233,17.5946487437486
0.00644206082217644,17.5998412948998
0.00685470820916907,17.6049323377403
0.00729264854397923,17.6099656492122
0.00775806979230589,17.6149201628708
0.00825625215009292,17.6198034275149
0.00879290164507666,17.6246188795011
0.00937461622379121,17.6293705742164
0.0100086123950081,17.6340601241702
0.010705594488065,17.638705011735
0.0114896205594993,17.6433852865234
0.0123759520071552,17.648094224838
0.0133879344351166,17.6528504467124
0.0145587872719831,17.6576910310296
0.0159447840567241,17.6627056600383
0.0176707706747011,17.6681440317248
0.0200876542836283,17.6747478978444
0.0216732983347639,17.6786927843325
0.0233111559893342,17.6826376708206
0.0247429767081724,17.6861401058532
0.0259503316040192,17.6893113223246
0.0269536589327275,17.6923385657206
0.0277163567584031,17.6952469111277
0.0282143214180503,17.6980586039441
0.0284406286686962,17.7008976847384
0.0283536128429489,17.7039396753459
0.0277961572433693,17.7076365075765
0.0269804112452612,17.7107478444418
0.0259032008924185,17.713859181307
0.0248239001809393,17.7165126781991
0.0237552068239886,17.7189113538533
0.0226872255975135,17.7211824077301
0.0216198155872819,17.723383605354
0.0205559781260369,17.7255467754041
0.0194993292460884,17.72769258902
0.018453438556453,17.7298359377097
0.0174216514277826,17.7319883529485
0.0164070403319387,17.734159289294
0.015412402664597,17.7363568690134
0.0144402664314048,17.7385883651106
0.0134929022328439,17.7408605271057
0.0125723361026473,17.743179816715
0.0116803555473091,17.7455526065159
0.0108185214326243,17.7479853330276
0.00998817988516258,17.7504846303221
0.00919046471322919,17.753057485035
0.00841737626695325,17.7557436312671
0.00765698017873742,17.7586093493627
0.00691303623229195,17.7616753419421
0.00618932896920365,17.7649662620477
0.00548985502804435,17.7685106232912
0.0048187882564246,17.7723415225499
0.00418040957574696,17.776497614455
0.00357899107621978,17.7810245309218
0.00301861060918947,17.7859772734963
0.00250289700526847,17.7914245154544
0.00203476584987,17.7974560845107
0.00161635292372381,17.8041934251145
0.00126381254988119,17.8114579047226
0.000971752816239456,17.8193307945315
0.0007445998808947,17.8279469306805
0.000606667500445087,17.8354913904927
0.000480808255046979,17.8450673338461
0.000393688278023151,17.8548365520335
0.000335727024421776,17.8648365520335
0.000301190681317366,17.8748365520335
0.0002841675947744,17.8848365520335
0.000280496565231812,17.8948365520335
0.000287453811503222,17.9048365520335
0.000303503465319352,17.9148365520335
0.000328087750021925,17.9248365520335
0.000361502777737911,17.9348365520335
0.000404895325731088,17.9448365520335
0.00045977821682812,17.954733351238
0.00052389196399242,17.9638611631693
0.000597786822124626,17.9722582203055
0.000682490498819717,17.9799853386085
0.000779322517906107,17.9870989910048
0.000889850679753045,17.9936508704105
0.00101588747509749,17.9996884042643
0.00115950627151357,18.0052552053286
0.00132306842990158,18.01039143935
0.0015092580719285,18.0151341419931
0.00172112448397962,18.0195175093412
0.00196213491029864,18.0235731671759
0.00223623925282708,18.0273304147083
0.00254794972606575,18.0308164544926
0.00290244416987921,18.0340566265311
0.00330569892727275,18.0370746513467
0.00376466701990147,18.0398928861151
0.00428752394762062,18.0425326211613
0.00488401942034901,18.0450144486669
0.00556600468164596,18.0473587534461
0.00632359985087104,18.0495221790085
0.00716363811657729,18.0515319412948
0.00810059698484997,18.0534255064267
0.00915721215572374,18.0552428634462
0.0103739251716419,18.0570355976288
0.0118509575294355,18.0589079990294
0.0140365330619985,18.061277797687
0.0155754637898296,18.0627661711162
0.0172063434728791,18.0642545445454
0.0186957569464964,18.0655857554789
0.0200203319972721,18.066793444092
0.0212061271962753,18.0679437154253
0.0222530321509927,18.0690803524059
0.0231435595168899,18.070242711974
0.0238422113086472,18.0714813379384
0.0242784505210155,18.0728899478874
0.0242422927318739,18.074780388514
0.0236639568658891,18.0764426733907
0.0226685142223337,18.0781049582674
0.0215399317916361,18.0795613826016
0.0202790970612811,18.0809855325208
0.0188902257198186,18.0824441496571
0.0173825653941774,18.0839765171044
0.0162515846481487,18.0851215256349
0.0151466580500748,18.0862665341655
0.0140737969014622,18.0874378680849
0.0117227890747126,18.0902721509794
0.00978875874394172,18.0929724572279
0.0082232909722968,18.0955041480774
0.00694634998634424,18.097887338486
0.00589374592600164,18.1001438988856
0.00501527368007719,18.102296846945
0.00427139945677034,18.104372161207
0.00363008188293458,18.1064025449364
0.00306332227986055,18.1084364371297
0.00254114453014409,18.1105663132023
0.0020060306261794,18.1130812558265
0.00167065486159007,18.1148785988976
0.00136950695348216,18.1166759419687
0.00112808574225147,18.1182689829349
0.000925417798900631,18.1197310809784
0.000741644250304949,18.1211723534889
0.000564691722095082,18.1226810120248
0.000382392298920073,18.1243802040162
0.000169498727166707,18.1265863690167
-0.000143447947076674,18.1303774039163
-0.000388718013882662,18.1339552067469
-0.000580597896225787,18.1372568242236
-0.000764630407572707,18.1409729092152
-0.000984063889332311,18.1463595583241
-0.00116299134426326,18.1519455319807
-0.00128433463898859,18.1570400659657
-0.00135212211433701,18.1616203019911
-0.00136670344859864,18.1657227209551
-0.00132595822497289,18.1693924450622
-0.00122645223197752,18.1726884649927
-0.00106386919830133,18.1756668644038
-0.000831962182536323,18.1783946992388
-0.000520999057601712,18.180942318037
-0.000113144757132964,18.1833969827867
0.000433339546779318,18.1859055982912
0.00118740497998627,18.1886309216171
0.00196403596787824,18.1909809180425
0.0028331803012572,18.193330914468
0.00370458090315711,18.1955290767361
0.00479072741479691,18.1981317644272
0.00572669301314076,18.2002492208565
0.00673555257461969,18.2023666772857
0.00769586210513956,18.204190498803
0.0087427468797628,18.205958298441
0.00987171893147977,18.2076262028746
0.0111474822910184,18.209257797423
0.0125834142641924,18.2108351131132
0.0142172981808642,18.2123702662609
0.0160577091571966,18.2138465457334
0.0181398395829935,18.215272381136
0.0204870431831915,18.2166453399675
0.0231247505849647,18.2179647325118
0.0260792611043127,18.21923032565
0.0293922224188864,18.2204473552113
0.0331064012936146,18.2216188449409
0.0372716805832282,18.2227480452552
0.0419456049928982,18.2238381393483
0.0471977648336116,18.2248928271161
0.0531097180937062,18.2259156819608
0.0597783319199757,18.2269103248688
0.0673198802883643,18.2278805168017
0.0758751981350348,18.2288302161845
0.0856178250796832,18.2297637689427
0.0967641610096207,18.2306859990488
0.109589500720662,18.2316024738718
0.124452463326059,18.2325198783754
0.14183456908633,18.2334466279713
0.162410723304552,18.2343940353817
0.186554308756549,18.2353552293823
0.214528993028889,18.2363224710637
0.247085401219875,18.2373067448084
0.285261597989168,18.2383248706331
0.330763652784188,18.2394094380699
0.366798682321336,18.240205449518
0.404150138140403,18.2410014609661
0.437292443301507,18.2417082241222
0.46628008272851,18.2423526460447
0.491610412518935,18.2429672579817
0.513252158252086,18.2435760972814
0.530720153589922,18.2442024553353
0.542911197440436,18.2448773208816
0.547316450561154,18.2456580983437
0.540548336134299,18.2464527336548
0.521490392253315,18.2472807287964
0.488465490682817,18.2481582065468
0.439356055385313,18.2490963154517
0.376168370354411,18.2500453272774
0.331411464316059,18.2506277524957
0.283032750844064,18.2512101777141
0.240096068997458,18.2517045357239
0.2030919257216,18.2521250758397
0.170463801751083,18.2524997643143
0.141183393610007,18.2528458826031
0.114609429571856,18.2531745251598
0.0902847795915079,18.2534941384362
0.0678168616306492,18.2538127782706
0.0467570155195501,18.254140926885
0.0262749932358958,18.2544999952929
0.00911948927509903,18.2548455813369
1.56045050491923e-06,18.2550529614208
-0.00827031097640282,18.2552603415047
-0.0148401305351328,18.2554416623266
-0.0208702359255167,18.2556244781203
-0.026940009968401,18.2558286188512
-0.0327994099491978,18.25605055785
-0.0382885311306661,18.256288147918
-0.0433185235672563,18.2565406292466
-0.0478431275132392,18.2568081649009
-0.051841774452095,18.2570915812398
-0.0553093184224751,18.2573922440551
-0.0584353484963481,18.2577366138858
-0.0607790466571991,18.2580768066098
-0.0626151600774982,18.2584410541704
-0.0639610343967621,18.2588333381388
-0.064830701137668,18.2592581822795
-0.0652359034655873,18.2597212366153
-0.0651843885294549,18.2602296745045
-0.0646776631847806,18.2607928353554
-0.0637050805002127,18.2614246873364
-0.0622400354921213,18.2621435041358
-0.0602280788568085,18.2629771709346
-0.0575547203434409,18.2639744957792
-0.0539193661237734,18.2652493994439
-0.04981232738228,18.266651228036
-0.0458355219735747,18.2680080859303
-0.0420388908824179,18.2693246325208
-0.0384471008215085,18.2706030548806
-0.0350729660105513,18.2718441136077
-0.0319223387834102,18.2730478506421
-0.028996303576081,18.2742139659124
-0.0262923635292783,18.2753420157462
-0.023805223938076,18.2764315151373
-0.0215274022792079,18.2774819858655
-0.0194497521640332,18.2784929723366
-0.0175619315408737,18.2794640369094
-0.0158528230367987,18.2803947412067
-0.0142693692707509,18.2813093427583
-0.0127443824765389,18.2822472814098
-0.0112825762128195,18.2832099851225
-0.00988791524547341,18.2841995101711
-0.00856417893607244,18.2852182650071
-0.0073149072021991,18.2862690996581
-0.00614334892656102,18.287355419568
-0.00505240806767054,18.2884813383933
-0.00404458745986636,18.289651887731
-0.00312192987574769,18.290873312698
-0.00228595528639317,18.2921535017606
-0.00153759213797142,18.2935026357893
-0.000877098382391941,18.294934214574
-0.000303963778584335,18.2964667778729
0.000173862548931961,18.2980905978899
0.0005492514412244,18.299758711662
0.000838883884737643,18.3014894118707
0.00105747383606473,18.3033032143347
0.00121879486576253,18.3052273721657
0.00133607518910688,18.3073001915612
0.00142257983993687,18.3095799370856
0.00149268415441369,18.312166076518
0.00156473879369581,18.3152654432068
0.00165941199973325,18.3189985496507
0.00178101054699037,18.3229346672625
0.00193781441780414,18.3271863794418
0.00211382983821224,18.331434228882
0.00231240906769456,18.3359333146491
0.00254066416606399,18.3409583914825
0.00276591649215887,18.345858858314
0.00299852413691746,18.3508909181097
0.00319411064839218,18.3550755208791
0.00337723558127621,18.3589429569698
0.003557571738741,18.3626848303601
0.00374018224530391,18.3663905438425
0.00392866994759872,18.3701155490548
0.00412612710576257,18.373900875243
0.00433551825157738,18.3777802801823
0.00455992049357809,18.3817841467741
0.00480271142947155,18.3859419438961
0.0050677313718773,18.3902836403088
0.005359490006184,18.3948409012052
0.00568349654295041,18.3996483882059
0.00604681678245351,18.4047451250766
0.00644060167018428,18.409938560131
0.006853130147278,18.4150296259679
0.00729096782996934,18.4200633355578
0.00775626185502509,18.4250181604327
0.00825429578693161,18.4299017343838
0.00879076872261332,18.434717459982
0.00937227651483408,18.4394694091767
0.0100060330569061,18.4441592047779
0.0107026745387341,18.4488039311037
0.0114863061418173,18.4534841013506
0.012372158778132,18.4581928774105
0.0133835505088859,18.4629488408702
0.0145536402965056,18.4677889370232
0.015938553719314,18.4728025055994
0.017662613821683,18.4782380214923
0.0200793910924125,18.4848448152175
0.0216660666236969,18.4887932998368
0.0233053382062655,18.4927417844561
0.0247381606837004,18.4962461082779
0.0259462995266252,18.49941817703
0.0269503927136921,18.5024456880321
0.0277140929737412,18.5053546157375
0.0282130454305144,18.5081664531074
0.0284404136173922,18.5110051635651
0.0283547275900171,18.5140458928575
0.0277998089524129,18.517738156985
0.026984551020546,18.5208529675917
0.0259069973496726,18.5239677781985
0.0248275522989072,18.5266226857397
0.0237588400629336,18.5290219548642
0.0226908586378177,18.5312933164332
0.0216234417407823,18.533494685029
0.0205595858530915,18.5356579431742
0.0195029064834326,18.5378037876944
0.0184569738201939,18.539947124364
0.0174251340956576,18.5420994933094
0.0164104607078738,18.5442703545638
0.015415751971701,18.5464678339088
0.0144435367558106,18.5486992066218
0.0134960865153335,18.5509712235174
0.0125754280829431,18.5532903469616
0.011683349731061,18.5556629496258
0.0108214130939485,18.5580954675478
0.00999096498805875,18.5605945340084
0.00919313992367561,18.5631671342922
0.00842001590535383,18.565852714172
0.00765957184505611,18.5687178032604
0.00691556789611387,18.5717830906447
0.00619178785856521,18.5750732177821
0.00549222775335107,18.5786166844538
0.00482106099082148,18.5824465710052
0.00418256834816906,18.5866015119505
0.00358102227917493,18.5911271133842
0.00302050177271862,18.5960783408988
0.00250463780867602,18.6015238129905
0.00203634879843316,18.607553273708
0.0016177731677201,18.6142880478031
0.00126502546084011,18.6215506339783
0.000972781836404239,18.6294212480212
0.00074543215445917,18.6380345864334
0.000607070194795703,18.6455955051778
0.000481284046103338,18.6551606276016
0.000394082437588828,18.6649317622458
0.000336089574349064,18.6749317622458
0.000301544671877778,18.6849317622458
0.000284532091372763,18.6949317622458
0.00028088864714519,18.7049317622458
0.000287890189923869,18.7149317622458
0.000304002110568265,18.7249317622458
0.000328669747316187,18.7349317622458
0.000362194674395242,18.7449317622458
0.000405732407361741,18.7549317622458
0.000460744062911811,18.7648182561875
0.000525000826076242,18.7739361465676
0.000599058012604187,18.7823240380509
0.000683946878808443,18.7900427054037
0.000780990278236544,18.7971485699435
0.000891759527123019,18.8036932777893
0.00101807105744706,18.8097242140574
0.00116200270976768,18.8152849528915
0.00132592095581125,18.820415624471
0.00151251573780725,18.8251532318157
0.00172484305468495,18.8295319411973
0.00196637789019525,18.833583351339
0.0022410792017594,18.8373367369979
0.0025534698674317,18.8408192790577
0.00290874048884428,18.8440562989622
0.0033128829550936,18.8470715021576
0.00377286957568614,18.8498872348989
0.00429690046110059,18.8525247819832
0.00489475775074579,18.8550047374383
0.00557833715396582,18.8573474987662
0.00633729464230941,18.8595085510324
0.00717891078768749,18.8615165663424
0.00811778999550586,18.8634090684002
0.00917689631331075,18.8652261875127
0.0103972160853715,18.867019954315
0.0118820368641004,18.8688977297107
0.0140954383235011,18.871290954296
0.0156304701316156,18.8727722275741
0.0172547890541876,18.8742535008522
0.0187368596875897,18.8755790973173
0.0200558808540881,18.8767842620289
0.0212365477451467,18.8779337538522
0.0222780177716899,18.8790709253083
0.0231622665213627,18.8802352491483
0.0238530305555627,18.8814780203231
0.0242778407987017,18.882895691163
0.0242147799020538,18.8848197516574
0.0236223968372627,18.8864616716842
0.0226274033179069,18.888103591711
0.0214963582982132,18.8895562392561
0.0202321481284526,18.8909807701896
0.0188401302401421,18.8924411531739
0.0173296383086267,18.8939762959232
0.0162486131924678,18.8950711856718
0.0151910883344332,18.8961660754205
0.0141532662733561,18.8972955424014
0.0117975158247343,18.9001222329185
0.00984985168716258,18.9028276430083
0.00827333369245246,18.9053642061029
0.00698768929930607,18.907751639345
0.00592823895573041,18.9100117932519
0.00504438026451186,18.9121676369752
0.00429627965236582,18.9142450320696
0.00365169258385661,18.9162764095298
0.00308253379518179,18.918309537917
0.0025590063386703,18.9204347770739
0.00202547486704851,18.9229285002209
0.00168505483662597,18.9247426147331
0.0013796969562995,18.9265567292453
0.00113621445403968,18.9281572215065
0.000932512442884956,18.929621619951
0.000748163641215614,18.9310624497943
0.00057096883248947,18.9325678934803
0.000388859379163982,18.9342589230982
0.00017744504678641,18.9364396998613
-0.000137378063064586,18.9402341691889
-0.000385992842595046,18.9438462109233
-0.000580045382469103,18.9471771078744
-0.000765357302341252,18.95091414503
-0.00098666287424241,18.9563462612233
-0.00116532876882174,18.9619294221838
-0.00128638464907744,18.9670189509714
-0.00135388461128049,18.9715943539289
-0.00136814974875162,18.9756925570638
-0.00132703787603444,18.9793585599298
-0.00122710652047881,18.9826513225178
-0.00106401449305632,18.9856272782452
-0.000831492796567365,18.9883533278112
-0.000519811042093018,18.990899537326
-0.000111055938943744,18.9933535093919
0.000436581697356418,18.99586205642
0.00119248402871235,18.9985892572026
0.00196871658812082,19.0009353557277
0.00283687533478459,19.0032814542527
0.00370877418376008,19.0054804146485
0.00479877610666159,19.0080916245345
0.00573131319767955,19.0102004576498
0.0067363301500006,19.0123092907651
0.00769762092892302,19.0141345238595
0.00874499934873225,19.0159025156572
0.00987473114337241,19.0175708128017
0.0111509411130949,19.0192022058076
0.0125875426158491,19.0207795029271
0.014222200539281,19.0223146471706
0.0160632908728552,19.0237907756755
0.0181461868355381,19.025216485172
0.020494241720862,19.026589335309
0.0231331311047393,19.0279087485094
0.0260886271742666,19.0291742278679
0.0294026470006382,19.0303911479605
0.0331179888780696,19.0315625382995
0.0372845595172344,19.0326916498722
0.0419599959763699,19.0337816806493
0.047213828457574,19.0348363074101
0.053127685503231,19.0358591115971
0.0597984867632142,19.0368537151042
0.0673425718499757,19.0378238798444
0.0759008699903692,19.0387735664894
0.0856470260903515,19.0397071216322
0.0967976043254027,19.0406293725358
0.109628130285505,19.0415458908474
0.124497567778278,19.0424633680391
0.141887983184443,19.0433902300535
0.162475206812477,19.0443378075207
0.186628873933602,19.0452990682935
0.214615681861308,19.0462664164099
0.24718704220758,19.0472508543044
0.285382533021783,19.0482692392655
0.330912339181482,19.0493542668365
0.366928511456907,19.0501498178365
0.404254194498168,19.0509453688365
0.437375172238541,19.0516518721028
0.466345602575064,19.0522961968234
0.491659675478297,19.0529108104823
0.513284177955483,19.0535197316288
0.530732079061763,19.0541462610478
0.542897063609044,19.0548214343132
0.547262721900648,19.0556022756926
0.54045276104807,19.0563970378864
0.521348855906198,19.0572252104375
0.488272327563257,19.0581028961513
0.439105210382424,19.0590412207582
0.375895245035354,19.0599899442993
0.331167273599752,19.0605717629246
0.282830060705342,19.0611535815498
0.239927349601778,19.0616475362472
0.202946539353358,19.0620678456266
0.170335558482481,19.0624423972963
0.141068712939357,19.0627884334285
0.11450594573492,19.0631170314398
0.090190674079824,19.063436631728
0.067730427184732,19.0637552927989
0.0466760142800665,19.0640835155793
0.0261941424088548,19.0644427967803
0.00909675178109211,19.0647873857093
-1.13345302589008e-05,19.0649945978381
-0.00827488191413301,19.0652018099668
-0.0148433667721053,19.0653831218837
-0.0208735054954873,19.065565967873
-0.0269430124447423,19.0657701353742
-0.0328019423752171,19.0659920987032
-0.038290483321971,19.0662297122165
-0.0433198417758582,19.0664822171618
-0.0478437917267707,19.0667497773467
-0.0518417851534725,19.0670332197213
-0.0553086664528459,19.0673339106074
-0.0584341036470876,19.0676783289735
-0.0607771488150301,19.0680185572282
-0.0626126357663633,19.0683828441925
-0.0639579099862199,19.0687751724831
-0.0648270006494472,19.0692000669524
-0.0652316469335942,19.0696631790371
-0.0651795901454182,19.0701716840036
-0.0646723268333901,19.0707349255778
-0.0636991960364792,19.0713668750757
-0.062233572776917,19.0720858132964
-0.0602209704777632,19.0729196389553
-0.0575468095867139,19.0739171926933
-0.0539101480994841,19.0751925207516
-0.049803357383562,19.0765942766031
-0.0458268834779309,19.0779510703868
-0.0420306289089769,19.0792675549544
-0.0384392392073046,19.0805459154235
-0.0350655164044006,19.0817869114883
-0.0319153044710987,19.0829905847179
-0.0289896814428834,19.0841566349435
-0.0262861453295894,19.0852846185302
-0.0237993972977119,19.0863740505671
-0.0215219515807567,19.0874244529418
-0.0194446593618332,19.0884353701499
-0.0175571769121169,19.0894063646035
-0.0158483858625669,19.0903369979249
-0.0142650443376552,19.0912516400489
-0.0127401792107033,19.0921896211529
-0.0112785019745053,19.0931523706751
-0.00988397713334995,19.0941419454498
-0.00856038368809462,19.09516075463
-0.00731126110850682,19.09621164912
-0.00613985773919638,19.0972980354715
-0.0050490769076758,19.0984240287638
-0.00404142072175436,19.0995946624532
-0.00311893112875037,19.1008161841409
-0.002283127170675,19.1020964857005
-0.00153493625214007,19.1034457528318
-0.000874615154654336,19.1048774924598
-0.000301652305513283,19.1064102554649
0.000175959805170131,19.1080341385214
0.000551166270316835,19.1097023472232
0.000840643040142649,19.1114331739803
0.00105910202133405,19.1132471440737
0.00122031528615625,19.1151715253781
0.00133751032712079,19.1172446493758
0.00142395266528282,19.1195248286165
0.00149402069567468,19.122111638046
0.00156607655302226,19.125212232843
0.00166075077495116,19.1289453571507
0.00178238785755502,19.1328821938222
0.00193916599634277,19.1371328451862
0.00211521973067967,19.1413815104602
0.00231397833129635,19.1458846338269
0.00254212308234169,19.150907251741
0.00276736827915432,19.1558075664131
0.00300008836134483,19.1608419067159
0.00319549794773514,19.1650223571206
0.003378556477101,19.168887990792
0.0035588829382325,19.1726291902263
0.0037415192453113,19.176334868226
0.00393006059745284,19.1800602778261
0.00412759680358192,19.1838463558498
0.00433709238819698,19.1877268134117
0.00456162623735703,19.1917320159633
0.00480457903030831,19.1958914309934
0.00506979563521202,19.2002350386168
0.00536179239668368,19.2047945265505
0.00568608894766618,19.209604593077
0.00604976765213801,19.2147043093043
0.0064436229384179,19.219896353032
0.00685633410566794,19.2249872794148
0.00729433946816484,19.2300203191152
0.0077598447545273,19.2349746048407
0.00825812879023919,19.2398576438236
0.00879490115239979,19.2446728850972
0.00937676149824362,19.2494243751945
0.0100109285522458,19.2541137214695
0.0107081615169048,19.2587587286512
0.0114924804719254,19.2634390767929
0.0123791712777452,19.2681481345778
0.0133916013188217,19.2729045526835
0.0145630376196502,19.2777455152198
0.0159498699614828,19.2827609736763
0.0176773555637546,19.2882015891416
0.0200943064868436,19.2948031612517
0.0216791357891944,19.2987452356907
0.0233158796546881,19.3026873101297
0.0247469193075448,19.3061882670807
0.0259536634051726,19.3093588168778
0.0269563915649479,19.3123858524625
0.0277183026057269,19.3152937419345
0.0282154907368095,19.3181053231016
0.0284409628187247,19.3209446978512
0.0283528987036248,19.3239876857568
0.0277934373057038,19.3276881358334
0.0269773052290296,19.3307967432643
0.0259003618151402,19.3339053506952
0.0248211727469261,19.3365577372164
0.0237524927629379,19.3389559455326
0.0226845103144025,19.3412267576464
0.0216171044088393,19.3434278216907
0.0205532801912194,19.3455909238906
0.0194966541004027,19.3477367151474
0.018450795284081,19.3498800757541
0.0174190484294865,19.3520325304177
0.0164044852745484,19.3542035294511
0.0154099024877976,19.3564011924419
0.0144378273915931,19.3586327907185
0.0134905299120418,19.3609050729219
0.0125700354518643,19.3632245004346
0.011678130914673,19.3655974459782
0.0108163765643954,19.3680303467148
0.00998611798782932,19.3705298376731
0.00918848844906138,19.3731029069567
0.00841542973839511,19.3757895071929
0.00765507353137951,19.3786557299266
0.006911179407458,19.381722288605
0.0061875325567205,19.3850138457692
0.00548813018219042,19.3885589264328
0.00481714657072045,19.3923906412067
0.00417886287474503,19.3965476615911
0.00357755104675311,19.401075641357
0.00301728823834706,19.4060296126789
0.0025017018490393,19.4114782957173
0.0020337056139208,19.4175115903403
0.00161543379570206,19.4242510462651
0.00126307651128896,19.4315170492929
0.000971184607419608,19.4393917663944
0.000744250591104812,19.4480101446913
0.000606922643577866,19.455528104805
0.000480933253982301,19.4651174589789
0.000393933283560127,19.4748811136365
0.000336028809522518,19.4848811136365
0.000301552151907059,19.4948811136365
0.000284594909406253,19.5048811136366
0.000280999156312793,19.5148811136366
0.000288045116945708,19.5248811136366
0.000304202113013619,19.5348811136366
0.000328919321953128,19.5448811136366
0.000362502527653134,19.5548811136366
0.000406112482297045,19.5648811136366
0.000461183714367813,19.5747622891664
0.000525504241056741,19.583875093614
0.000599632322002167,19.592258317051
0.000684601078289043,19.5999727057365
0.000781734943760564,19.6070746483187
0.000892606792954628,19.6136157617707
0.00101903474129307,19.619643405204
0.00116309850185174,19.625201129339
0.00132716666251905,19.6303290430482
0.00151393155567459,19.6350641299844
0.00172645192537699,19.639440538853
0.00196820590585851,19.6434898524861
0.00224315613089083,19.6472413312694
0.0025558297930012,19.6507221432436
0.00291142264158598,19.6539575986111
0.0033159328183491,19.6569713932558
0.00377634036012633,19.6597858657472
0.00430085519959075,19.6624222954927
0.00489927236393272,19.6649012741128
0.00558350514636819,19.6672432009172
0.0063430190974058,19.6694030921603
0.00718527465819293,19.6714102040146
0.00812492418753718,19.6733020757496
0.00918501716688202,19.6751188830243
0.0104067434256426,19.6769128131009
0.0118945803792755,19.6787924045317
0.0141186594590375,19.6811942362984
0.0156523492948237,19.6826727172397
0.0172743516143599,19.684151198181
0.0187538956860548,19.6854746408653
0.0200710229603449,19.6866787897528
0.0212499347332597,19.6878279110285
0.0222895226660591,19.6889652014638
0.0231715627736408,19.6901301790807
0.0238595017519253,19.691374423942
0.0242801284941362,19.6927954368531
0.024206775977394,19.6947325188919
0.023608900709232,19.6963673221771
0.0226134993925898,19.6980021254622
0.0214812188341242,19.6994533521328
0.0202154930979749,19.7008780041796
0.0188220441837277,19.702339077937
0.0173102251625695,19.7038753473407
0.0162469629539563,19.7049523177322
0.0152064030055675,19.7060292881238
0.0141777774554719,19.7071475948732
0.0118234478583514,19.709968234183
0.00987123606624574,19.7126751378202
0.00829094914643027,19.715213244477
0.00700231817482054,19.7176020404537
0.00594050286087203,19.7198633709604
0.00505476749128303,19.722020195919
0.00430517607865552,19.7240983506494
0.00365941116369278,19.7261302017001
0.00308934798176307,19.7281633530139
0.00256521734198394,19.7302876431888
0.00203182127748858,19.7327763432326
0.00168994650734694,19.7345949960452
0.00138337331326363,19.7364136488577
0.00113926996912891,19.7380162071421
0.000935230484548585,19.7394813372351
0.000750670820242365,19.7409222079935
0.000573354320983757,19.7424270129323
0.000391232021787803,19.7441162112848
0.000180112003987225,19.7462910670614
-0.000135263999376479,19.7500869349768
-0.000384801783577213,19.7537086340357
-0.000579477817057291,19.7570484870682
-0.000765179066825308,19.7607930134468
-0.000987104848056233,19.7662429153365
-0.00116552964487147,19.7718246340114
-0.00128632984175105,19.7769118744398
-0.00135356623620959,19.7814848004797
-0.00136755953732569,19.7855808484126
-0.00132616096438964,19.7892450101769
-0.00122592664439933,19.7925361687755
-0.00106250537290244,19.7955109285112
-0.000829618628956214,19.7982361085185
-0.000517526980441495,19.8007817117096
-0.000108263393790106,19.8032355326051
0.000440088878506484,19.8057445719152
0.00119698464141642,19.8084729025897
0.00197313811526987,19.8108173898566
0.00284093689397193,19.8131618771236
0.00371326619904143,19.8153616488606
0.00480578989603271,19.8179783782976
0.00573712728357971,19.820083738814
0.00674092140106956,19.8221890993304
0.00770287589689509,19.8240146096208
0.00875067516275662,19.8257821363245
0.00988120560984074,19.8274503636155
0.0111582102201366,19.8290814544737
0.0125958158605959,19.8306585304221
0.0142316088675642,19.8321934244757
0.0160739141978074,19.833669253415
0.0181581594697155,19.8350946597801
0.0205077151672602,19.836467213843
0.023148373121564,19.8377863908288
0.0261057298778472,19.8390515999001
0.0294218253281483,19.840268265755
0.0331395001077296,19.841439421261
0.0373087058988986,19.8425683181773
0.0419871631546534,19.8436581616615
0.0472444224256792,19.8447126176343
0.0531622059709112,19.8457352716427
0.0598375332148709,19.8467297464762
0.0673868700068741,19.8476998052949
0.075951313502983,19.8486494111225
0.0857047205992207,19.8495829126954
0.0968639537279688,19.8505051416752
0.109704954749272,19.8514216759082
0.124587294855036,19.8523392162938
0.141993974778514,19.8532662038903
0.162602369623616,19.8542139953273
0.186776201366836,19.855175303215
0.214787027475241,19.8561427594003
0.247387582444924,19.8571273929193
0.285619970130367,19.8581461190008
0.331201291954983,19.8592318055527
0.367188056984322,19.8600264652937
0.404472698171674,19.8608211250347
0.437559778167602,19.8615270887239
0.466503026395463,19.8621711611035
0.491791441972038,19.8627857013935
0.5133885425853,19.8633946965194
0.530804044070252,19.8640214661709
0.542926034425581,19.8646971362472
0.547224217113627,19.8654780295935
0.540341997608841,19.8662729654159
0.521157681864517,19.8671014155197
0.487989490381373,19.8679794529284
0.43871803806683,19.8689181678769
0.37546971817487,19.8698663326673
0.330784058154125,19.8704471672291
0.282509560006557,19.8710280017908
0.239658620656897,19.8715212966987
0.202713326820887,19.8719412232614
0.170128396515745,19.8723155437832
0.140882142438152,19.8726614376038
0.114336359676169,19.8729899548364
0.090035278189593,19.8733095262938
0.0675865436261699,19.8736282152331
0.0465400132000112,19.8739565541579
0.0260571743672198,19.8743161844125
0.00905552608582838,19.8746591066743
-3.63109827961456e-05,19.8748660274447
-0.00828613487767411,19.875072948215
-0.0148525111755165,19.8752542350079
-0.0208828656335116,19.8754371223385
-0.0269521140144153,19.8756413250356
-0.0328104585358154,19.8758633190899
-0.0382982317525479,19.876100961469
-0.0433267274711487,19.8763534951517
-0.0478497718302938,19.8766210851386
-0.0518468485467256,19.8769045593066
-0.0553128013131512,19.8772052847939
-0.0584373441335181,19.8775497576521
-0.0607794790793305,19.8778900301205
-0.0626140862217707,19.8782543668647
-0.0639585106196047,19.8786467519419
-0.0648267784728542,19.8790717118414
-0.0652306233792915,19.8795349001493
-0.0651777780201683,19.880043495062
-0.0646697233121645,19.8806068468104
-0.0636957762951791,19.8812389317309
-0.0622292795453307,19.8819580418189
-0.060215685133696,19.8827920972727
-0.0575402659597754,19.8837899908393
-0.0539015073318995,19.88506597068
-0.0497949448360586,19.8864676287741
-0.0458188174215628,19.8878243395517
-0.0420229724332172,19.8891407458608
-0.0384320258171598,19.8904190295437
-0.0350587631188286,19.8916599486958
-0.0319090173863003,19.8928635441459
-0.0289838585289316,19.8940295154326
-0.0262807781682326,19.895157418858
-0.0237944723919925,19.8962467695574
-0.0215174514721442,19.8972970895021
-0.0194405636370497,19.8983079232666
-0.017553463119462,19.8992788333051
-0.0158450303372119,19.9002093812253
-0.014261801368671,19.9011240718903
-0.0127370597662166,19.9020621038041
-0.011275514527234,19.9030249081755
-0.00988112981513182,19.9040145425084
-0.00855768416679751,19.9050334167966
-0.00730871647799933,19.9060843829947
-0.00613747440366932,19.9071708489833
-0.00504686046058536,19.908296931548
-0.00403937581859224,19.9094676663763
-0.00311706135174458,19.9106893040504
-0.00228143488146193,19.9119697405331
-0.00153342242490859,19.9133191673217
-0.000873279175349513,19.9147510999067
-0.000300491708120811,19.9162841025234
0.000176895141443466,19.9179080611079
0.000551914511388599,19.9195763836158
0.000841236572272347,19.9213073621323
0.00105957103204697,19.9231215332949
0.00122068849405963,19.9250461827006
0.00133781602573761,19.9271196721933
0.00142422038438039,19.9294003719594
0.0014942847299389,19.9319879857209
0.00156638725155699,19.9350900557058
0.00166111339500836,19.9388232023825
0.0017828459089465,19.9427609026303
0.0019396562050555,19.9470106554017
0.00211579021317991,19.95126005742
0.00231474848078505,19.9557667581182
0.00254283560479285,19.9607872433709
0.00276810704227971,19.9656874422108
0.00300095506852596,19.9707238033988
0.00319623094954774,19.974900625056
0.00337924875265093,19.9787646801628
0.00355958190102527,19.9825052883777
0.00374225428986571,19.9862109347187
0.00393085464437661,19.989936698367
0.00412847070189945,19.9937234350573
0.00429751288606665,19.9968617175287
0.00447159227412432,20
