ecg,time
0.000147846311026012,15.0039738083528
0.000148864664692756,15.0139738083528
0.000151880036527064,15.0239738083528
0.000156535988336235,15.0339738083528
0.000162625035620058,15.0439738083528
0.000170051809301617,15.0539738083528
0.000178809192233979,15.0639738083528
0.000188964286628197,15.0739738083528
0.000200652288943835,15.0839738083528
0.000214077220130644,15.0939738083528
0.000229519274192309,15.1039738083528
0.00024734943499357,15.1139738083528
0.000268053092954964,15.1239738083528
0.000292265875782065,15.1339738083528
0.000320827153237583,15.1439738083528
0.000354860331489348,15.1539738083528
0.000395895316063829,15.1639738083528
0.000446059720904792,15.1739738083528
0.000503958428213875,15.1833248796809
0.000569959843971567,15.1919591927004
0.000645107307975767,15.1999276784957
0.000730643175076038,15.2072821012813
0.000827988195371749,15.2140707007167
0.000938753614059872,15.2203382970674
0.00106476353233623,15.2261265402
0.00120808251369118,15.2314741353112
0.00137104797434584,15.2364170456361
0.00155630628644743,15.2409886889842
0.0017668567225765,15.2452201288932
0.00200610218433779,15.2491402579852
0.00227791179020487,15.2527759722615
0.0025866970863574,15.2561523472652
0.00293750829081197,15.2592928213824
0.00333615858037355,15.2622193866984
0.00378938696225072,15.2649527964257
0.0043050807396659,15.2675128062525
0.00489258881007621,15.2699184699064
0.00556318090878246,15.2721885282362
0.00631115246447621,15.2742916799728
0.00713802191883682,15.2762379948708
0.00805587552364525,15.2780615035558
0.00908299112333255,15.2797968484486
0.0102494406792519,15.2814841675932
0.011614557905047,15.2831842469219
0.0134131030201624,15.2851116774642
0.0152254243084017,15.2868152962775
0.0172157998617759,15.2885189150907
0.0189343825127717,15.2899201956987
0.020419499876715,15.29112912883
0.0217476022156723,15.2922537514226
0.0229345424104493,15.2933471498256
0.0239709422512491,15.2944479255317
0.0248302813421634,15.2955980873191
0.0254614341532267,15.2968629971097
0.0257468861910095,15.2983997790062
0.0254177910438025,15.3002202104769
0.0244678081429654,15.3020406419476
0.0233543553325002,15.3035115280444
0.0221050835731046,15.3049024665421
0.0207133714056015,15.3063140077938
0.0191870957601875,15.3077909731397
0.0175333229926102,15.309371140599
0.0161571459231663,15.3107159586613
0.0148597134853056,15.3120607767236
0.0123597650881724,15.3149357260486
0.0101988841518577,15.3178314136904
0.00850299126813049,15.3204889092871
0.00713929176744609,15.3229733124579
0.00595207577450555,15.3254863769286
0.00491055627892968,15.328061585114
0.00399482990918358,15.3307225752352
0.00319787834176037,15.3334597558947
0.00256009522218043,15.3360422914511
0.00204051595315527,15.3384982189152
0.00160720136685269,15.3408691356021
0.00123610854973004,15.3432052713224
0.000907973113463326,15.34557448521
0.000603980823227921,15.3480953100352
0.000287225996750689,15.3511524427609
0.000100567604942941,15.3532134413698
-6.78670803080992e-05,15.3552744399787
-0.000205074194658693,15.3571171963853
-0.000321829157527509,15.3588169629193
-0.000428996159818574,15.3604958821254
-0.0005336527700203,15.3622561908496
-0.00064352719783899,15.3642447309811
-0.000776102578109237,15.366854090339
-0.000977882859427505,15.3713155787707
-0.00112929477482923,15.3751039800193
-0.00125080593595249,15.3784551086788
-0.00137396673888182,15.3821774838071
-0.00151546961565512,15.3869698771963
-0.00165021789637784,15.3924436138448
-0.00173289951242608,15.3972327369938
-0.00176178778147613,15.4015598816764
-0.00172860617228103,15.4054436581459
-0.00162583364783083,15.4089412616147
-0.00144633798568672,15.4121137202932
-0.00118191101102334,15.4150317220105
-0.000821813844083157,15.417762567817
-0.000350729217007564,15.4203711307457
0.000257165461483863,15.4229348151276
0.00104707846590531,15.4255511284226
0.00214204662565392,15.4284569463659
0.00357875283675054,15.4315790201819
0.00536234397506602,15.4348351035812
0.00666639579887039,15.4369170857856
0.00812383661656299,15.43899906799
0.0095882684017951,15.4408568402835
0.0111400902467166,15.4425979093135
0.0127690592094889,15.4442050514997
0.0145529842734837,15.4457449922381
0.0165180899719042,15.4472211423272
0.0186941141567339,15.448637934069
0.0211195869380747,15.4500028533003
0.023821777670169,15.4513146877306
0.0268430803169824,15.4525787521673
0.0302223106112557,15.4537965031892
0.0340044273724822,15.4549702882153
0.0382452111903198,15.4561038984231
0.0430064091873963,15.4572003708943
0.0483602718641471,15.4582629256541
0.0543913749947648,15.45929484156
0.0612042277209209,15.4603001606613
0.0689232567774194,15.4612828504415
0.0777009613337252,15.4622472465446
0.0877274293392957,15.4631982204313
0.0992436994082578,15.4641413689612
0.112565800208426,15.4650835890483
0.12811941617542,15.4660335922132
0.146505510172239,15.4670032101972
0.168210861082603,15.4679922142763
0.193371172223579,15.468986695004
0.222673671880594,15.4699982065189
0.257060473529308,15.4710436524471
0.29799695461514,15.4721525404335
0.334127005206186,15.4730511720562
0.372082917287293,15.4739498036788
0.405611059941717,15.4747334234068
0.434831308312207,15.4754353720751
0.460372284815428,15.4760936942183
0.482321974079832,15.4767341689426
0.500356240154535,15.4773786868459
0.513690706862372,15.4780516440154
0.520732958717753,15.4787889741625
0.518438552501978,15.4795982498813
0.504810159421157,15.4804264753692
0.478528164145434,15.4812895818989
0.437885358859108,15.4821991848566
0.380990459616235,15.4831639552243
0.337183561109499,15.4837894910188
0.288838743338591,15.4844150268132
0.245699894791945,15.4849406563807
0.208616199101865,15.4853819304072
0.175973135830079,15.4857713116293
0.146698195175151,15.486128393426
0.120138722107924,15.4864653012225
0.0958439408012728,15.4867908379698
0.0734453597060402,15.4871128272822
0.0525595642922944,15.4874403958783
0.032593698750269,15.4877892094182
0.0116867848475382,15.4882106260277
0.00109389154028109,15.4884563977629
-0.00623185205353421,15.4886440426862
-0.0129263173080118,15.4888316876095
-0.0187975400433874,15.4890121705709
-0.0247850984591887,15.4892156072826
-0.0306157645589657,15.4894379718985
-0.0361089934192632,15.4896766037309
-0.0411639221091466,15.4899304328793
-0.045727215992338,15.4901994286344
-0.0497739485122951,15.4904842836805
-0.053289621101824,15.4907862583919
-0.0562762631577306,15.4911079892275
-0.0587093264475922,15.4914470534586
-0.0606389465963718,15.4918098027073
-0.0620796767454119,15.492199733107
-0.0630454526436061,15.4926211032256
-0.0635484353683957,15.493079207275
-0.0635974093351379,15.4935807172343
-0.0631958276358053,15.4941342080423
-0.0623370943512771,15.4947522019435
-0.0610005218147937,15.495451193472
-0.059143334653327,15.4962552144242
-0.0566785146932867,15.4972039512372
-0.0534016768905421,15.4983788215956
-0.0493298584762578,15.4997889315136
-0.0453761066579154,15.5011496940383
-0.0415963608210914,15.5024681159972
-0.0380185752542235,15.5037472011585
-0.0346569712086917,15.5049881631053
-0.0315180166746675,15.5061913073703
-0.0286030566462528,15.5073564936685
-0.0259096891069243,15.5084833790763
-0.0234326377713015,15.5095715443679
-0.021164406602115,15.5106205554602
-0.0190958265214679,15.5116299868316
-0.0172165352028585,15.51259942126
-0.0155154029374702,15.5135284337371
-0.013934519064651,15.5144442591904
-0.0124123199817903,15.5153834614206
-0.0109534679150365,15.516347509265
-0.00956192134030289,15.517338475893
-0.00824144928467853,15.5183587902394
-0.00699557763166825,15.5194113273374
-0.00582753739792651,15.5204995237607
-0.00474021063787302,15.5216275327018
-0.00373607391877318,15.5228004370589
-0.00281713887554976,15.5240245501457
-0.00198488866976201,15.5253078536813
-0.00124020796723377,15.5266606604699
-0.000583301789793674,15.5280966650411
-1.35939726997379e-05,15.529634710712
0.000459839264661408,15.5312604023915
0.000831806822294643,15.5329312408928
0.00111889690640052,15.5346655242132
0.00133581825771026,15.5364840313934
0.00149637282329868,15.5384144249704
0.00161387006348926,15.5404957115048
0.00170174782612178,15.5427874861847
0.00177474707852433,15.5453921995355
0.00185213786377319,15.5485257225084
0.00195416652355541,15.5522600250041
0.00208594787018821,15.5562164313411
0.00223736010211238,15.5600568303562
0.00240429647397624,15.5638437621581
0.00258336383143863,15.5676401017751
0.00277222303931479,15.5714910179664
0.0029699033262768,15.5754329361548
0.00317672093769535,15.5794981897667
0.00339407765736402,15.5837176409335
0.00362425129257986,15.5881224360266
0.00387023938107803,15.5927453848477
0.00413573610061778,15.5976224104102
0.00442531485669437,15.6027938875928
0.00474491849334931,15.6083060128842
0.00507607514710254,15.6137767244697
0.0054180483679642,15.6191522918695
0.00577334047147827,15.6244288399037
0.00614509076758229,15.6296082843024
0.00653726012722308,15.6347009095409
0.00695407389315014,15.6397161223389
0.00740000575880436,15.6446614140565
0.00787979450638143,15.6495416675531
0.0083985359096352,15.6543593709276
0.00896179451277162,15.6591150014639
0.00957571823917944,15.6638074359434
0.0102471520761358,15.6684344095297
0.0109932292944079,15.6730487907434
0.0118336435190452,15.6776878491434
0.0127864569783195,15.6823541528607
0.0138778412019852,15.6870694123085
0.0151474024025002,15.6918826545391
0.0166676548790264,15.6969157972382
0.0186256543569103,15.7025470116077
0.0211014488432497,15.7087767019641
0.0226635807043136,15.7124234250778
0.0242491466970106,15.7160701481914
0.0256301383973538,15.7193557327145
0.0267968872595428,15.7223974728613
0.0277561177164674,15.7253505470607
0.0284462827508264,15.7281481682084
0.028869340279422,15.7308935718424
0.0290092786624327,15.7337191135765
0.0288008824453726,15.7368456864208
0.0279317647125939,15.7411168454198
0.0270695571790303,15.7438482732874
0.0260177271790478,15.7465797011551
0.0249493049025135,15.7490314689512
0.0238800243950978,15.7513100310439
0.0228086223748296,15.7534939639558
0.0217373520979622,15.7556249169286
0.0206697801164876,15.7577280755083
0.0196096291436376,15.7598206741416
0.0185604408594352,15.7619155658405
0.0175254850999908,15.764022975757
0.0165077450048352,15.7661514742195
0.0155099227762486,15.7683085751612
0.0145344527150768,15.7705011301387
0.0135835160033325,15.7727356052907
0.0126590496646402,15.77501830289
0.0117627618313754,15.7773555269262
0.0108961396051893,15.7797537429132
0.010060456907075,15.7822197298171
0.00925679280429425,15.7847607010572
0.00846564551470314,15.7874566927107
0.00768747748680573,15.7903361967298
0.00692602259808495,15.7934214140978
0.00618522732584444,15.7967381627395
0.00546927518693055,15.8003163845383
0.00478254159046723,15.8041909778164
0.00412953280470923,15.8084027845835
0.00351475934958612,15.8130000999053
0.00294250846305602,15.8180414297657
0.00241655979873265,15.8236003066603
0.0019398597087633,15.829774170918
0.00152372601575405,15.8365267979861
0.00125996889269829,15.8418219984622
0.0010499955635608,15.8471171989383
0.00082867363946714,15.8544333166417
0.000639148658963836,15.8628418982919
0.000487244445772804,15.8720617199673
0.00037067823656783,15.8820617199673
0.000290473768133089,15.8920617199673
0.000236062517831362,15.9020617199673
0.000199750529921177,15.9120617199673
0.000176036710880765,15.9220617199673
0.000161099712025535,15.9320617199673
0.000152339034439141,15.9420617199673
0.000147999550380013,15.9520617199673
0.000146898644451355,15.9620617199673
0.000148243299963701,15.9720617199673
0.000151511333922586,15.9820617199673
0.000156373794003385,15.9920617199673
0.000162643304881073,16.0020617199673
0.000170239632620983,16.0120617199673
0.000179167574671673,16.0220617199673
0.000189504272553114,16.0320617199673
0.000201394169563228,16.0420617199673
0.000215050681197479,16.0520617199673
0.000230764459174905,16.0620617199673
0.000248919027402134,16.0720617199673
0.000270015678701297,16.0820617199673
0.000294711065223924,16.0920617199673
0.000323873280245304,16.1020617199673
0.000358666106214131,16.1120617199673
0.000400677782685537,16.1220617199673
0.000452122644861548,16.1320617199673
0.00051104502299367,16.141331594378
0.000578182296415003,16.1498875177576
0.000654616203338092,16.1577833527829
0.000741612578094333,16.1650706148208
0.000840615999684578,16.1717971923861
0.000953263881999053,16.1780075725833
0.00108140974624006,16.1837430926565
0.00122715152513673,16.1890421638739
0.00139286451626804,16.1939404738014
0.00158123827285605,16.1984711831137
0.00179532150218485,16.2026651170367
0.00203857418020579,16.2065509481621
0.00231493156222873,16.2101553709163
0.00262888297937283,16.2135032790262
0.00298557104943954,16.2166179504916
0.00339092052263001,16.2195212404127
0.0038518078119203,16.2222337924864
0.00437629334156479,16.2247752870235
0.0049739507679138,16.2271647470331
0.00565635258825943,16.2294209460242
0.00641425322755216,16.2315038886427
0.00725239823663229,16.233434338671
0.00818360940910437,16.2352464935903
0.00922735307070966,16.2369754386075
0.0104162561328845,16.2386629752661
0.0118249662916431,16.24038473539
0.0137219755086807,16.2423777592754
0.0154325568258138,16.2439633450094
0.0172917304456792,16.2455489307434
0.018979541263123,16.2469272757366
0.0204536277196962,16.2481315558198
0.0217733314735116,16.2492551746746
0.0229520114454834,16.2503493465807
0.0239794726192364,16.2514525200436
0.0248284027673311,16.2526072265336
0.0254461624937373,16.2538806885282
0.0257096688336938,16.2554385309872
0.0253548351928703,16.2572480599713
0.024393450050676,16.2590575889555
0.0232755920702074,16.2605244426148
0.0220221431038866,16.2619160132927
0.0206268514634147,16.2633299344496
0.0190976849601106,16.2648104163464
0.0174415667814467,16.2663953077952
0.0156865366069369,16.2681320564873
0.014335790806371,16.2695680617216
0.0118482707158159,16.2725201041915
0.0097984229756594,16.2753631017398
0.0081848240555579,16.2779769340895
0.00686351583834385,16.2804646202175
0.00571054450911112,16.2829895479274
0.00469839304577228,16.2855820091353
0.00380826159508235,16.2882653430663
0.0030573330177135,16.2909376394894
0.00245243834695441,16.2934656495547
0.00195568391575186,16.2958812770861
0.00153780857089785,16.298228007865
0.00117620432783349,16.3005614646124
0.000851515962029418,16.3029653742128
0.000540472330761016,16.3056205874281
0.000285539681250407,16.3081246582692
6.17368144257754e-05,16.3106287291103
-9.84214017421402e-05,16.3126334328721
-0.000225928709641493,16.314377758242
-0.000339158513097094,16.3160513936708
-0.000446683855580299,16.3177613345974
-0.000555553408852524,16.3196246675003
-0.000676945497925436,16.3218748648785
-0.000864786511515008,16.3257576206547
-0.00102231301983518,16.3294401278745
-0.00114306237103317,16.3325624911203
-0.00125864026225217,16.3358269892125
-0.0013843327576221,16.3397366398164
-0.00153321332862767,16.3450278134077
-0.00165024302729059,16.3502399710953
-0.00171675287639998,16.3548926425487
-0.00172732159349789,16.3590830791975
-0.00167419759219944,16.3628482703989
-0.00155007591869801,16.366245386885
-0.00134786208344684,16.3693353593172
-0.00105894532762372,16.3721880267364
-0.000671485804731617,16.3748712088984
-0.000167682712424735,16.3774533206537
0.00048221129011905,16.3800145284005
0.0013418960044194,16.3826918701788
0.00254890604815157,16.3857161497801
0.00408657172292857,16.3888918998636
0.00552006739472301,16.3914387347321
0.0071507809799764,16.3939855696007
0.00864314332212125,16.3960385524891
0.0101539364920349,16.3978770408829
0.0117093994058946,16.3995458546066
0.0134018465212618,16.4011390025819
0.0152414771303578,16.4026496239165
0.0172809374647005,16.4041042114846
0.019542034025609,16.4054998887133
0.0220653350677741,16.4068447468295
0.0248794452293153,16.4081378475872
0.0280268888020257,16.4093838029021
0.0315500783623701,16.4105848857765
0.0354942772064906,16.4117428323652
0.0399184384154387,16.412861612234
0.0448884737137335,16.4139444859863
0.0504814303448242,16.4149947854682
0.0567889262284132,16.4160160590993
0.0639193397051582,16.4170118706323
0.0720078174456839,16.4179865523643
0.0812191329377906,16.4189446016181
0.0917599235050653,16.4198911157154
0.103895128559857,16.4208320901999
0.117973563351859,16.4217748645879
0.134472957476676,16.4227290217894
0.154080730504936,16.4237079127302
0.176980099622209,16.4246965859676
0.203559679758975,16.4256942311027
0.234580510256232,16.4267138097739
0.271117877088488,16.4277751640081
0.314758031987492,16.4289109274421
0.349410722110606,16.4297486523246
0.385272151303038,16.430586377207
0.417183181579993,16.4313329549792
0.445118789345493,16.4320144571985
0.469457410656215,16.4326624760005
0.49013421012806,16.4333005970024
0.506680075488117,16.4339509237421
0.518086683571905,16.4346406495356
0.522254650900812,16.4354146043392
0.516053030902955,16.4362277802953
0.498080113782489,16.4370662622903
0.466855311049706,16.4379446433034
0.420568041333561,16.4388730952698
0.373396607055127,16.4396286367586
0.318606787982909,16.4403841782474
0.280020651712965,16.4408711000086
0.239704221092293,16.4413580217698
0.203505508193817,16.441787421258
0.171402427724625,16.4421704919979
0.142544486555676,16.4425235984132
0.116328613289553,16.4428580384652
0.0923218836357548,16.4431823308979
0.0701590518776553,16.443504333343
0.0494411618889372,16.4438336942598
0.0294983997346755,16.4441882786905
0.00781239442734991,16.4446375742656
-0.000834339973017263,16.4448439598166
-0.00869147011385439,16.4450503453675
-0.0150907157014263,16.4452352741016
-0.0210559956098345,16.4454249067327
-0.0270179655449854,16.445635628768
-0.032743691408547,16.4458640364268
-0.0380871495069648,16.4461081525798
-0.0429680042321248,16.4463673448712
-0.0473451170086686,16.446641877332
-0.051200926596583,16.446932664724
-0.0547600462300783,16.447266325054
-0.0574850871338485,16.4475934840413
-0.0596959311650869,16.4479423663881
-0.0614096153466295,16.4483164015951
-0.0626404533393657,16.4487193786465
-0.063401800172255,16.4491559799078
-0.0637045501755472,16.4496320584212
-0.0635554138498589,16.4501550494327
-0.0629542373324196,16.4507349472332
-0.0618885013214857,16.4513860738691
-0.0603293201635916,16.4521275791417
-0.0582183816309422,16.4529889615191
-0.0554322000349998,16.4540228324395
-0.0516333534390598,16.4553577994355
-0.0476040843891038,16.4567439824072
-0.0437208735565671,16.4580854832275
-0.0400264508419321,16.4593863535725
-0.0365415490811275,16.4606486222532
-0.033276480193984,16.4618730096484
-0.030235221557697,16.4630595748338
-0.027417336571051,16.4642080609791
-0.0248190690854769,16.4653180767984
-0.0224340963460942,16.4663891890188
-0.0202541264733319,16.4674209642728
-0.0182694122437696,16.4684129805539
-0.0164692060559872,16.4693648191363
-0.0148421632336086,16.4702760429363
-0.0132858592639568,16.4712018604757
-0.011790464500072,16.4721515489752
-0.0103601452413007,16.4731269403189
-0.00899878548518096,16.4741302509289
-0.00771005536054377,16.4751640901105
-0.00649735986034995,16.4762315591222
-0.00536378606875052,16.4773363819771
-0.00431204804332142,16.4784830827903
-0.00334442911992202,16.4796772321584
-0.00246272089656722,16.4809257993899
-0.00166815728762276,16.4822376735636
-0.000961340467059129,16.4836244669733
-0.000342152477170708,16.4851018195144
0.000190360229352958,16.4866916607939
0.000617499174322038,16.4883345847418
0.00095075709361523,16.490030758281
0.00120565549119101,16.4917987351946
0.00139646712309753,16.4936619143292
0.00153671903147433,16.4956521457885
0.00163967925675262,16.4978157862626
0.00171914478620607,16.5002269141825
0.00179116525849255,16.5030224890794
0.00187997471025788,16.5065374883941
0.00199227726993373,16.510314737369
0.0021332403198708,16.5142277563301
0.00229170764056504,16.5180382561163
0.00246402481186751,16.521822808068
0.0026471774242298,16.5256359474224
0.0028394149660238,16.5295186640261
0.00304034123073403,16.5335053672841
0.00325076012834681,16.5376275771745
0.00347246030952885,16.5419160916887
0.00370802047717473,16.5464025522315
0.00396069760853939,16.5511208180837
0.00423447869784353,16.5561084255413
0.00453437095968839,16.5614078785293
0.00486360340943239,16.5670101286363
0.00519633512554083,16.5724166094063
0.00554324003401664,16.5777676861891
0.00590361156382265,16.5830049507319
0.0062821340353816,16.5881528780334
0.00668251072363919,16.5932164144806
0.00710916705019649,16.5982059716225
0.00756662124611814,16.6031276392944
0.00805972900940414,16.6079854797722
0.0085937303091695,16.612781154742
0.00917438093547282,16.6175145170118
0.00980806031528019,16.6221839651506
0.0105018920656772,16.6267869848019
0.0112802276301623,16.6314131348811
0.0121580999387589,16.6360599370001
0.0131567692032981,16.6407403811235
0.0143059524253014,16.6454825431452
0.0156535092627336,16.6503535787726
0.0172957211114574,16.6555285007911
0.0195418796839742,16.6616594923923
0.0212906247747638,16.6659429156264
0.0231365124890464,16.6702263388604
0.0247061687303035,16.6738534149991
0.0260193268529243,16.6770472481565
0.0271215038916773,16.6800465120702
0.0279986163744781,16.6829467696017
0.0286060656770196,16.6857155227746
0.0289445769780861,16.6884699212716
0.0289874114400335,16.6913564877982
0.0286372582423193,16.6946705839918
0.0278714358926756,16.6980483851973
0.0267560332876445,16.7014261864029
0.0256632075497377,16.7041357109567
0.0245921997683675,16.7065234661093
0.0235219506000043,16.7087644943357
0.0224502130944192,16.7109272249748
0.0213797469620683,16.7130466252062
0.0203142314599125,16.7151446443046
0.0192573471135232,16.7172367814246
0.0182125492065762,16.7193348679311
0.0171830116898131,16.7214484924058
0.0161716220024729,16.72358582037
0.0151809918289465,16.7257541075262
0.0142134684516847,16.7279600531439
0.0132711503530212,16.7302100486016
0.0123558973684542,16.7325103797159
0.0114693401550729,16.7348673973778
0.0106128959867422,16.7372876529218
0.00978777100698333,16.73977806319
0.00899010132312575,16.7423624312562
0.00820288321210815,16.745117798431
0.00742989628667107,16.7480636815276
0.00667491844683801,16.7512235230671
0.00594197760748377,16.7546244504478
0.00523532755691049,16.7582979692857
0.004559398250919,16.7622808378561
0.00391871294390989,16.7666162075264
0.00331773631594445,16.7713554205232
0.00276062335659266,16.7765613146625
0.00225090442411882,16.7823142451782
0.00179121332406873,16.7887223083324
0.00139818462603808,16.7956380368774
0.00107612348707972,16.8030963035632
0.00084246625213467,16.8106169588447
0.000656052809997574,16.8187027932639
0.000499042890927079,16.8279581590701
0.000379020844654953,16.8379581590701
0.000296333201456705,16.8479581590701
0.0002401630426706,16.8579581590701
0.000202628408654883,16.8679581590701
0.000178073222798649,16.8779581590701
0.000162556279819902,16.8879581590701
0.00015339170652899,16.8979581590701
0.000148766654560956,16.9079581590701
0.000147459984373222,16.9179581590701
0.000148652525966606,16.9279581590701
0.000151803835451379,16.9379581590701
0.000156571886606639,16.9479581590701
0.000162759747559419,16.9579581590701
0.000170280020451751,16.9679581590701
0.000179131907093349,16.9779581590701
0.000189387886384352,16.9879581590701
0.000201188162402762,16.9979581590701
0.00021474189766564,17.0079581590701
0.000230335058579843,17.0179581590701
0.000248345592680833,17.0279581590701
0.00026926775565473,17.0379581590701
0.000293748923847967,17.0479581590701
0.000322644541001365,17.0579581590701
0.00035710062803101,17.0679581590701
0.000398679781060905,17.0779581590701
0.000449558228821365,17.0879581590701
0.000508022091843592,17.097262462476
0.000574650062218876,17.105851666141
0.000650507139609881,17.1137783811954
0.000736848777723014,17.1210942196729
0.000835108955218239,17.1278472116253
0.000946913415093416,17.1340819793336
0.00107410254479302,17.1398399875234
0.00121875936904496,17.1451597678494
0.00138324225280257,17.1500771211766
0.00157022142801326,17.1546253141336
0.00178272346768848,17.1588352703001
0.00202418276517833,17.1627357531412
0.00229850489969995,17.1663535402996
0.0026101442633968,17.1697136003925
0.00296420191140292,17.1728392771451
0.00336655233931873,17.175752481226
0.00382400996682066,17.1784738997995
0.00434455695823892,17.1810232413962
0.00493766514362725,17.1834195370383
0.00561476949020542,17.1856815392632
0.00636821243957773,17.1877731107225
0.00720128268583995,17.1897102593518
0.00812646218097234,17.1915270920475
0.00916266189605588,17.1932584665174
0.0103413052876188,17.1949453777669
0.0117299214334726,17.1966565972587
0.0135802421439742,17.1986176540977
0.0153358641563447,17.200255061742
0.0172529739309351,17.2018924693863
0.0189557265945262,17.2032816477039
0.0204358135760962,17.2044883143012
0.0217602039606918,17.2056124274025
0.0229435000947927,17.2067061233612
0.0239759507747018,17.2078079268046
0.0248306805188853,17.208960076488
0.0254558893237253,17.2102287575439
0.0257316077946839,17.2117748291519
0.0253910147975071,17.2135901446829
0.0244360567974791,17.2154054602139
0.023320694248755,17.2168744671806
0.0220695743259663,17.2182656457028
0.0206762620233015,17.2196782075598
0.0191486794708008,17.2211566964355
0.0174938307885537,17.2227389197888
0.0160832356659497,17.2241207293966
0.0147561376638303,17.2255025390044
0.0122509123900596,17.2284020579792
0.0101132808440161,17.2312874279231
0.00843519399627588,17.23393552764
0.00708085606706023,17.2364200385798
0.00590094572374157,17.2389355269531
0.00486567203206071,17.2415143182295
0.00395538269284556,17.2441799636648
0.00316989983743869,17.2468974271043
0.00254007234559067,17.2494633626355
0.00202580653176876,17.2519067276191
0.00159590705092083,17.254269464124
0.0012267154279306,17.2566031035495
0.000898924621233968,17.2589796089615
0.000592619352411764,17.2615326332825
0.000261595636218994,17.2647601816131
8.39610549383018e-05,17.2667461910623
-7.69852385341231e-05,17.2687322005115
-0.00021014277688427,17.2705301738146
-0.000325519848053988,17.2722165286172
-0.000432737098677059,17.2739026211264
-0.000538716156492455,17.2756933201263
-0.000652030042405275,17.2777576253801
-0.000796399572961345,17.2806346309248
-0.0009728109543143,17.2845690425263
-0.00110367412547291,17.287822862872
-0.00121786060582296,17.2909240633581
-0.00133658234561673,17.2944429923531
-0.00147152144926272,17.2988912010267
-0.00161696301248887,17.3045460403512
-0.00170850487000504,17.3094215189542
-0.00174808250087331,17.3138394403675
-0.00172734141277611,17.317805038513
-0.00163874717801308,17.3213732811359
-0.00147507271579852,17.3246053140545
-0.00122873192914222,17.3275658824779
-0.000889698860151871,17.3303247373444
-0.000443787247452767,17.332947957095
0.000130367758676233,17.33550290893
0.000873342993362347,17.3380872524704
0.00188785998224484,17.340906338276
0.00325252156649024,17.3439971368221
0.0049645060838973,17.3472383911142
0.00628467179966133,17.3494182249029
0.00776353947966008,17.3515980586916
0.00923856747753322,17.3535270898379
0.0107540650847849,17.355280799973
0.0123659327106904,17.3569231303611
0.0141087784643046,17.3584777952061
0.0160256876216715,17.3599672370792
0.0181481054472273,17.3613976060405
0.0205102517899835,17.362774140961
0.0231432391455272,17.364098192346
0.0260862916535732,17.3653737756413
0.0293746174568511,17.3666014241838
0.0330566158634155,17.3677852799132
0.0371838787361403,17.3689281847533
0.0418158222976878,17.3700331172104
0.0470198968663595,17.3711028702482
0.0528810223792915,17.3721414780222
0.059497655029908,17.3731525770144
0.0669884570611104,17.3741400512313
0.0754984122188978,17.3751081322838
0.0852067071470696,17.3760614690964
0.0963412203387796,17.3770055364925
0.109197119627161,17.3779468539069
0.124168563751139,17.3788935690623
0.141804867438353,17.3798565526123
0.162773602871608,17.3808451721163
0.187058676845728,17.3818369243944
0.215302402681355,17.382842455239
0.248370617736383,17.3838769676107
0.287553798227333,17.3849655498237
0.332887481748072,17.3861050033251
0.373122028177327,17.3870565797118
0.40674244220588,17.3878412228324
0.435893522526293,17.3885412132666
0.461362920450906,17.3891981910999
0.483236574055702,17.3898379550026
0.501180545613153,17.3904824061119
0.514395057281976,17.3911561393655
0.521253507544981,17.3918957231076
0.518686907211217,17.3927048850896
0.50475082640882,17.3935335545071
0.478112103797764,17.3943975988827
0.437051813671159,17.3953085441174
0.379671327151115,17.3962750533993
0.335954273727088,17.396896275499
0.287792785954862,17.3975174975987
0.244811951753317,17.3980402312446
0.207833604311658,17.3984797974868
0.175265738885172,17.3988681084218
0.146049499375644,17.3992244850625
0.119538263372815,17.3995609341064
0.0952837564179207,17.3998862116708
0.072917816347747,17.4002081446802
0.0520544726432243,17.4005359387261
0.0320891295821532,17.4008855875042
0.0110712420845257,17.4013108964313
0.000865545522926083,17.4015485251446
-0.00643205500931736,17.4017357884755
-0.0131010678868731,17.4019230518065
-0.0189831683446029,17.4021042284342
-0.024971580398907,17.4023081934416
-0.0307963377379684,17.4025309732984
-0.0362797827851808,17.4027699659421
-0.0413227656490325,17.403024138462
-0.0458729649426799,17.4032934844673
-0.0499060676484122,17.4035787144206
-0.0534077750645732,17.4038811034047
-0.0563743630313495,17.4042025563649
-0.0587949643500546,17.4045420947595
-0.0607124502684794,17.404905404158
-0.0621413209334747,17.4052959906349
-0.0630954919060309,17.4057181363843
-0.0635870638375602,17.4061771668123
-0.0636247135103462,17.4066797964011
-0.063211723820737,17.4072346604372
-0.062341149430169,17.4078544125652
-0.0609918595554309,17.4085556740555
-0.0591202589031371,17.4093627611967
-0.0566375134881364,17.4103159954179
-0.053333468071094,17.4114988225474
-0.0492626889010569,17.4129076014592
-0.0453114412832662,17.4142674209637
-0.04153505802436,17.4155850231349
-0.0379610687031253,17.416863348015
-0.0346034774272503,17.4181035764768
-0.0314686224519508,17.4193059970086
-0.0285577603981157,17.4204704605853
-0.0258684243433907,17.4215966199861
-0.0233952887084114,17.4226840540367
-0.0211308202357011,17.4237323278658
-0.0190658226604831,17.4247410156137
-0.0171899151922139,17.4257096997212
-0.0154919572889185,17.4266379545381
-0.0139120974306701,17.4275542022158
-0.0123910194574475,17.4284938471405
-0.0109333636807206,17.4294583736514
-0.00954308549474999,17.4304498607874
-0.00822394981469752,17.4314707448794
-0.0069794774814077,17.4325239102249
-0.0058128934981,17.4336128051437
-0.00472707288746505,17.43474159794
-0.00372448411733308,17.4359153913037
-0.00280712959234584,17.4371405250382
-0.00197648201910651,17.4384250172729
-0.00123341422898811,17.4397792325413
-0.00057811775877152,17.4412169420125
-1.00007926237989e-05,17.4427571089087
0.000461410212683031,17.4443834733456
0.000831686567615891,17.4460553225614
0.00111736605641548,17.4477909541906
0.00133313743771313,17.4496112490364
0.00149278897921048,17.4515440292892
0.00160962544529034,17.4536285763542
0.00169709448725311,17.4559250108713
0.00176997861368518,17.4585369711464
0.00184769619149587,17.461683982347
0.00195003817012086,17.4654187956233
0.00208250963361275,17.4693831222072
0.00223425861997954,17.4732231935535
0.00240140526957752,17.4770100980212
0.00258057614770488,17.4808067165565
0.00276946028712387,17.4846581491608
0.00296711444545506,17.4886007874431
0.00317387673993704,17.4926669525542
0.0033911637665749,17.4968875052782
0.00362126148005331,17.5012936000863
0.00386717010260366,17.5059180635612
0.00413258289017184,17.510796845472
0.00442207079459726,17.5159703562108
0.00474157490282981,17.5214848380342
0.00507254011852222,17.5269565728556
0.00541431792341995,17.5323333312119
0.00576938183028151,17.5376107745408
0.0061408840065889,17.5427910641442
0.00653277941099439,17.5478844632001
0.00694929052086501,17.5529004179659
0.00739488492672224,17.5578464272003
0.00787429469805445,17.562727383499
0.00839260807968623,17.567545783587
0.00895538164436276,17.5723021153914
0.00956875489130506,17.5769952666568
0.0102395635921539,17.5816229796498
0.0109847320086379,17.586237019072
0.0118240928035687,17.5908758751839
0.0127756174923369,17.5955418064271
0.0138653862366333,17.6002563721869
0.0151327985558493,17.6050681503626
0.0166498128199164,17.6100978193059
0.0186010771057017,17.6157181582457
0.021076841717053,17.6219552027101
0.0226410781384106,17.6256087873788
0.0242297757331055,17.6292623720475
0.0256137616302924,17.6325525121813
0.0267831498617993,17.6355963050779
0.0277451128128369,17.6385496804284
0.0284387947822704,17.6413487002137
0.0288654206248471,17.6440940026671
0.0290093617976417,17.6469174102588
0.0288064691715963,17.6500374587702
0.0279536108990829,17.6542736650939
0.0270937966819659,17.6570160265151
0.0260417058830737,17.6597583879362
0.0249731025292418,17.6622158239447
0.023903857547966,17.6644972505422
0.0228324861858691,17.6666827722537
0.0217611748268411,17.6688146092572
0.0206934775015285,17.6709181953484
0.0196331186012346,17.6730108941252
0.0185836452580759,17.6751056337891
0.0175483336464294,17.677212686205
0.0165301732453517,17.6793406517383
0.015531872339467,17.6814970637669
0.0145558710147969,17.6836887860505
0.0136043559287698,17.6859222917164
0.0126792693345168,17.6882038858936
0.0117823243816474,17.690539871962
0.0109150129128144,17.6929367119378
0.0100786134251356,17.6954011782781
0.00927420930504902,17.6979404751571
0.00848282492320651,17.7006326529119
0.00770433391936707,17.703507913098
0.00694247207290279,17.7065883622071
0.0062011802710384,17.7098997359945
0.00548463712143609,17.7134718783236
0.00479721427580458,17.7173395699411
0.00414341614368208,17.7215435099535
0.00352775492998332,17.7261318096891
0.00295452587573167,17.7311627098358
0.00242752355162677,17.7367093360321
0.0019497144552286,17.7428684869489
0.00153205047579089,17.7496109268753
0.00126957739124498,17.7548467545203
0.00105962081546803,17.7600825821654
0.000839795701566917,17.767254565466
0.000647700343828174,17.7756468126942
0.000494039523698585,17.7848245792874
0.000375435837483631,17.7948245792874
0.000293786051232903,17.8048245792874
0.000238358269828192,17.8148245792874
0.000201339607706883,17.8248245792874
0.000177137111672596,17.8348245792874
0.000161861017296323,17.8448245792874
0.000152862559100476,17.8548245792874
0.00014835373486184,17.8648245792874
0.000147129701455632,17.8748245792874
0.000148382203053897,17.8848245792874
0.000151578372385828,17.8948245792874
0.000156381598730153,17.9048245792874
0.000162598892896226,17.9148245792874
0.000170145778988016,17.9248245792874
0.000179023692348182,17.9348245792874
0.000189306914254193,17.9448245792874
0.000201137223758795,17.9548245792874
0.000214725299583538,17.9648245792874
0.000230358718803115,17.9748245792874
0.000248417293220523,17.9848245792874
0.000269397585818007,17.9948245792874
0.000293949974773922,18.0048245792875
0.000322933960979376,18.0148245792875
0.000357501224664663,18.0248245792875
0.000399222489047013,18.0348245792875
0.000450286002525272,18.0448245792875
0.000508906530186031,18.0541187279116
0.000575709108651914,18.0626980708646
0.000651763949813056,18.0706155975639
0.000738329937419892,18.0779229008576
0.000836844607182736,18.0846679767825
0.000948937641545962,18.0908954141449
0.00107645387417793,18.09664664541
0.0012214813849554,18.1019601712121
0.00138638429333758,18.1068717627679
0.00157383940610182,18.111414658656
0.00178688084517517,18.1156197562253
0.00202895174137723,18.1195157946148
0.00230396783215476,18.1231295291803
0.00261639548864883,18.1264859085924
0.00297135004199018,18.1296082593469
0.00337472328547741,18.132518478028
0.00383335101635748,18.1352372416062
0.00435524244259625,18.1377842534968
0.00494990465972895,18.140178546534
0.00562882037045456,18.1424388852029
0.00638379037049089,18.1445278016897
0.00721860454607899,18.1464629491696
0.00814586553068927,18.1482784756504
0.00918468227488888,18.1500093301281
0.0103669066848846,18.1516968068785
0.0117625346865125,18.1534120731126
0.0136291474801865,18.1553847515867
0.0153677770341404,18.1570032268847
0.0172630624372278,18.1586217021827
0.018960159734368,18.1600072377147
0.0204379055828755,18.1612132904577
0.0217604380997079,18.1623374205595
0.0229419194137058,18.1634314470978
0.0239724493301615,18.1645338720857
0.0248250102459367,18.1656870332561
0.0254475322709589,18.166957457786
0.0257190493708071,18.1685075511834
0.0253736530318926,18.170321212648
0.024416560039953,18.1721348741126
0.0233004446296822,18.1736033359738
0.0220486832758196,18.1749947725707
0.0206548970794256,18.1764078873151
0.0191270243088201,18.1778871143394
0.0174720459241989,18.1794702704158
0.0157172259742176,18.1812045968673
0.014397102869088,18.1826045943767
0.0118981653372511,18.1855599171538
0.00983660576759621,18.1884093762383
0.00821513316514821,18.1910274229013
0.0068898156148517,18.1935146213464
0.00573356831694323,18.1960383002301
0.0047186024308887,18.1986289939295
0.00382601556039513,18.2013100634076
0.00306956709371799,18.2039929978755
0.00246090470555481,18.206529819559
0.00196170198073155,18.2089519333009
0.00154234974154877,18.2113024983468
0.00118009416748328,18.2136360711057
0.00085574166797104,18.2160328954069
0.000547205480866149,18.218659189474
0.000280852410777123,18.2212734430632
9.87346605445771e-05,18.2232911370946
-6.59435373839508e-05,18.2253088311261
-0.000199399688673015,18.2270999118851
-0.000315256963612454,18.2287832921095
-0.000423183718230014,18.2304711719246
-0.000530135501238454,18.2322694799877
-0.00064497150337504,18.2343534547771
-0.000793581329727405,18.237310609693
-0.000964775007512646,18.2411244900895
-0.0010927559839439,18.2442970969684
-0.00120634932464583,18.2473720102981
-0.00132485310686055,18.250875443629
-0.00145934224318357,18.2553010743619
-0.00160531420354289,18.2609696315139
-0.0016971736874389,18.2658514272659
-0.00173729349635228,18.2702769681891
-0.00171738758650776,18.2742508829275
-0.0016300084950667,18.2778246139901
-0.00146792994642766,18.281061729812
-0.00122350756897451,18.2840268974352
-0.000887078370906669,18.2867867039761
-0.000444726717088133,18.2894079342248
0.000125222307752859,18.2919608723155
0.000865266386606484,18.2945495801847
0.0018735090067486,18.2973649103597
0.00323167746175802,18.3004544903828
0.00493720949722425,18.3036963217536
0.00625470320030835,18.3058799619371
0.00773071529108878,18.3080636021206
0.00921097663052833,18.3100061329456
0.0107210400638696,18.3117590524589
0.0123301313287663,18.3134037279676
0.0140686181172333,18.3149592872954
0.015980737212984,18.316449547671
0.0180982684255074,18.3178809333989
0.0204547424718669,18.3192582570284
0.0230817892436926,18.3205832154608
0.0260182259264528,18.3218596347419
0.0292990276088726,18.3230880002949
0.032972719022179,18.3242725554748
0.037090588510481,18.325416085992
0.041711777202212,18.3265215506016
0.0469036287226718,18.3275917719328
0.0527506989415734,18.328630767633
0.0593510462369579,18.3296421676509
0.0668228180941733,18.3306298472446
0.0753103131380865,18.3315980254252
0.0849916627382643,18.3325513217204
0.0960935912512684,18.3334952024195
0.108909212706346,18.3344361373225
0.123829592087841,18.3353822071039
0.141398862262901,18.336344168285
0.162304104203277,18.3373324364605
0.186513097204674,18.3383235689596
0.214663574586139,18.3393280988257
0.247613567274894,18.3403610312461
0.286636130446035,18.3414469846645
0.331898424864871,18.3425857179219
0.372392090894388,18.3435430908714
0.406182834944235,18.3443304384496
0.435459512817472,18.3450315162483
0.461042745582289,18.3456887703523
0.48303311476281,18.3463282425741
0.501107862484365,18.34697186389
0.514482055623391,18.3476440986575
0.52155860577708,18.3483810854442
0.519282669781737,18.3491896454811
0.505659881992895,18.3500173464903
0.47936711003884,18.3508801778295
0.438689842753531,18.3517898009734
0.381727677399229,18.3527548597995
0.337808200347587,18.3533813501536
0.289329173871758,18.3540078405076
0.246085207550511,18.3545340188094
0.208928110900418,18.3549755190016
0.176230389623722,18.3553649646707
0.146911930704111,18.3557220274365
0.120316294350577,18.3560588660049
0.0959906507742388,18.356384297421
0.0735653015962769,18.3567061490559
0.0526561752141675,18.3570335408063
0.0326705788583277,18.3573821039023
0.0117536505458939,18.3578029525501
0.00111177469569819,18.3580494259424
-0.00622015561775222,18.358236930515
-0.012920442264633,18.3584244350877
-0.0187931156075032,18.3586046606493
-0.0247840533137995,18.3588078541381
-0.0306192816607407,18.3590299832594
-0.0361176551699704,18.3592683798587
-0.0411779430504728,18.3595219686352
-0.0457465902975984,18.3597907148095
-0.0497985386282584,18.3600753076337
-0.0533195956623269,18.36037700424
-0.0563247329485564,18.3607000496765
-0.0587602862602923,18.3610389243207
-0.0606920215668954,18.3614014533982
-0.0621346631410835,18.3617911508584
-0.0631021632765287,18.3622122743472
-0.0636066982032288,18.3626701169561
-0.0636570658917597,18.3631713496742
-0.0632567292734517,18.3637245468003
-0.0623991055791713,18.3643422250529
-0.0610634982114251,18.3650408831311
-0.0592070991144039,18.3658445571568
-0.0567428008087338,18.3667929478003
-0.0534659370641513,18.3679675301353
-0.0493919006940457,18.3693779418069
-0.0454356753228595,18.3707390213764
-0.0416532887141658,18.372057789341
-0.0380727686555673,18.373337245148
-0.0347083863568937,18.374578598699
-0.0315666504226537,18.375782152351
-0.0286489405643484,18.3769477630569
-0.0259528847208591,18.37807508551
-0.0234732317260001,18.379163698474
-0.0212025058119828,18.3802131662404
-0.019131553255612,18.3812230620725
-0.0172500223688351,18.382192967978
-0.0155467897034892,18.3831224586643
-0.013965193709876,18.3840380044564
-0.0124422203306482,18.3849769144063
-0.0109825456882995,18.3859406472693
-0.00959013007117065,18.3869312723383
-0.00826874503751788,18.3879512137008
-0.00702191963225492,18.3890033403492
-0.00585288869653027,18.3900910812262
-0.00476453879479804,18.3912185797319
-0.00375935171901073,18.3923909059642
-0.00283934508324211,18.3936143561302
-0.00200600884360285,18.3948968884649
-0.0012602353773065,18.3962487824448
-0.000602238517505552,18.3976836832789
-3.14523528934831e-05,18.3992203572178
0.000443337551845032,18.4008456085356
0.000816444188065337,18.4025157888904
0.00110448809635071,18.404249196539
0.00132219035086635,18.4060665448476
0.00148336091148068,18.407995393566
0.0016013110009312,18.4100745726521
0.0016894700709636,18.4123633404498
0.00176254867139515,18.4149633887386
0.001839714365292,18.4180882701014
0.00194148911099142,18.4218222829471
0.00207272875608265,18.4257736072299
0.00222393219961405,18.4296177239618
0.00239060691176943,18.4334055355323
0.00256934945448932,18.4372007195983
0.00275781110406692,18.441048930726
0.00295500837086805,18.4449868319767
0.0031612419103779,18.4490468614843
0.00337789494613458,18.4532599059654
0.00360722317354059,18.4576570779764
0.00385219645863711,18.4622711010671
0.00411647089547752,18.4671377566957
0.00440456335763337,18.4722972331524
0.00472232825025243,18.477795490643
0.00505302101884426,18.483279019734
0.00539390387140389,18.4886593361441
0.00574809954788443,18.4939432743263
0.00611847236668009,18.4991286600777
0.00650903253391375,18.5042268672807
0.00692396196826786,18.5092470833191
0.00736771942305215,18.5141970412719
0.00784501416858483,18.5190817422009
0.00836090869609871,18.5239038089135
0.00892092681361114,18.5286638269868
0.00953116950412432,18.5333607641068
0.010198427309213,18.5379924114443
0.0109384965901807,18.5426045331638
0.0117719575185285,18.5472422496272
0.0127162885135787,18.5519061274561
0.0137970732928254,18.5566169088565
0.0150525926400572,18.5614207397317
0.0165518265948286,18.5664316575186
0.0184668307916442,18.5719942418803
0.0209422599332014,18.5782722176969
0.0225179329019722,18.5819638656238
0.0241237467023562,18.5856555135508
0.0255242546464168,18.5889713166537
0.0267080797815741,18.5920267711359
0.0276848980911562,18.5949821554305
0.0283977384808323,18.5977891323686
0.0288437337646031,18.6005342462323
0.0290092812073489,18.6033466114012
0.0288357137623645,18.6064328146171
0.0280634306050545,18.6104994541683
0.0272160971311277,18.6133013369671
0.0261620232733079,18.6161032197659
0.0250922215555867,18.618590715104
0.0240231046126988,18.6208870368475
0.0229518981035614,18.6230807510974
0.0218804088421137,18.6252171377939
0.0208121182724408,18.6273229323415
0.0197507566470375,18.629416167241
0.0186998976829776,18.631510157038
0.0176628491623381,18.6336154119425
0.0166426324068521,18.6357406843096
0.0156419863003902,18.6378936048206
0.0146633801236399,18.6400810969258
0.0137090281178548,18.6423096664363
0.0127808989077672,18.6445856294298
0.011880731025213,18.6469152815975
0.0110100401077179,18.6493050620697
0.0101701277518028,18.6517617035229
0.00936209898694815,18.6542923553227
0.00856954119424316,18.6569654657395
0.00778944893403658,18.6598195075151
0.00702556643268393,18.6628761198449
0.0062818066259819,18.6661606277564
0.00556232344144946,18.6697023851023
0.00487146946959542,18.6735355846357
0.00421373929852643,18.6777002111631
0.00359365216306359,18.6822434637342
0.00301554150595392,18.6872222736833
0.00248327420525742,18.6927077740357
0.00199991809090215,18.6987936020078
0.00157452979518228,18.7054855003191
0.00121613801281521,18.7126765112938
0.000994440227364095,18.7186305153564
0.000770304404898094,18.726632318747
0.000590360990262694,18.7353664893808
0.000449731751277138,18.744789886406
0.000344859917430771,18.7547898864061
0.000272973580122486,18.7647898864061
0.000224431465756402,18.7747898864061
0.000192220192367339,18.7847898864061
0.000171364972828145,18.7947898864061
0.000158435699189638,18.8047898864061
0.00015110745519573,18.8147898864061
0.000147812870071439,18.8247898864061
0.000147496640156177,18.8347898864061
0.000149453536105063,18.8447898864061
0.00015322350152553,18.8547898864061
0.000158522780749085,18.8647898864061
0.000165197923445294,18.8747898864061
0.000173195293799439,18.8847898864061
0.000182541921335922,18.8947898864061
0.000193335180431221,18.9047898864061
0.000205739783681238,18.9147898864061
0.000219991393637941,18.9247898864061
0.000236406987743886,18.9347898864061
0.000255403060642322,18.9447898864061
0.000277523965653196,18.9547898864061
0.000303484445302329,18.9647898864061
0.000334233141253217,18.9747898864061
0.000371048441945206,18.9847898864061
0.000415686000504088,18.9947898864061
0.000469291133594105,19.0045697188491
0.000530545193985141,19.0136164780865
0.000600317439804419,19.0219659073767
0.000679745284797636,19.0296714139633
0.000770146253807658,19.0367833661036
0.000873019897454956,19.0433485691146
0.000990065178020866,19.0494105097304
0.00112320515890716,19.0550095986744
0.00127461671997329,19.0601833854639
0.00144676437851715,19.0649667583098
0.00164243952155298,19.0693921386936
0.00186480694832106,19.0734896705035
0.00211746069319322,19.0772873991857
0.00240449123526972,19.0808114458968
0.00273057029916833,19.0840861867107
0.00310105746295456,19.087134439529
0.00352213934374705,19.0899776603394
0.00400101538414661,19.0926361633762
0.00454615403755659,19.0951293832412
0.00516766018759095,19.0974762044092
0.0058744303126191,19.099685736694
0.00665516294595466,19.1017188401084
0.0075193678882717,19.1036095560983
0.00848150512171974,19.105392132838
0.00956392438382684,19.1071027166829
0.0108057058994403,19.1087872548709
0.0123213487314928,19.1105580823108
0.0144982315899007,19.112736843485
0.0161297902768454,19.1141896686547
0.0178701971168041,19.1156424938244
0.0194727408445241,19.1169438661904
0.0208951631660603,19.1181144886556
0.022171511364423,19.1192238183293
0.0233055069822862,19.1203162303684
0.0242815938448626,19.1214298639713
0.0250661768484083,19.1226119359195
0.0255931535550311,19.1239465800014
0.0256799338150395,19.1256910585011
0.025154461583633,19.1273803575541
0.0241358737256833,19.1290696566072
0.0229852852310321,19.1305004159261
0.0216949389541709,19.1318916611377
0.0202641578224339,19.1333186461787
0.0187015101767705,19.1348217349919
0.017012543384179,19.1364399410347
0.0155827083358044,19.1378679852562
0.0131121913453318,19.1405926463951
0.0107850723475841,19.1435671783494
0.0089642259007921,19.1462932609962
0.00751416435396828,19.1488217326412
0.00627949344042399,19.1513232941918
0.00519818169403521,19.1538782355604
0.00424789948407656,19.156512272613
0.00341188119575574,19.159248489787
0.00273616696765711,19.1618584030116
0.00218788683424318,19.1643352202029
0.00173309410234766,19.1667173035891
0.00134599027618932,19.1690527499954
0.00100617780578607,19.1714053615599
0.000694666077298734,19.1738812920975
0.000380459826293385,19.1767774738593
0.000174631807555676,19.1789493099571
-9.70774881936204e-06,19.1811211460548
-0.000155206007050005,19.1830134019118
-0.000276424234372681,19.1847275346257
-0.000386262811436454,19.1864018836406
-0.000492267613264396,19.1881385474607
-0.000601785980511978,19.1900696394217
-0.000729027739200316,19.1925052799874
-0.000938652293600499,19.1970213336948
-0.00110218607348801,19.2010424769585
-0.00122833032182141,19.2044876321049
-0.00135239506465918,19.2082146440633
-0.00149346465658331,19.2129705779447
-0.00162964119260869,19.2184725664124
-0.00171361518664349,19.2232787477844
-0.0017443435516998,19.227624395477
-0.00171364547821035,19.2315268783846
-0.00161406461235841,19.2350398834203
-0.00143847950288974,19.2382250897523
-0.00117883535772927,19.2411516060581
-0.000824687768831959,19.2438862860023
-0.000361022255653027,19.2464948517745
0.000237841312793329,19.2490563834712
0.00101771452041536,19.2516719005721
0.00209503331283319,19.2545632735082
0.00351517775269292,19.257680797539
0.0052829242007898,19.2609375464307
0.00657246427671249,19.2630153557455
0.00801284701309665,19.2650931650604
0.00948172837885504,19.2669753562553
0.011034771213131,19.268734456925
0.0126505824420626,19.2703435470736
0.0144253641157591,19.2718902529404
0.0163738162068002,19.2733680566399
0.018534051102229,19.2747884236284
0.0209412281038459,19.2761564432686
0.0236232791763421,19.277471387332
0.0266220396399326,19.2787384096978
0.0299752697151614,19.2799586912909
0.0337287538225857,19.2811350257825
0.0379371584811077,19.2822709737369
0.0426615347492693,19.2833695513657
0.0479727921813061,19.2844338677575
0.0539554073584354,19.2854673764952
0.06071216692036,19.2864740167587
0.0683657653199853,19.2874577275219
0.0770664173970674,19.2884228074106
0.0870010927159443,19.2893740740999
0.0984063204330926,19.2903170358504
0.111591750463233,19.2912584782929
0.126972884063444,19.2922069097466
0.145133656517132,19.2931738157485
0.166623329290556,19.2941621668205
0.191525888188027,19.2951551979093
0.220513753455081,19.296164130558
0.254503034062445,19.2972052412757
0.294897472410878,19.2983064165048
0.331510158700115,19.2992204944657
0.370104973321176,19.3001345724267
0.404022500714291,19.3009252368363
0.433529374328684,19.3016303393113
0.459329026069989,19.3022898172271
0.481543681523244,19.3029300382929
0.499875632414732,19.3035729690954
0.513575671860066,19.3042426871395
0.521121395841468,19.3049740701943
0.519514086884353,19.3057822265768
0.50663063137197,19.3066083737722
0.481176969454178,19.3074687080943
0.441459914746531,19.3083751541381
0.385587530983145,19.3093363780522
0.341343438320701,19.3099743085525
0.292288221504077,19.3106122390527
0.248558745992703,19.3111459683801
0.211076721677724,19.3115917953431
0.178146196759341,19.3119838628892
0.148645796598329,19.3123425895039
0.121900509340701,19.3126804571935
0.0974492892321525,19.3130064129988
0.0749202102341664,19.3133282864998
0.0539340417583683,19.3136550195751
0.0339236800404531,19.3140014983785
0.0132235797630872,19.314413597509
0.0014306725650858,19.3146844231311
-0.00594136812397849,19.3148723529801
-0.0126781239125643,19.3150602828291
-0.0185359961464898,19.3152394280705
-0.024526835921,19.3154417723483
-0.0303720389973345,19.3156632154179
-0.0358861237394695,19.315901003613
-0.0409652756579544,19.3161540072577
-0.0455544108715112,19.3164221556759
-0.0496275476544881,19.3167061118321
-0.0531703491171544,19.3170071110205
-0.0562124650546699,19.317331201983
-0.0586662731164542,19.3176693432682
-0.0606156295897382,19.3180310067815
-0.0620754206636929,19.3184197022737
-0.0630596323267073,19.3188396548764
-0.0635805287652685,19.3192961148245
-0.063647059444396,19.3197956950271
-0.0632629218873023,19.3203468877865
-0.0624220104605842,19.3209620294321
-0.0611042235586186,19.3216574503321
-0.0592678381373206,19.3224568071025
-0.0568281230558212,19.3233989620671
-0.0535878449239118,19.3245627599105
-0.0495114479296083,19.3259751434057
-0.0455507530242925,19.3273376494434
-0.0417626322544419,19.3286576872821
-0.0381757356618101,19.3299383421504
-0.0348046565165152,19.3311808673149
-0.0316560999432502,19.332385587155
-0.0287315824003176,19.3335523694008
-0.0260288341910199,19.3346808735795
-0.0235426829773635,19.3357706802225
-0.0212657131752719,19.3368213539605
-0.0191888153543256,19.3378324679533
-0.0173016681101286,19.3388036042927
-0.0155931658967367,19.3397343383932
-0.0140098574849208,19.3406491848945
-0.0124850112120398,19.3415873622766
-0.011023339408452,19.3425503036797
-0.00962880731972601,19.3435400687297
-0.00830519318680484,19.3445590693509
-0.00705603428551674,19.3456101593208
-0.00588457530553112,19.3466967483128
-0.00479371435208068,19.3478229549614
-0.00378594652930212,19.3489938169619
-0.00286330463730423,19.3502155872005
-0.0020272958444965,19.35149616444
-0.00127883201765562,19.3528457437843
-0.00061814919752307,19.3542778456674
-4.47072332140053e-05,19.3558110415799
0.00043346182052611,19.3574351958826
0.000809397372597952,19.3591037237398
0.00109980442834663,19.3608349269512
0.00131943708937493,19.3626493534144
0.00148212796414456,19.3645743041745
0.00160119610035663,19.3666481652499
0.00169005502840809,19.368929350263
0.00176334809429541,19.3715176564489
0.00184000705826555,19.3746208989374
0.00194127323618933,19.378354422678
0.00207136330980181,19.3822930678787
0.00222201652696932,19.3861391740548
0.00238829203892916,19.3899274406547
0.00256675639237487,19.3937218595548
0.00275501832567629,19.3975683755688
0.00295205098986811,19.4015037942762
0.00315811812788601,19.405560613778
0.00337457446257713,19.40976973426
0.00360365483359264,19.4141622458739
0.0038483134977573,19.4187708180055
0.00411219173194714,19.4236311430346
0.00439978641337223,19.4287832914189
0.00471691835629157,19.434273072236
0.00504764783899001,19.4397606379228
0.00538831484211077,19.4451414883128
0.00574233129125909,19.4504274195196
0.00611243215184955,19.455614261923
0.00650265500977401,19.4607138652304
0.00691716700224686,19.4657352747131
0.00736042800355313,19.470686314966
0.00783714305833233,19.4755720240134
0.00835236988669427,19.4803950704358
0.00891162496869828,19.4851560722747
0.00952099991646389,19.4898540220287
0.010187273733288,19.4944867258677
0.010925938756233,19.499098317404
0.0117577767027635,19.5037357207216
0.0127001326529152,19.5083990415916
0.0137784571929673,19.5131088054626
0.0150307324130524,19.5179105094213
0.0165251521683475,19.5229164380679
0.0184305327641323,19.5284639174197
0.0209058274071013,19.5347531616667
0.0224845615658899,19.5384552303456
0.0240949882702426,19.5421572990246
0.025500005481897,19.5454802581243
0.0266877340926309,19.5485389922995
0.0276685426230867,19.5514950251024
0.028386540593723,19.5543042450109
0.028837730416957,19.5570494155468
0.0290090378722569,19.5598589770522
0.0288431835345489,19.5629365414043
0.0280906099797433,19.5669627075421
0.0272464946188856,19.5697806572249
0.0261917308226544,19.5725986069077
0.0251215493448443,19.5750939903726
0.0240524501086703,19.5773941387049
0.0229812872136682,19.5795899402899
0.0219097610732715,19.5817274860004
0.0208413325068551,19.5838338482422
0.0197797325287668,19.5859272305444
0.0187285412157996,19.5880210455101
0.0176910740993048,19.5901258635035
0.016670360362514,19.5922504750287
0.0156691464544194,19.5944025350428
0.0146899088926486,19.5965889817058
0.0137348687423126,19.5988163287167
0.0128060011586951,19.6010908944965
0.0119050509793983,19.6034189722633
0.0110335397095606,19.6058069948573
0.0101927746797885,19.6082616841896
0.00938386625353686,19.6107901750156
0.00859102388704018,19.6134586066702
0.00781054216705913,19.6163074420334
0.00704616722757134,19.6193582066043
0.00630180511596179,19.6226361248008
0.00558160363443579,19.62617043049
0.00488991059611848,19.6299951724203
0.00423121802177547,19.6341501605748
0.00361004650992116,19.6386823721956
0.00303073840073909,19.6436484223069
0.00249717773548621,19.6491189662075
0.00201245731129555,19.6551868789512
0.00158515285279739,19.6618664773531
0.00122504093909431,19.6690428127167
0.000989716706992129,19.6753395225413
0.000766231354213947,19.683363670615
0.000587414824278672,19.6920968373686
0.000447578431922223,19.701524919709
0.000343360589572284,19.711524919709
0.000271927846787951,19.721524919709
0.000223699686571265,19.731524919709
0.000191705592189557,19.741524919709
0.000171000951916604,19.751524919709
0.0001581766303444,19.761524919709
0.000150922148745617,19.771524919709
0.000147680059011825,19.781524919709
0.000147401915390894,19.791524919709
0.000149387273634748,19.801524919709
0.000153179454829166,19.811524919709
0.000158497121838478,19.821524919709
0.000165188593399874,19.831524919709
0.000173201572514038,19.841524919709
0.000182564157017387,19.851524919709
0.000193374640085306,19.861524919709
0.000205798601191289,19.871524919709
0.000220072604671658,19.881524919709
0.000236514652436902,19.891524919709
0.000255542487635234,19.901524919709
0.000277702067057822,19.911524919709
0.000303710275326615,19.921524919709
0.000334518707934429,19.931524919709
0.000371409943392127,19.941524919709
0.000416145746646292,19.951524919709
0.000469833797488442,19.9612974947338
0.000531180094262028,19.970337236517
0.000601056783738554,19.9786801528647
0.000680603230465088,19.9863796304742
0.000766984877275807,19.9931898152371
0.000873360536562868,20
