ecg,time
0.00128096862793575,15.0037833179708
0.00145395957145584,15.0086218745617
0.00165023680295561,15.013097523754
0.00187292613328596,15.0172408769849
0.00212557906572111,15.0210804012391
0.00241223925819474,15.0246425940835
0.00273752638087595,15.0279521679219
0.00310674093108971,15.0310322451523
0.00352600193803711,15.0339045563141
0.00400242896355332,15.0365896604615
0.0045443935869775,15.0391072104735
0.00516187989677236,15.0414762821318
0.00586566206718064,15.0437118829263
0.00664287598493781,15.0457678596318
0.00750286464744143,15.0476786008045
0.00845990121479913,15.0494787919923
0.00953598334885492,15.0512048561465
0.0107694070203749,15.0529027313962
0.0122668599601768,15.0546782286647
0.0144001205656718,15.0568463723981
0.0160241333198692,15.0583140922378
0.0177594777257943,15.0597818120775
0.0193635974595571,15.0610991695036
0.0207855232023125,15.0622804267658
0.0220610880968353,15.0633973314724
0.0231951827391929,15.0644952094328
0.0241731243414276,15.065612270994
0.024962534611962,15.0667949690744
0.0255001062267448,15.0681243845726
0.0256167905003713,15.0698383942427
0.0251223228459077,15.0715489457558
0.0241220606949899,15.0732594972689
0.022985439133958,15.0747000625942
0.0217105762399319,15.0760947248163
0.0202966295150319,15.0775218855999
0.0187523788496398,15.0790224226071
0.0170839635510868,15.0806348711074
0.0154463756188466,15.082289149344
0.0132126368083106,15.0847824458469
0.011328092131558,15.087170390257
0.00974316069672569,15.0894552080198
0.00839562402328075,15.0916664326605
0.00723094772569373,15.0938437953509
0.00619777835883919,15.0960507568889
0.00523299229949173,15.0984254639028
0.0043152986505806,15.10106917739
0.00376894036210178,15.1028835913974
0.00328232040730428,15.1046980054048
0.0028884566903866,15.1063385422057
0.00255256956480272,15.1078884836401
0.00224641337880998,15.1094497139153
0.00195070814606945,15.1111227583376
0.00164282670261435,15.113080049324
0.00125782087659437,15.1159351935452
0.000865374374940715,15.1195143840394
0.000587614388452202,15.1226740176087
0.000364460920684366,15.1258072514581
0.00015792693216799,15.1294817304478
-4.4343930772567e-05,15.1344847020694
-0.000175326303424995,15.1398922733174
-0.000217916175160495,15.144675783294
-0.000190306047451875,15.1490038052097
-9.86923769700691e-05,15.1529001135446
5.4912240952395e-05,15.1564118509435
0.000271122515761151,15.1595863139643
0.000552534850481552,15.1624723049356
0.000904297928595115,15.1651227277229
0.00133499682414069,15.1675916289023
0.00185880664984232,15.1699368001492
0.00249962310720582,15.1722247354423
0.00330210126036246,15.174547290883
0.00436940993597287,15.1770778032433
0.00582707591914366,15.1799292080028
0.0076254772805154,15.1828666106733
0.00899900174575728,15.1848061433788
0.0105549370529333,15.1867456760842
0.012151745106405,15.188488952636
0.0138329543562709,15.1900915110629
0.0156563190505276,15.1916025583518
0.0176529809101079,15.1930347387411
0.0198757026016214,15.1944098575613
0.0223525417434772,15.1957279546606
0.0251312745007742,15.1969980253868
0.0282440864401079,15.1982190368284
0.0317426322292876,15.1993966394066
0.0356760032722252,15.2005329569109
0.040095717708947,15.201629383622
0.0450720334389788,15.2026901926578
0.0506813773055503,15.2037183847685
0.0570138055650907,15.2047171509179
0.0641763116926184,15.2056898511731
0.0722964564998983,15.2066399591427
0.0815335626433397,15.2075716888734
0.0920820481498058,15.2084893949137
0.104185709752485,15.2093979956711
0.118156320210798,15.2103032277413
0.134401857379243,15.2112120170885
0.153474366208062,15.2121332076768
0.176156371054223,15.2130789152859
0.20248114919491,15.214028634681
0.233014378840922,15.2149872278672
0.268606271682746,15.2159668652639
0.310498384229344,15.2169881583108
0.350242610717941,15.2178690184926
0.392485731613498,15.2187498786744
0.428851515147344,15.2194920887339
0.460214599514397,15.2201459537006
0.487702479505535,15.2207569795853
0.511569765814205,15.2213527966942
0.531553344703855,15.2219563340683
0.546873358465499,15.2225944041294
0.555797227473627,15.2233113820698
0.55477782720664,15.2240870688689
0.541929182243187,15.224889303047
0.515801405843683,15.225736962545
0.474355688736434,15.226644757866
0.416999323935434,15.2275953127025
0.367438694112124,15.228281297171
0.311982870300934,15.2289672816395
0.263473151179056,15.2295270971548
0.222805428083748,15.2299832214867
0.187579677636757,15.2303781739178
0.156285825303865,15.2307362199424
0.128066588548274,15.2310713892438
0.102365949018561,15.231393274437
0.0787567230152802,15.2317099206971
0.0568270717937702,15.2320301229101
0.0360020260270797,15.2323678304275
0.0147439660375424,15.2327629285513
0.00033611435739584,15.233074028328
-0.00713953216241666,15.2332550543213
-0.0139785642768121,15.2334360803146
-0.0199399546487649,15.2336088679544
-0.0260593778633351,15.2338045391286
-0.0320480833209244,15.2340190857996
-0.0377108799933655,15.2342497456576
-0.0429376095884972,15.2344953549988
-0.0476692627238722,15.2347557996551
-0.0518775338672979,15.2350316940247
-0.0555528800336764,15.2353242202439
-0.0586944235741531,15.235635064069
-0.0614302459490825,15.2359856128576
-0.0634684183221125,15.2363386171224
-0.0650069246742193,15.2367178699556
-0.0660620668524739,15.2371277969169
-0.0666467233894555,15.2375735958658
-0.0667703918121872,15.2380618257433
-0.0664371839628839,15.2386009324486
-0.0656415493103098,15.2392030001574
-0.0643631307907723,15.2398844730337
-0.0625590633202135,15.2406690843284
-0.060141470600689,15.2415960505693
-0.0569034567232738,15.242745815448
-0.0527302284081271,15.2441704562739
-0.0486615561087633,15.2455456579804
-0.0447579603435268,15.2468795610778
-0.0410512989714146,15.2481750779667
-0.0375583169797306,15.249433317057
-0.0342874494411193,15.2506544773567
-0.0312417054484518,15.2518383166954
-0.0284201120935738,15.2529843987951
-0.0258185986129099,15.2540922222852
-0.0234306498917734,15.2551612843907
-0.0212478540252591,15.256191106485
-0.019260389711538,15.257181235949
-0.0174574664945302,15.2581312322656
-0.0158277193471818,15.2590406417152
-0.0142642764673475,15.2599671519169
-0.0127617560062896,15.2609175913273
-0.0113242687735577,15.2618938211527
-0.00995567802579291,15.2628980683849
-0.00865962979989889,15.2639329565348
-0.00743950106254343,15.2650016054501
-0.00629834593789241,15.2661077634756
-0.00523883936878806,15.2672559868155
-0.00426321782911804,15.2684518889771
-0.00337321611298964,15.2697024978111
-0.00256999819744859,15.2710167844311
-0.00185407828545651,15.2724064801785
-0.00122522440622337,15.273887405805
-0.000682328876659751,15.2754817830192
-0.000245455737786489,15.277126118309
9.82198334046286e-05,15.2788244232025
0.000364218554988801,15.2805952881297
0.000566873966271833,15.2824623529763
0.000719814765936665,15.2844578636655
0.000836477592915897,15.2866288899196
0.000930956022302043,15.2890509668304
0.00101990684431526,15.2918647388847
0.00112932943856451,15.2954196390441
0.00126061785207493,15.2992032384493
0.00143085151361762,15.3034100031208
0.00165647833282278,15.3083418015941
0.00189762974228983,15.3132559822529
0.00214637841392059,15.3181881069897
0.00237707818623176,15.3227302730643
0.00258292366331946,15.3267814704877
0.00277882683494598,15.330633754069
0.00297191693027157,15.3344129681023
0.00316667262436159,15.338188898086
0.00336657758801456,15.3420093951495
0.00357472054407625,15.3459121758127
0.00379407322315744,15.3499297637339
0.0040276976482459,15.3540927106042
0.00427890196762149,15.3584314445036
0.0045514055169467,15.3629776094546
0.00484958111930803,15.3677653875593
0.00517885724932819,15.3728328589134
0.00554494025412109,15.3782023827836
0.00591911261881016,15.3834000811407
0.00631325847462845,15.3885639176131
0.00672625053013192,15.3936344949902
0.00716306917285878,15.3986292186309
0.00762799679532121,15.4035493721319
0.00812639897495185,15.4084022733487
0.00866399902410657,15.4131920232218
0.00924704203143676,15.4179207788017
0.00988233689447203,15.4225886200088
0.0105783823329357,15.4272005432449
0.0113605229190309,15.4318487321749
0.0122428805269141,15.4365225127267
0.0132478363061586,15.44123893627
0.0144066274634056,15.4460302686816
0.0157707615013178,15.4509738489239
0.0174483713751995,15.4562764732696
0.0198311959658896,15.4627978331693
0.0214880224967703,15.4668949063682
0.0232155571493091,15.4709919795671
0.0247095641105161,15.4745589276535
0.0259655297401449,15.477749254679
0.0270142986871308,15.4807716528921
0.027829742066176,15.483686523646
0.0283777288566672,15.4864879526659
0.0286549035158587,15.4892968871874
0.0286267889596554,15.4922748313311
0.0281675511984781,15.4957913085491
0.0273734766572149,15.4990211451243
0.0262813824539122,15.5022509816995
0.0251933094584749,15.5049428163484
0.0241197173939431,15.5073496816522
0.0230465804992587,15.5096192582291
0.0219729091164725,15.5118146472719
0.0209016303215605,15.513969483997
0.0198364281729639,15.5161052647476
0.0187809661756535,15.5182373279379
0.0177386850471431,15.5203774720374
0.0167127493336143,15.5225353203805
0.0157060814177522,15.5247191083204
0.0147213176658958,15.5269361860556
0.0137607994600078,15.5291933590238
0.0128266221098939,15.5314971308816
0.0119206412386171,15.5338539066248
0.0110444843172772,15.5362701504662
0.0101995623577864,15.5387525232229
0.00938707302422401,15.5413080371872
0.00860445702524864,15.5439566918783
0.00783377185008152,15.5467813839783
0.00707884002782391,15.5498019972465
0.00634343523658222,15.5530424927368
0.00563155233498069,15.5565305417734
0.00494737425059435,15.5602982085798
0.00429520780077065,15.5643828394656
0.00367937800850606,15.5688283041451
0.00310404880874796,15.5736870822061
0.00257297424734682,15.5790239451981
0.00208920017147228,15.5849226757888
0.00165492764319329,15.5914957948238
0.0012842807404299,15.5986198850773
0.000975038573563272,15.606326022458
0.000728497108008657,15.6147402477878
0.000544333456781745,15.6238235357404
0.000415650114373309,15.6327542188723
0.000312508848368232,15.6427542188723
0.000240761674514686,15.6527542188723
0.000191441633192713,15.6627542188723
0.000158091755308917,15.6727542188723
0.000135969713283202,15.6827542188723
0.000121678353787478,15.6927542188723
0.000112861027661803,15.7027542188723
0.000107916482761469,15.7127542188723
0.000105764162086204,15.7227542188723
0.000105674835173507,15.7327542188723
0.000107157950060499,15.7427542188723
0.000109888695303387,15.7527542188723
0.000113660100426382,15.7627542188723
0.00011835075011986,15.7727542188723
0.000123902801331631,15.7827542188723
0.000130307307323235,15.7927542188723
0.000137594983262208,15.8027542188723
0.000145831149064602,15.8127542188723
0.000155114007885285,15.8227542188723
0.000165575784323675,15.8327542188723
0.000177386585674409,15.8427542188723
0.000190761182850662,15.8527542188723
0.000205969272114158,15.8627542188723
0.000223350233961083,15.8727542188723
0.00024333404065306,15.8827542188723
0.000266470918481302,15.8927542188723
0.000293473877815816,15.9027542188723
0.000325280692947505,15.9127542188723
0.000363146095090965,15.9227542188723
0.000408782262692139,15.9327542188723
0.000464024889203572,15.9426630729019
0.000526954371486439,15.9518308509696
0.000598389654075489,15.9602895041478
0.000679441632246677,15.9680936307895
0.000771404104648905,15.9752947940129
0.000875752541498698,15.9819408266734
0.000994160008665465,15.9880761032181
0.00112852135335747,15.9937418114235
0.00128098269840747,15.9989761842573
0.00145397549836395,16.0038147068634
0.00165025483702941,16.0082903249283
0.00187294655905893,16.0124336496827
0.00212560220691128,16.0162731479208
0.00241226548376745,16.0198353170363
0.00273755611305146,16.0231448692762
0.00310677465552718,16.0262249269003
0.00352604021688285,16.0290972203273
0.00400247245350546,16.0317823085116
0.00454444306437475,16.034299844258
0.00516193629396605,16.0366689033054
0.00586572428008622,16.0389044866976
0.00664294465816856,16.0409604490289
0.00750294075333307,16.0428711788014
0.00845998617610133,16.0446713614924
0.00953607945404761,16.0463974203928
0.0107695185420739,16.0480952949364
0.0122670034344185,16.0498708072151
0.0144003561343387,16.0520390139907
0.0160243695230426,16.0535067163584
0.0177597060008515,16.054974418726
0.0193637980621569,16.0562917508984
0.0207857039286656,16.0574729955396
0.0220612514074573,16.0585898948453
0.0231953277944382,16.0596877724461
0.024173248166514,16.0608048387649
0.0249626315308385,16.0619875489301
0.0255001644380485,16.0633169917963
0.0256167683369561,16.0650310909332
0.0251222271154357,16.0667416013264
0.0241219326187193,16.0684521117196
0.0229852920904816,16.0698926635907
0.0217104100919605,16.0712873265301
0.020296445311699,16.0727144942978
0.0187521776169772,16.0742150431382
0.0170837455496366,16.075827509053
0.0154471987129115,16.0774807103322
0.0132133267136211,16.0799740501005
0.0113286554249431,16.0823620529036
0.00974362575582451,16.0846469163499
0.00839601548357187,16.0868581703961
0.00723128766834896,16.0890355393546
0.0061980901760834,16.0912424659284
0.00523331487673011,16.093617029529
0.00431558218265169,16.096260708489
0.00376915150902444,16.0980752672155
0.0032824714550028,16.099889825942
0.00288857129719574,16.1015304550175
0.00255266849059282,16.1030804181404
0.00224650826445429,16.104641617386
0.00195080937152445,16.1063145635228
0.00164295182009003,16.1082716078055
0.00125805684098318,16.1111256721578
0.000865486979559482,16.1147056119896
0.000587649760142957,16.1178659358443
0.000364474004298464,16.1209993862941
0.000157935659994042,16.1246738451908
-4.43409690218769e-05,16.1296767800746
-0.000175332960765284,16.1350844314444
-0.000217930428304935,16.1398679989417
-0.000190327519053589,16.1441960769621
-9.8721019943758e-05,16.1480924362266
5.4876376405297e-05,16.1516042212282
0.000271079028727723,16.1547787233575
0.000552483107268757,16.1576647459196
0.000904237488303636,16.1603151967182
0.00133492663967394,16.1627841194606
0.00185872505070237,16.1651293054678
0.00249952911985088,16.1674172536847
0.0033019866196064,16.1697398012783
0.00436925470542983,16.1722702708164
0.0058268845551852,16.1751216592412
0.00762525103850778,16.1780590539365
0.00899880512361258,16.1799986565198
0.0105547786102626,16.1819382591031
0.012151509787369,16.183681472914
0.0138327363866872,16.1852840720346
0.0156560570015033,16.186795106617
0.0176527025435138,16.1882273003136
0.0198753926889973,16.1896024244433
0.0223521996934339,16.1909205290377
0.0251308954273387,16.1921906069029
0.0282436632665978,16.1934116243838
0.0317421593203742,16.1945892328654
0.0356754738356651,16.1957255559201
0.0400951232735839,16.1968219876028
0.0450713655590176,16.1978828013624
0.0506806255707577,16.1989109978066
0.057012957656746,16.1999097678752
0.0641753509498548,16.2008824713552
0.0722953666082849,16.2018325822936
0.081532322069521,16.2027643145081
0.0920806302191877,16.2036820224932
0.104184080944393,16.2045906245876
0.11815443756594,16.2054958572876
0.134399663573191,16.2064046463599
0.153471784910575,16.2073258356035
0.176153291851196,16.2082715403183
0.202477586350321,16.2092212599049
0.233010243138265,16.2101798522046
0.268601443175214,16.21115948707
0.310492674529939,16.2121807744102
0.350237838377875,16.2130616654746
0.392482184685299,16.2139425565391
0.428848493091013,16.2146847787904
0.460211889817987,16.2153386494595
0.487700031579257,16.2159496782356
0.511567582307656,16.216545496304
0.53155146426242,16.2171490327207
0.546871869885631,16.2177870991855
0.555796338371008,16.2185040682883
0.554777834374814,16.2192797542786
0.541930184949066,16.2200819859076
0.515803555264974,16.220929641318
0.474359183219859,16.2218374313653
0.417003868252302,16.222787987247
0.367442800976145,16.2234739868066
0.311986184424483,16.2241599863661
0.263475839033517,16.2247198113042
0.222807723607187,16.2251759407892
0.187581708635007,16.2255708962368
0.156287657278512,16.2259289441557
0.128068260476023,16.2262641146474
0.102367488470894,16.2265860004962
0.0787581537761488,16.2269026469039
0.0568284212986119,16.2272228486117
0.0360033442568643,16.2275605543431
0.014745453067457,16.2279556454669
0.000335299752697614,16.2282667943758
-0.00714023845849561,16.2284478195013
-0.0139791718699941,16.2286288446268
-0.0199404849079832,16.2288016316825
-0.0260599039606956,16.2289973047289
-0.032048585417876,16.2292118530248
-0.037711345067884,16.2294425143482
-0.0429380304865049,16.2296881251075
-0.0476696358346658,16.2299485712119
-0.0518778577294034,16.2302244671162
-0.0555531545067986,16.2305169950041
-0.0586946479546524,16.2308278406769
-0.0614303712640415,16.2311783846741
-0.0634685063427596,16.2315313907084
-0.0650069771581081,16.2319106456639
-0.066062084887057,16.2323205750816
-0.0666467078725816,16.2327663769027
-0.0667703433325029,16.2332546101804
-0.0664371026385291,16.2337937209713
-0.0656414343345023,16.2343957937965
-0.0643629801731964,16.2350772731424
-0.0625588729614478,16.2358618929842
-0.0601412317928889,16.2367888714497
-0.0569031462752237,16.2379386572741
-0.052729923757632,16.2393632940308
-0.0486612617052519,16.2407384928194
-0.044757679049374,16.2420723932475
-0.0410510322792955,16.2433679075637
-0.0375580656811827,16.2446261441017
-0.0342872138944778,16.2458473018328
-0.0312414857033297,16.24703113857
-0.0284199079610274,16.2481772180298
-0.0258184097144724,16.2492850388412
-0.0234304756992235,16.2503540982313
-0.0212476938958268,16.2513839175763
-0.0192602429198769,16.2523740442589
-0.0174573322617303,16.2533240377624
-0.0158275968666023,16.2542334443653
-0.0142641579904548,16.2551599561693
-0.012761641880072,16.2561103972638
-0.01132415926891,16.2570866289131
-0.00995557340114903,16.2580908781326
-0.00865953029733259,16.2591257684632
-0.00743940690421478,16.2601944197906
-0.0062982573223451,16.2613005805074
-0.00523875646706684,16.2624488068804
-0.00426314078068123,16.2636447124991
-0.00337314502131419,16.2648953253258
-0.00256993312517089,16.2662096166295
-0.00185401924867526,16.2675993179765
-0.00122517136729605,16.2690802504591
-0.000682281733999237,16.270674636336
-0.000245415804693232,16.2723189746529
9.82537327208802e-05,16.2740172839031
0.000364247445643583,16.2757881546094
0.000566898810457685,16.2776552271248
0.000719836491532227,16.2796507481352
0.000836497136591896,16.2818217887335
0.000930974409894724,16.2842438868127
0.00101992540244826,16.2870576939704
0.00112935076206294,16.2906126713676
0.00126064104008167,16.2943962841406
0.00143087832198195,16.2986030950733
0.00165651239129809,16.3035350149472
0.00189766425561472,16.3084491848895
0.00214641438949007,16.3133813323248
0.00237710841904704,16.317923382262
0.00258295172870667,16.3219745351223
0.00277885417462119,16.3258268008841
0.00297194431431769,16.329606010132
0.0031667005936995,16.3333819435578
0.00336660659485766,16.3372024501994
0.00357475100922497,16.3411052455197
0.00379410556987509,16.3451228526789
0.00402773232830814,16.3492858232442
0.00427893948197556,16.3536245853821
0.00455144644287264,16.3581707833918
0.00484962615432709,16.3629585998542
0.00517890728501747,16.368026115519
0.00554499133121585,16.3733956159352
0.00591916639254785,16.3785933117242
0.00631331463346177,16.3837571352228
0.00672630970617016,16.388827701834
0.00716313190839952,16.3938224146233
0.00762806379985968,16.3987425583363
0.00812647101607857,16.4035954504989
0.00866407693887978,16.4083851917894
0.00924712672735527,16.413113938929
0.00988242936652885,16.4177817716
0.010578485898564,16.4223936999593
0.0113606392719586,16.4270418918301
0.0122430123898937,16.4317156771185
0.013247987257821,16.4364321082513
0.0144068029233728,16.4412234550462
0.0157709711904592,16.4461670661863
0.0174486390752812,16.4514697702179
0.0198316483391382,16.4579914958701
0.0214884088727028,16.4620883420237
0.023215854954627,16.4661851881772
0.0247098081957103,16.4697520298127
0.0259657350552418,16.4729423104542
0.0270144673218442,16.4759646922999
0.0278298623606994,16.4788795320573
0.0283778021143668,16.481680951091
0.0286549270916826,16.4844898990501
0.0286267521256521,16.487467894055
0.0281674105212924,16.4909845414908
0.0273733129337757,16.4942142048233
0.0262812387099027,16.4974438681557
0.0251931736290203,16.5001356388291
0.0241195825054214,16.5025424794743
0.0230464454859889,16.5048120436868
0.0219727741923236,16.5070074258978
0.020901495928787,16.5091622590668
0.0198362947804692,16.5112980384971
0.0187808342315724,16.5134301020331
0.0177385549667046,16.5155702478025
0.016712621496614,16.517728098924
0.0157059561784769,16.5199118906133
0.0147211953344291,16.522128972981
0.0137606803142816,16.5243861514142
0.0128265063974739,16.5266899295452
0.0119205291782734,16.5290467123665
0.0110443760981715,16.5314629641123
0.0101994581440204,16.5339453456291
0.00938697295269631,16.5365008692655
0.00860435825525038,16.5391495451192
0.00783367485694148,16.5419742607187
0.00707874527525916,16.5449949003201
0.00634334321890106,16.5482354254053
0.00563146357205512,16.551723507813
0.00494728928251412,16.5554912123771
0.00429512717798304,16.5595758861453
0.00367930227488125,16.5640213997618
0.00310397847273446,16.5688802340977
0.00257290974525913,16.5742171626209
0.00208914183523874,16.5801159709808
0.00165487570281713,16.5866891843559
0.00128423712573483,16.5938133432215
0.000975002425110768,16.6015195628956
0.000728469362880233,16.6099338890709
0.000544342743982268,16.6190155679973
0.000415646924973253,16.6279470123526
0.000312506507635327,16.6379470123526
0.000240760013859877,16.6479470123526
0.000191440510526673,16.6579470123526
0.00015809102963105,16.6679470123526
0.000135969264691009,16.6779470123526
0.000121678094642335,16.6879470123526
0.00011286089970905,16.6979470123526
0.000107916448621828,16.7079470123526
0.000105764197548667,16.7179470123526
0.000105674924186108,16.7279470123526
0.000107158081928791,16.7379470123526
0.000109888863129843,16.7479470123526
0.000113660300139526,16.7579470123526
0.000118350979799422,16.7679470123526
0.000123903060730411,16.7779470123526
0.000130307597550966,16.7879470123526
0.000137595306607169,16.7979470123526
0.000145831508930033,16.8079470123526
0.000155114408823542,16.8179470123526
0.000165576232160971,16.8279470123526
0.000177387087730477,16.8379470123526
0.000190761748269877,16.8479470123526
0.000205969912339117,16.8579470123526
0.000223350963398879,16.8679470123526
0.0002433348776129,16.8779470123526
0.000266471886506307,16.8879470123526
0.000293475007603144,16.8979470123526
0.00032528202516985,16.9079470123526
0.00036314768463699,16.9179470123526
0.000408784185207168,16.9279470123526
0.000464027076902515,16.9378558383976
0.000526956852142707,16.9470235895523
0.000598392465665797,16.9554822178768
0.000679444819317719,16.9632863216142
0.000771407718126469,16.9704874637416
0.000875756639127862,16.9771334769836
0.000994164655855035,16.9832687356666
0.0011285266241839,16.9889344274561
0.00128098867682143,16.994168785216
0.00145398227945624,16.9990072939944
0.00165026252867121,17.0034828993892
0.00187295528366713,17.00762621255
0.00212561210377717,17.0114657001963
0.00241227671169572,17.0150278596535
0.00273756885384093,17.0183374031076
0.00310678911840414,17.021417452764
0.00352605664420068,17.024289738995
0.00400249112863029,17.0269748207172
0.0045444643226588,17.0294923507083
0.00516196053869178,17.031861404694
0.00586575103696552,17.034096980942
0.00664297421019983,17.036152937419
0.00750297352879253,17.0380636626139
0.00846002280448601,17.039863841987
0.00953612095240752,17.041589898996
0.0107695668174122,17.0432877736789
0.0122670657998138,17.0450632930725
0.0144004595590162,17.0472315286871
0.0160244728806153,17.0486992234597
0.0177598054063048,17.0501669182323
0.0193638846488034,17.0514842392778
0.0207857812379589,17.0526654784511
0.0220613205685178,17.0537823755228
0.0231953884477117,17.0548802531492
0.0241732989922447,17.0559973217916
0.0249626699975386,17.0571800375758
0.0255001852675471,17.0585094929372
0.0256167528499233,17.0602236324886
0.0251221785130994,17.0619341246191
0.0241218695253587,17.0636446167495
0.0229852205759603,17.065085162742
0.0217103301499024,17.0664798261381
0.0202963574696147,17.0679069971536
0.0187520823940035,17.0694075513953
0.0170836431255433,17.0710200251892
0.0154475685364135,17.0726727383569
0.0132136438330763,17.0751660892448
0.011328920261546,17.0775541110674
0.00974384884550032,17.0798389893555
0.00839620608025965,17.0820502528001
0.00723145402020006,17.0842276233935
0.0061982407702156,17.0864345377331
0.00523346308978542,17.0888090525781
0.00431571244639809,17.091452716241
0.00376925367699568,17.0932673237462
0.00328255006457512,17.0950819312514
0.00288863498313181,17.096722591287
0.00255272466330809,17.0982725614655
0.00224656105926387,17.0998337499164
0.00195086237116505,17.1015066624772
0.00164301088195963,17.1034636229522
0.00125815081655418,17.1063173220935
0.000865536727842966,17.1098975143818
0.000587671584132745,17.1130580713583
0.000364486775143966,17.1161915959543
0.000157945511618336,17.119866050381
-4.43339648498768e-05,17.1248689606569
-0.000175330434030577,17.1302766429951
-0.000217931187512097,17.1350602313165
-0.000190331207647896,17.1393883297766
-9.87274879281755e-05,17.1432847075323
5.48671782329485e-05,17.1467965096091
0.000271066990774424,17.1499710257575
0.000552468015842204,17.1528570596599
0.000904219170714601,17.1555075204413
0.00133490470547264,17.1579764509041
0.00185869888835238,17.1603216423024
0.00249949835188056,17.1626095953438
0.00330194848453063,17.1649321411119
0.00436920278775447,17.1674625980923
0.00582681953572141,17.1703139817991
0.00762517321644271,17.1732513752726
0.00899873607062455,17.1751910020719
0.010554720898458,17.1771306288712
0.0121514239573426,17.1788738215541
0.0138326544903905,17.1804764348644
0.0156559577153504,17.1819874652433
0.0176525954318616,17.1834196638147
0.0198752722452876,17.1847947900045
0.0223520656714536,17.1861128974846
0.0251307459425532,17.1873829781008
0.0282434956318807,17.1886039979281
0.0317419713153125,17.1897816086912
0.0356752627799235,17.1909179338822
0.0400948858398489,17.1920143674748
0.0450710983511029,17.1930751830332
0.0506803244125798,17.1941033811141
0.0570126175916092,17.1951021526477
0.0641749653016348,17.1960748573141
0.0722949287462825,17.1970249693256
0.0815318232375383,17.1979567024089
0.0920800595220165,17.1988744110333
0.104183424617192,17.1997830135052
0.118153677853887,17.2006882462737
0.13439877663085,17.2015970350161
0.153470738607497,17.2025182234452
0.176152039188383,17.2034639266373
0.202476136112479,17.2044136460744
0.233008558173301,17.2053722377341
0.268599473034462,17.206351871212
0.310490339175118,17.2073731557411
0.350235915879702,17.2082540596994
0.392480799547609,17.2091349636576
0.428847341097886,17.2098771907998
0.460210878431077,17.210531063616
0.487699138818571,17.2111420933719
0.511566809222366,17.2117379116263
0.531550827226946,17.2123414474444
0.546871406298683,17.2129795122339
0.555796134734219,17.2136964775384
0.554778011698581,17.2144721630221
0.541930782511673,17.2152743934526
0.515804633459824,17.2161220470719
0.474360820469124,17.217029834902
0.41700596677956,17.217980390803
0.367444684124492,17.2186663970727
0.311987694572512,17.2193524033424
0.263477057145397,17.2199122324414
0.222808758486885,17.2203683641784
0.187582619572711,17.220763320928
0.156288474780852,17.2211213696524
0.128069002753237,17.2214565406399
0.102368168374384,17.2217784267503
0.0787587822588715,17.2220950731979
0.0568290106984689,17.2224152746619
0.0360039164547161,17.2227529795944
0.0147460943336773,17.223148067666
0.000334945689426651,17.2234592377432
-0.00714054648045928,17.2236402624647
-0.0139794379700649,17.2238212871862
-0.0199407182600419,17.2239940739619
-0.0260601361078704,17.2241897477815
-0.0320488079130706,17.2244042967436
-0.0377115523467796,17.2246349586635
-0.042938219475212,17.2248805699979
-0.0476698049623002,17.2251410166888
-0.0518780063368468,17.2254169132152
-0.0555532824960676,17.2257094417808
-0.0586947550832471,17.2260202882061
-0.061430439939474,17.2263708306081
-0.0634685588444445,17.2267238373979
-0.0650070141807804,17.2271030932566
-0.066062106880279,17.2275130237238
-0.0666467152047908,17.2279588267773
-0.0667703362369577,17.2284470615199
-0.0664370811406526,17.2289861740787
-0.0656413980495255,17.2295882491277
-0.0643629281870219,17.230269731298
-0.0625588034128564,17.2310543548888
-0.0601411407472273,17.2319813387449
-0.0569030232798118,17.2331311338639
-0.0527298029541097,17.2345557688602
-0.0486611450208348,17.2359309664051
-0.0447575677201657,17.2372648657066
-0.0410509269455237,17.2385603789442
-0.0375579666806464,17.2398186144171
-0.0342871213802026,17.2410397710793
-0.0312413996980333,17.242223606736
-0.0284198283875544,17.2433696851006
-0.0258183364167507,17.2444775048017
-0.0234304084590729,17.245546563067
-0.0212476324476772,17.2465763812735
-0.0192601869640704,17.2475665068047
-0.0174572814765575,17.2485164991439
-0.015827550919006,17.2494259045688
-0.0142641136755464,17.2503524170346
-0.0127615993403618,17.2513028588248
-0.011324118615407,17.2522790912276
-0.00995553473967364,17.2532833412682
-0.00865949372689772,17.2543182324999
-0.00743937251555843,17.255386884824
-0.0062982251963834,17.2564930466531
-0.00523872667328264,17.2576412742796
-0.0042631133754135,17.2588371813271
-0.00337312004591811,17.2600877958041
-0.00256991060397281,17.2614020890439
-0.0018539991865773,17.2627917927055
-0.00122515374672089,17.2642727280222
-0.000682266510565067,17.2658671174801
-0.000245403520879714,17.2675114570477
9.82635635019609e-05,17.2692097680983
0.000364255247882101,17.2709806411931
0.000566904982873667,17.2728477168782
0.000719841418982939,17.2748432421548
0.000836501208023072,17.2770142886824
0.000930978051815957,17.2794363955121
0.00101992916700194,17.2822502171809
0.00112935572895027,17.2858052265087
0.00126064683161446,17.2895888448066
0.001430885658464,17.2937956748625
0.00165652205310393,17.2987276299537
0.00189767415917542,17.3036417968041
0.00214642474803879,17.3085739508043
0.0023771171091995,17.3131159671457
0.0025829597733568,17.3171671071122
0.00277886198977621,17.3210193677156
0.00297195212495348,17.3247985755753
0.0031667085592998,17.3285745099927
0.00336661484902045,17.3323950194005
0.00357475967583103,17.3362978189561
0.00379411477278087,17.3403154316754
0.00402774219891444,17.3444784090898
0.00427895016531887,17.3488171793908
0.00455145810556862,17.3533633869573
0.00484963899732166,17.3581512145091
0.00517892156498925,17.3632187429844
0.00554500590640299,17.3685882366837
0.00591918173924965,17.3737859317681
0.00631333066103799,17.3789497515593
0.00672632659586341,17.3840203150949
0.00716314981555555,17.3890150247818
0.00762808292786021,17.3939351656971
0.00812649158488288,17.3987880552727
0.00866409918823601,17.4035777941116
0.00924715091705633,17.4083065388405
0.00988245578130319,17.4129743690734
0.0105785154869881,17.417586298899
0.0113606725184728,17.4222344916119
0.0122430500731035,17.4269082782557
0.0132480304010732,17.4316247115595
0.0144068530764821,17.436416062468
0.0157710311333446,17.4413596824446
0.0174487156093107,17.4466624092656
0.0198317776937471,17.4531842395318
0.0214885193554868,17.4572810207607
0.0232159401103101,17.4613778019895
0.0247098779883583,17.4649446131822
0.0259657937596766,17.4681348805584
0.0270145155354987,17.4711572577233
0.0278298967488804,17.4740720886162
0.0283778230497193,17.4768735047945
0.0286549338175223,17.4796824565977
0.028626741573263,17.4826604661515
0.0281673702656956,17.4861771622805
0.0273732660869736,17.4894067760657
0.0262811975769982,17.492636389851
0.0251931347599362,17.4953281422261
0.0241195439058277,17.4977349758179
0.0230464068511131,17.5000045364936
0.0219727355833496,17.5021999167505
0.0209014574722245,17.5043547489023
0.0198362566104482,17.5064905279551
0.0187807964762825,17.5086225915903
0.0177385177449216,17.5107627378374
0.0167125849169757,17.512920589754
0.0157059203423834,17.5151043825161
0.0147211603305595,17.5173214662093
0.013760646222118,17.5195786462061
0.0128264732878104,17.521882426132
0.0119204971136674,17.5242392109786
0.0110443451327099,17.5266554649861
0.01019942832462,17.5291378490095
0.00938694431849249,17.5316933754135
0.00860432999376191,17.5343420573214
0.00783364710414249,17.5371667796437
0.00707871816380341,17.5401874267785
0.00634331689019066,17.5434279603302
0.00563143817480317,17.5469160522847
0.0049472649712142,17.5506837676506
0.00429510411009024,17.5547684536865
0.00367928060596565,17.5592139813028
0.00310395834823041,17.5640728317376
0.0025728912899618,17.5694097790076
0.00208912514407906,17.5753086096151
0.00165486084156632,17.5818818499778
0.00128422464627761,17.5890060284729
0.00097499208155186,17.5967122716908
0.000728461423844621,17.6051266267176
0.000544345403989157,17.614207845052
0.00041564601233043,17.6231395073254
0.000312505837088416,17.6331395073254
0.000240759537239791,17.6431395073254
0.000191440187224856,17.6531395073254
0.000158090819329366,17.6631395073254
0.000135969133087367,17.6731395073254
0.0001216780166485,17.6831395073254
0.000112860858630296,17.6931395073254
0.000107916433725164,17.7031395073254
0.000105764201859045,17.7131395073255
0.00010567494305345,17.7231395073255
0.000107158112225902,17.7331395073255
0.000109888902804817,17.7431395073255
0.000113660347936359,17.7531395073255
0.000118351035062772,17.7631395073255
0.000123903123266012,17.7731395073255
0.000130307667531605,17.7831395073255
0.000137595384517101,17.7931395073255
0.000145831595540997,17.8031395073255
0.000155114505197093,17.8131395073255
0.000165576339674551,17.8231395073255
0.000177387208127682,17.8331395073255
0.000190761883738571,17.8431395073255
0.000205970065624657,17.8531395073255
0.000223351137964489,17.8631395073255
0.000243335077866203,17.8731395073255
0.000266472118121785,17.8831395073255
0.000293475277987727,17.8931395073255
0.000325282344147776,17.9031395073255
0.000363148065479973,17.9131395073255
0.000408784646224591,17.9231395073255
0.000464027600950008,17.9330483264708
0.000526957445740272,17.9422160709953
0.000598393137818571,17.9506746932015
0.000679445580605864,17.9584787913045
0.000771408580650012,17.9656799282456
0.000875757616607742,17.9723259367164
0.000994165763833197,17.9784611910131
0.00112852788026144,17.9841268787731
0.00128099010094494,17.9893612328343
0.00145398389421689,17.9941997382208
0.00165026435969367,17.9986753405084
0.00187295736002573,18.0028186508263
0.00212561445854693,18.0066581358754
0.00241227938257381,18.0102202929639
0.00273757188396863,18.0135298342625
0.00310679255741155,18.016609881963
0.00352606054954882,18.0194821664259
0.00400249556746655,18.0221672465581
0.00454446937439752,18.0246847751302
0.00516196629875783,18.0270538278641
0.00586575739270457,18.029289402369
0.00664298122797941,18.0313453574108
0.00750298130887502,18.0332560814739
0.00846003149386933,18.0350562600128
0.00953613078799848,18.0367823165218
0.0107695782423397,18.0384801911764
0.012267080522399,18.0402557121677
0.0144004838296358,18.0424239543899
0.0160244971823839,18.0438916473699
0.0177598288449155,18.0453593403498
0.0193639051724962,18.0466766587909
0.0207857996612366,18.0478578966719
0.022061337149531,18.048974793201
0.0231954031008851,18.0500726708086
0.0241733114099065,18.0511897399642
0.0249626795913193,18.0523724570239
0.0255001908126354,18.0537019152512
0.02561675001699,18.0554160641294
0.0251221680246931,18.0571265520054
0.0241218556781712,18.0588370398814
0.0229852047672159,18.0602775844913
0.0217103123709427,18.0616722479755
0.020296337835246,18.0630994197283
0.0187520610168667,18.0645999752093
0.0170836200391766,18.06621245082
0.0154476539670407,18.0678650517805
0.0132137168298903,18.0703584055305
0.0113289810248454,18.072746431987
0.00974389989247569,18.0750313138813
0.00839624961763327,18.0772425795961
0.00723149201879192,18.0794199505533
0.00619827527331632,18.0816268618489
0.00523349736197876,18.0840013646756
0.00431574257148368,18.0866450247737
0.00376927711862199,18.0884596442006
0.00328256791237352,18.0902742636275
0.00288864931717892,18.091914931227
0.00255273727875559,18.0934649031097
0.00224657295878299,18.0950260888869
0.00195087442898051,18.0966989931848
0.00164302453850623,18.0986559330708
0.00125817317577712,18.1015095425817
0.000865548363196237,18.1050897968746
0.00058767645802076,18.1082504111168
0.000364489505643584,18.1113839539011
0.000157947600389852,18.1150584071903
-4.43325218066953e-05,18.1200613120615
-0.000175330019596267,18.1254690018252
-0.000217931535658716,18.1302525951995
-0.000190332243059528,18.1345806986067
-9.87291813309379e-05,18.1384770808347
5.48648345726287e-05,18.1419888870439
0.000271063967593093,18.1451634065809
0.000552464259418561,18.1480494432181
0.000904214638075115,18.150699906403
0.00133489930063209,18.1531688387149
0.00185869246121163,18.1555140313891
0.00249949080934473,18.1578019855621
0.00330193914557162,18.160124530814
0.00436919006731021,18.1626549846097
0.00582680363560072,18.1655063671069
0.00762515422394781,18.1684437602258
0.00899871929178005,18.1703833929611
0.0105547069749335,18.1723230256965
0.0121514032167516,18.1740662131972
0.0138326347829874,18.1756688299736
0.0156559338231703,18.1771798593145
0.0176525696927653,18.1786120590651
0.0198752433209396,18.1799871857486
0.0223520335006785,18.1813052939214
0.0251307100711226,18.182575375198
0.0282434554106866,18.1837963955879
0.0317419262105998,18.1849740068985
0.0356752121476423,18.1861103326022
0.0400948288798086,18.1872067666532
0.0450710342484853,18.1882675826435
0.0506802521651272,18.1892957811176
0.0570125360098074,18.1902945530032
0.0641748727833388,18.1912672579548
0.0722948236997153,18.1922173702243
0.0815317035614216,18.1931491035164
0.0920799226018918,18.1940668122947
0.104183267150191,18.1949754148577
0.118153495579987,18.195880647643
0.134398563829187,18.1967894363068
0.153470487570085,18.1977106245411
0.176151738641507,18.1986563273685
0.202475788158821,18.1996060467703
0.233008153899894,18.2005646382771
0.268599000339454,18.2015442714228
0.310489778860695,18.2025655552785
0.350235454561841,18.20344646233
0.392480467085723,18.2043273693814
0.428847064534776,18.2050695976974
0.460210635575524,18.2057234710291
0.487698924399766,18.2063345010205
0.511566623492194,18.20693031932
0.53155067411293,18.2075338549949
0.546871294771527,18.208171919383
0.555796085544725,18.2088888837765
0.554778053882136,18.2096645691391
0.541930925494951,18.2104667992823
0.515804891736022,18.2113144524722
0.474361212859806,18.2122222397704
0.417006469775864,18.213172795677
0.367445135527483,18.2138588035554
0.311988056591095,18.2145448114339
0.263477349176385,18.2151046415306
0.222809006606145,18.2155607738076
0.187582837990053,18.2159557308693
0.156288670807373,18.2163137797869
0.128069180752888,18.2166489508934
0.10236833142728,18.2169708370666
0.0787589329901054,18.2172874835238
0.0568291520658386,18.2176076849294
0.0360040537045697,18.2179453896704
0.0147462481540268,18.2183404770101
0.000334860789117529,18.2186516521646
-0.00714062033375963,18.2188326767892
-0.0139795017646546,18.2190137014138
-0.0199407741967139,18.2191864881224
-0.0260601917541799,18.2193821621277
-0.0320488612421664,18.2195967112497
-0.0377116020237098,18.2198273733127
-0.0429382647624439,18.2200729847852
-0.0476698454830295,18.2203334316169
-0.0518780419329892,18.2206093282926
-0.0555533131441975,18.2209018570209
-0.058694780725128,18.2212127036268
-0.0614304563493785,18.2215632456454
-0.0634685713738051,18.2219162526166
-0.0650070229963896,18.2222955086919
-0.0660621120900506,18.222705439411
-0.0666467168971782,18.2231512427602
-0.0667703344679768,18.2236394778544
-0.066437075916464,18.2241785908373
-0.0656413892778951,18.2247806664199
-0.0643629156487474,18.2254621492677
-0.0625587866615663,18.226246773758
-0.0601411188392272,18.2271737589073
-0.0569029937080013,18.2283235562559
-0.0527297739091359,18.2297481908299
-0.0486611169651296,18.2311233880763
-0.0447575409503382,18.2324572871075
-0.0410509016152283,18.2337528000862
-0.037557942870951,18.2350110353035
-0.0342870991278383,18.2362321917091
-0.0312413790084509,18.2374160271064
-0.028419809242236,18.2385621052081
-0.0258183187782368,18.2396699246427
-0.023430392274986,18.2407389826381
-0.0212476176542658,18.2417688005713
-0.0192601734894029,18.2427589258262
-0.0174572692433989,18.2437089178858
-0.0158275398474002,18.244618323028
-0.0142641029962328,18.2455448356526
-0.012761589087563,18.2464952776099
-0.0113241088157797,18.2474715101935
-0.00995552541863714,18.2484757604312
-0.00865948490823162,18.2495106518792
-0.00743936422105857,18.2505793044425
-0.00629821744549136,18.2516854665386
-0.00523871948269236,18.252833694466
-0.0042631067586688,18.2540296018565
-0.00337311401296855,18.2552802167296
-0.00256990516068251,18.2565945104341
-0.00185399433415224,18.2579842146513
-0.00122514948097598,18.2594651506483
-0.000682262820889418,18.2610595409657
-0.000245400537496472,18.2627038808335
9.82659573761841e-05,18.2644021923163
0.000364257154120801,18.2661730659845
0.000566906497157065,18.2680401424303
0.00071984263365437,18.270035668731
0.000836502216393626,18.2722067166818
0.000930978956191492,18.2746288256119
0.00101993009980385,18.2774426507639
0.00112935694913132,18.2809976677562
0.0012606482484942,18.2847812873803
0.00143088744486489,18.2889881220265
0.0016565243745356,18.293920085116
0.00189767653804558,18.2988342512617
0.00214642723001148,18.3037664067495
0.00237711921115029,18.3083084154599
0.0025829617276173,18.312359552496
0.00277886389119097,18.3162118119256
0.00297195402510281,18.3199910194675
0.00316671049493839,18.3237669541072
0.00336661685105031,18.3275874641402
0.00357476177297569,18.3314902646544
0.0037941169938023,18.3355078786328
0.00402774457435758,18.3396708575987
0.00427895272892967,18.3440096297491
0.00455146089613922,18.3485558394811
0.00484964206163855,18.3533436695456
0.00517892496276529,18.3584112009238
0.0055450093773395,18.3637806930504
0.00591918539352832,18.3689783879434
0.00631333447906207,18.3741422068571
0.00672633062033887,18.3792127696626
0.00716315408329585,18.3842074786145
0.00762808748681948,18.3891276188657
0.00812649648698002,18.3939805078259
0.00866410449015047,18.3987702460807
0.00924715668031852,18.4034989902345
0.00988246207344675,18.4081668198856
0.0105785225337057,18.4127787500592
0.0113606804349006,18.4174269429717
0.0122430590444364,18.4221007299371
0.0132480406707458,18.4268171637568
0.0144068650131865,18.4316085156434
0.0157710453984078,18.4365521377217
0.0174487338207136,18.4418548699639
0.0198318084703049,18.4483767251169
0.0214885456425889,18.4524734909015
0.0232159603723754,18.456570256686
0.0247098945955471,18.4601370606368
0.0259658077288795,18.4633273248572
0.0270145270088165,18.4663497009087
0.0278299049329561,18.4692645296926
0.0283778280332055,18.4720659451915
0.0286549354203948,18.4748748979093
0.0286267390654368,18.4778529109243
0.0281673606910504,18.4813696186379
0.0273732549441548,18.4845992206357
0.0262811877933845,18.4878288226335
0.025193125514807,18.4905205706552
0.0241195347247629,18.4929274025688
0.0230463976616257,18.4951969624029
0.0219727264000128,18.4973923421946
0.0209014483251504,18.4995471741043
0.0198362475315642,18.501682953067
0.018780787496102,18.5038150167254
0.0177385088917192,18.505955163086
0.0167125762166166,18.5081130151913
0.0157059118189055,18.5102968082082
0.0147211520050993,18.5125138922162
0.0137606381136213,18.5147710725844
0.0128264654131571,18.5170748529366
0.0119204894877762,18.5194316382641
0.0110443377684851,18.5218478928086
0.0101994212332587,18.5243302774271
0.0093869375093403,18.526885804488
0.00860432327320227,18.5295344878356
0.00783364050452793,18.5323592117567
0.00707871171669201,18.535379860683
0.00634331062922239,18.5386203962481
0.0056314321353572,18.5421084904729
0.00494725919004458,18.5458762084076
0.00429509862465503,18.5499608973609
0.00367927545327527,18.5544064283065
0.00310395356288272,18.5592652825697
0.00257288690164503,18.564602234298
0.00208912117537673,18.5705010701963
0.00165485730812575,18.5770743169774
0.0012842216793827,18.5841985001407
0.000974989622732899,18.5919047489576
0.000728459534884017,18.6003191108458
0.000544346003753468,18.6094002213776
0.000415645779409758,18.6183319348195
0.000312505665985468,18.6283319348195
0.000240759415154867,18.6383319348195
0.000191440103575112,18.6483319348195
0.000158090763916286,18.6583319348195
0.000135969097352562,18.6683319348195
0.000121677994357328,18.6783319348195
0.000112860845629415,18.6883319348195
0.000107916427336407,18.6983319348195
0.000105764200338104,18.7083319348195
0.000105674945237415,18.7183319348195
0.000107158117334167,18.7283319348195
0.000109888910326643,18.7383319348195
0.000113660357560251,18.7483319348195
0.00011835104662723,18.7583319348195
0.000123903136724471,18.7683319348195
0.000130307682928913,18.7783319348195
0.000137595401975617,18.7883319348195
0.000145831615254567,18.7983319348195
0.000155114527431575,18.8083319348195
0.000165576364774232,18.8183319348195
0.000177387236527695,18.8283319348195
0.000190761915984193,18.8383319348195
0.000205970102399265,18.8483319348195
0.000223351180129124,18.8583319348195
0.000243335126515388,18.8683319348195
0.000266472174662906,18.8783319348195
0.000293475344255499,18.8883319348195
0.000325282422572452,18.8983319348195
0.000363148159340074,18.9083319348195
0.000408784760036609,18.9183319348195
0.000464027730749716,18.9282407523082
0.000526957593206414,18.9374084952389
0.000598393305237636,18.9458671159727
0.00067944577065816,18.9536712127183
0.000771408796398917,18.9608723484088
0.000875757861526398,18.9675183557281
0.000994166041855225,18.9736536089654
0.00112852819584118,18.9793192957515
0.00128099045912996,18.9845536489184
0.00145398430072423,18.9893921534844
0.00165026482100824,18.99386775502
0.00187295788350681,18.9980110646498
0.00212561505256825,19.0018505490703
0.00241228005668283,19.0054127055856
0.00273757264909606,19.0087222463628
0.00310679342613844,19.0118022935907
0.00352606153645007,19.0146745776268
0.00400249668958753,19.017359657376
0.00454447065191526,19.0198771856073
0.00516196775594338,19.0222462380419
0.00586575900105781,19.0244818121218
0.0066429830045874,19.0265377668162
0.00750298327961548,19.0284484906085
0.00846003369681594,19.0302486689524
0.0095361332847244,19.0319747253528
0.0107695811484034,19.0336726000216
0.0122670842800772,19.0354481214495
0.0144004900748395,19.0376163654283
0.0160245034189487,19.0390840579506
0.0177598348366035,19.040551750473
0.0193639103814055,19.0418690682417
0.0207858043027584,19.0430503057934
0.0220613412924814,19.0441672021895
0.0231954067236711,19.0452650798011
0.0241733144326603,19.0463821491
0.0249626818606702,19.0475648665031
0.0255001920086097,19.0488943254912
0.0256167490066079,19.0506084768247
0.0251221650040735,19.0523189635953
0.0241218517787554,19.0540294503659
0.0229852003580994,19.0554699946212
0.0217103074524595,19.0568646581348
0.0202963324401336,19.0582918300861
0.0187520551773805,19.059792385896
0.017083613767036,19.0614048619855
0.0154476763953539,19.063057433287
0.0132137361736089,19.065550787581
0.0113289972701663,19.0679388150775
0.00974391364382955,19.070223697782
0.00839626140795768,19.072434964006
0.00723150232229846,19.074612335042
0.00619828457338591,19.076819245647
0.00523350640667843,19.079193745756
0.00431575052076115,19.0818374049291
0.00376928343215192,19.0836520270623
0.00328257285015336,19.0854666491955
0.00288865337211264,19.0871073185095
0.00255274087072264,19.0886572907773
0.00224657632170066,19.0902184759469
0.0019508777634643,19.0918913783701
0.00164302816851168,19.0938483135881
0.00125817869358106,19.096701902796
0.000865551370827978,19.1002821711002
0.00058767787615654,19.1034427982929
0.000364490389248429,19.1065763452162
0.000157948291839045,19.1102507983041
-4.43320071731599e-05,19.1152537015542
-0.000175329779243864,19.120661393122
-0.000217931492807618,19.1254449876839
-0.00019033237314838,19.1297730922589
-9.87294732596498e-05,19.1336694755421
5.48643848775084e-05,19.1371812827214
0.000271063354541936,19.1403558030545
0.000552463471104185,19.1432418403359
0.000904213664338747,19.1458923040862
0.00133489811891659,19.1483612368357
0.00185869103643716,19.1507064298173
0.00249948911935479,19.1529943842669
0.00330193703737528,19.1553169294335
0.00436918719090021,19.1578473825702
0.00582680001150962,19.1606987648213
0.00762514986648622,19.1636361579036
0.00899871539580721,19.1655757919986
0.0105547036765562,19.1675154260937
0.0121513983105686,19.1692586124227
0.0138326300540261,19.1708612299973
0.0156559280742185,19.1723722591067
0.0176525634589822,19.1738044591363
0.0198752362885032,19.17517958594
0.0223520256547912,19.1764976942807
0.0251307013019773,19.1777677757175
0.0282434455625339,19.1789887962444
0.0317419151531963,19.1801664076879
0.0356751997236929,19.1813027335159
0.0400948148943324,19.182399167678
0.0450710185009991,19.1834599837726
0.050680234409303,19.1844881823413
0.0570125159529679,19.1854869543113
0.0641748500318307,19.1864596593309
0.0722947978607758,19.1874097716615
0.0815316741163259,19.1883415050025
0.092079888904316,19.1892592138158
0.104183228382213,19.1901678163981
0.118153450684504,19.191073049184
0.134398511383693,19.1919818378243
0.15347042565095,19.1929030260053
0.176151664425673,19.1938487287361
0.2024757022219,19.1947984481248
0.233008054024844,19.1957570395886
0.268598883506787,19.1967366726454
0.310489640265392,19.1977579563256
0.350235341010861,19.1986388641471
0.392480386091234,19.1995197719685
0.428846997716518,19.200262000573
0.460210577338185,19.2009158740287
0.487698873415142,19.2015269040746
0.51156657982193,19.2021227223813
0.531550638739249,19.2027262580168
0.546871269933794,19.2033643223018
0.555796076405567,19.2040812864665
0.554778067616045,19.2048569717958
0.541930964408598,19.205659201865
0.515804959387043,19.2065068549464
0.474361313852549,19.2074146421119
0.417006598730556,19.2083651980121
0.36744525102959,19.2090512062987
0.311988149059885,19.2097372145852
0.263477423653601,19.2102970449345
0.222809069790288,19.2107531773478
0.187582893528891,19.2111481344881
0.156288720579796,19.2115061834541
0.128069225881348,19.2118413545901
0.102368372703367,19.2121632407787
0.0787589710863342,19.212479887238
0.0568291877350246,19.2128000886283
0.0360040882717278,19.2131377933207
0.0147462868205043,19.2135328804758
0.000334839390615555,19.2138440569064
-0.0071406389673576,19.2140250815061
-0.0139795178814003,19.2142061061059
-0.0199407883490637,19.214378892797
-0.0260602058441329,19.2145745668483
-0.0320488747622684,19.2147891160099
-0.0377116146392462,19.2150197781083
-0.0429382762882769,19.2152653896148
-0.0476698558241411,19.2155258364812
-0.0518780510491601,19.2158017331938
-0.0555533210288437,19.2160942619622
-0.0586947873646742,19.2164051086128
-0.0614304607445356,19.2167556505434
-0.0634685747919898,19.2171086575599
-0.0650070254783835,19.2174879136896
-0.0660621136626299,19.2178978444718
-0.0666467175822383,19.2183436478952
-0.0667703342792261,19.2188318830777
-0.0664370748549901,19.2193709961673
-0.0656413873198511,19.2199730718843
-0.0643629127380341,19.2206545549031
-0.0625587826843022,19.2214391796206
-0.0601411135549972,19.222366165097
-0.0569029864785363,19.2235159630108
-0.0527297668064887,19.2249405974785
-0.0486611101056773,19.2263157946502
-0.0447575344086661,19.2276496936138
-0.0410508954298755,19.228945206528
-0.0375579370622334,19.2302034416817
-0.0342870937049571,19.2314245980235
-0.0312413739728038,19.2326084333563
-0.0284198045892441,19.2337545113928
-0.0258183144986107,19.2348623307612
-0.023430388355735,19.2359313886895
-0.0212476140795789,19.236961206555
-0.0192601702414347,19.2379513317412
-0.0174572663029942,19.2389013237315
-0.0158275371947325,19.2398107288036
-0.0142641004404052,19.2407372414675
-0.0127615866370466,19.2416876834662
-0.0113241064771696,19.2426639160947
-0.00995552319821877,19.2436681663813
-0.00865948281188117,19.2447030578829
-0.0074393622541606,19.2457717105056
-0.00629821561284492,19.246877872668
-0.00523871778841485,19.24802610067
-0.00426310520609077,19.2492220081456
-0.00337311260452967,19.250472623117
-0.00256990389780473,19.2517869169367
-0.00185399321709514,19.2531766212918
-0.00122514850865853,19.2546575574576
-0.000682261990627086,19.2562519479882
-0.000245399881588122,19.2578962879305
9.82664679178441e-05,19.2595945995205
0.000364257544587539,19.2613654733309
0.000566906791310785,19.2632325499655
0.000719842854436438,19.2652280765202
0.000836502386996724,19.2673991248242
0.000930979102057009,19.2698212342754
0.00101993025387686,19.2726350602916
0.00112935717583062,19.2761900791855
0.00126064852522927,19.2799736991386
0.00143088781442773,19.2841805349237
0.0016565248695646,19.2891124998228
0.00189767704841088,19.29402666581
0.00214642776453005,19.2989588216346
0.00237711965981277,19.3035008286209
0.00258296214262214,19.3075519649952
0.00277886429387138,19.3114042241599
0.00297195442707717,19.3151834316304
0.00316671090448628,19.3189593663208
0.00336661727511791,19.3227798764955
0.00357476221799456,19.3266826772268
0.00379411746618497,19.3307002914903
0.0040277450808873,19.3348632708074
0.00427895327707717,19.3392020433763
0.00455146149447395,19.3437482535984
0.00484964272048583,19.3485360842316
0.0051789256953079,19.3536036162668
0.00554501012505223,19.3589731080491
0.0059191861808483,19.3641708029059
0.00631333530135658,19.3693346216295
0.00672633148691378,19.3744051842772
0.00716315500213115,19.37939989307
0.00762808846835644,19.3843200331776
0.00812649754251297,19.389172922005
0.0086641056319881,19.393962660134
0.00924715792179939,19.3986914041641
0.00988246342918863,19.40335923369
0.01057852405241,19.4079711639389
0.0113606821414388,19.4126193568946
0.0122430609787843,19.4172931439296
0.0132480428854438,19.4220095778608
0.0144068675878067,19.4268009299586
0.0157710484756805,19.4317445524906
0.0174487377498516,19.4370472859029
0.0198318151115768,19.4435691464275
0.0214885513149435,19.4476659088786
0.0232159647443791,19.4517626713298
0.0247098981787493,19.4553294737175
0.0259658107427558,19.4585197372568
0.0270145294840386,19.461542113068
0.0278299066983033,19.4644569413968
0.0283778291078097,19.4672583567491
0.0286549357654006,19.4700673096643
0.028626738523272,19.4730453234263
0.0281673586237011,19.4765620336402
0.0273732525383805,19.479791633094
0.0262811856809885,19.4830212325478
0.0251931235186531,19.4857129796299
0.0241195327424543,19.4881198111814
0.0230463956775148,19.4903893708339
0.0219727244172411,19.4925847505253
0.0209014463502156,19.4947395823827
0.0198362455713538,19.496875361326
0.0187807855571988,19.4990074249895
0.017738506980222,19.5011475713746
0.0167125743381037,19.5033054235208
0.0157059099785826,19.5054892165927
0.0147211502075203,19.5077063006688
0.0137606363628683,19.5099634811172
0.0128264637128659,19.5122672615616
0.0119204878411603,19.5146240469931
0.0110443361783215,19.5170403016537
0.0101994197019577,19.5195226864009
0.00938693603891175,19.5220782136039
0.00860432182191953,19.5247268972624
0.00783363907937374,19.5275516215287
0.00707871032447799,19.5305722708418
0.00634330927720877,19.5338128068417
0.0056314308311804,19.5373009015567
0.00494725794163756,19.5410686200459
0.00429509744010277,19.5451533096292
0.00367927434056567,19.5495988412936
0.00310395252948341,19.5544576963835
0.00257288595396329,19.5597946490743
0.00208912031828678,19.565693486115
0.00165485654500431,19.5722667342819
0.00128422103856387,19.579390918453
0.000974989091590096,19.5870971684789
0.000728459127163326,19.5955115318486
0.000544346139504917,19.6045926187712
0.000415645732103639,19.6135243433879
0.000312505631209308,19.6235243433879
0.000240759390400289,19.6335243433879
0.000191440086732724,19.6435243433879
0.000158090752899614,19.6535243433879
0.000135969090389265,19.6635243433879
0.000121677990151419,19.6735243433879
0.000112860843317925,19.6835243433879
0.000107916426363815,19.6935243433879
0.000105764200342724,19.7035243433879
0.000105674945977497,19.7135243433879
0.000107158118646467,19.7235243433879
0.000109888912103249,19.7335243433879
0.000113660359734081,19.7435243433879
0.000118351049161877,19.7535243433879
0.000123903139606917,19.7635243433879
0.000130307686164578,19.7735243433879
0.000137595405585379,19.7835243433879
0.000145831619273374,19.7935243433879
0.000155114531908384,19.8035243433879
0.000165576369773116,19.8135243433879
0.000177387242130129,19.8235243433879
0.000190761922292675,19.8335243433879
0.000205970109542609,19.8435243433879
0.000223351188269992,19.8535243433879
0.000243335135860949,19.8635243433879
0.000266472185480022,19.8735243433879
0.00029347535689268,19.8835243433879
0.000325282437492152,19.8935243433879
0.000363148177167296,19.9035243433879
0.000408784781633956,19.9135243433879
0.000464027755295678,19.9234331605492
0.000526957621004312,19.9326009031654
0.00059839333670819,19.941059523609
0.000679445806295993,19.9488636200874
0.000771408836769786,19.9560647555321
0.000875757907271816,19.9627107626253
0.000994166093701892,19.9688460156548
0.00112852825461201,19.97451170225
0.00128099052575754,19.9797460552417
0.00145398437626467,19.984584559647
0.00165026490665948,19.9890601610355
0.0018729579806278,19.9932034705307
0.00209391685150872,19.9966017352654
0.002359442579029,20
