ecg,time
0.00891354699819605,15.0005391178089
0.0103431919405009,15.0024141763427
0.0119567877276892,15.0042892348765
0.0136343318312423,15.0060008942859
0.0153790729242423,15.0075575269098
0.0172739112870681,15.0090292735397
0.0193524623905694,15.0104275161609
0.0216616366334827,15.0117675571121
0.0242429593037253,15.0130559162037
0.0271375996592689,15.0142961324034
0.0303874653344854,15.0154903011038
0.0340438201767085,15.0166422589458
0.0381564621418397,15.0177534263129
0.0427876421159551,15.0188270392252
0.0480089990894027,15.0198662935852
0.0539025860366916,15.0208741863014
0.0605630441632362,15.0218535986944
0.0681080495024307,15.0228083085263
0.0766769504337974,15.0237419566686
0.0864395047073503,15.0246584736204
0.0976049259218964,15.0255621555168
0.110436112606487,15.026457896487
0.125270064917809,15.027351445048
0.142547066107851,15.0282496882739
0.162861747911255,15.0291613841811
0.187022685340344,15.0300973434998
0.214969786123971,15.0310345050005
0.24739180089535,15.0319814625075
0.285208198652099,15.0329511033569
0.329828421379629,15.0339671337265
0.368035598454117,15.0347648406477
0.408158136054724,15.0355625475689
0.443646518860794,15.0362600258475
0.474538888636965,15.0368856745115
0.501660412869554,15.037477198554
0.525143320787918,15.0380601422979
0.544621713078176,15.03865779132
0.559145556310691,15.0393003062319
0.566500837697043,15.0400449278049
0.562811256323654,15.0408159574548
0.546836867577681,15.0416210732145
0.516915951596104,15.0424792610266
0.471876288192643,15.0433854989093
0.412172398495469,15.0443174132787
0.36242740452065,15.0449768766029
0.307420377034503,15.0456363399271
0.259378535877021,15.0461782135721
0.218990875074175,15.0466233492905
0.183936130985015,15.0470110519939
0.152762445144683,15.0473639659729
0.124635315940548,15.0476954203887
0.0990049314981565,15.0480147306136
0.0754397889625959,15.048329949113
0.0535078026907041,15.0486502917353
0.0325609230313435,15.0489914418914
0.0105795115504046,15.0494051908224
-0.000279001112893217,15.0496406131353
-0.00777677214460935,15.0498198497367
-0.0146379829002003,15.0499990863382
-0.0206244394907808,15.0501702815679
-0.0267778768019158,15.0503643647311
-0.0328032365561622,15.0505772428258
-0.0385033706987911,15.0508061624043
-0.0437668575051494,15.0510499601048
-0.0485338820860655,15.0513085164339
-0.0527756547583491,15.0515824373468
-0.056482370631907,15.0518728945955
-0.0596559395984505,15.052181561876
-0.0623794224780967,15.0525227412021
-0.0644575391448822,15.0528726121152
-0.066033951537631,15.0532485630526
-0.0671246364690194,15.053654898107
-0.0677427093454738,15.0540967639588
-0.0678979516769404,15.054580656813
-0.0675947974087106,15.0551149417426
-0.0668282471868,15.0557114917819
-0.0655784206608992,15.0563866367456
-0.0638030991577477,15.0571638141693
-0.0614156317311187,15.0580816373725
-0.0582129557582314,15.0592187874649
-0.0540161558317792,15.0606482496033
-0.0499180356080158,15.0620278618424
-0.0459808713424704,15.0633663784903
-0.0422380954315348,15.0646667281553
-0.0387074247270813,15.0659300133632
-0.0353980250801977,15.0671564164612
-0.032313511423008,15.0683456740374
-0.0294534285528455,15.0694973275504
-0.0268141454524253,15.0706108544401
-0.024389511067572,15.0716857332096
-0.0221714038978458,15.0727214700346
-0.0201502221788431,15.0737176015052
-0.0183153288079188,15.0746736815146
-0.0166554520748989,15.0755892567327
-0.0150788102548269,15.07651222783
-0.0135621261330672,15.0774589537998
-0.0121096738942576,15.0784311691706
-0.0107253370321645,15.0794310488904
-0.00941278893024631,15.0804611511334
-0.00817543974907693,15.0815245138283
-0.00701638243316665,15.0826247811481
-0.00593833596750994,15.0837663746206
-0.00494358549687341,15.0849547301744
-0.00403391829438288,15.0861966358761
-0.0032105535048704,15.0875007294914
-0.00247406166655259,15.088878261811
-0.00182426626191442,15.0903443279938
-0.00126011144918672,15.091919985283
-0.000798732209324631,15.0935578333881
-0.000432979597260139,15.0952467682644
-0.000146926085581799,15.0970052087682
7.39810391544506e-05,15.0988558045824
0.000243555525249417,15.1008291958807
0.000375372875010857,15.1029695891241
0.000483583624462041,15.1053467371406
0.000584664191461677,15.1080869107825
0.000703163253625095,15.11148521504
0.000845740091020061,15.1152439783456
0.00102369759450005,15.1193569672282
0.00123192180981612,15.1236787709291
0.0014534429169082,15.1279954650396
0.00169500901982435,15.1325807980791
0.00195933496673407,15.1375841938503
0.00221590875251301,15.1424742339707
0.00247790549569648,15.1475093761893
0.00269816522502686,15.1517454186729
0.00290290570897827,15.155669384693
0.00310294790646318,15.1594699996325
0.00330393308004802,15.1632371940126
0.0035097880883987,15.1670271234774
0.00372380252444075,15.1708814617138
0.00394907264995141,15.1748347196873
0.00418875317570544,15.1789179164169
0.00444626329152011,15.1831611711063
0.0047254543827562,15.1875951288311
0.00503082913394144,15.192252226592
0.0053678941643933,15.1971680451637
0.00574373112649262,15.2023824291818
0.00613726984983506,15.2075458799877
0.00655040321865934,15.2126497486748
0.00698515555259917,15.2176788487051
0.00744522960990653,15.2226318605567
0.00793539933507421,15.2275125593414
0.00846121522752867,15.232325776937
0.00902890459580103,15.2370756637589
0.00964527088608417,15.2417642295059
0.0103177555704577,15.2463915862149
0.0110669880484312,15.2510298901321
0.0119101582346237,15.2556967384179
0.0128667301783328,15.2604008738203
0.0139640842805497,15.2651672969173
0.0152445486163382,15.2700529811033
0.0167882285759106,15.2752012548541
0.0188188047760269,15.2810874947489
0.0206520273897942,15.2858257206582
0.0226130794310444,15.2905639465674
0.0242144073064857,15.2943824498121
0.0255361253229125,15.2976782376745
0.0266442050660616,15.3007464776705
0.0275402646375614,15.3037332622359
0.028165670875836,15.3065686889557
0.0285234983616597,15.3093721625966
0.028591421132319,15.3122872380355
0.0282861668138964,15.315580291393
0.0273036119124465,15.3199380121436
0.0264136195376984,15.3226394664316
0.025356082760812,15.3253409207197
0.0242838155296555,15.3277977678798
0.0232105749829429,15.3301012626669
0.0221364430136637,15.3323198268302
0.0210640821296848,15.3344913740366
0.0199971146418792,15.3366395908973
0.0189392389311196,15.3387810309105
0.0178939587939505,15.3409282325671
0.0168645117097479,15.3430912905943
0.0158538550977568,15.3452787516205
0.0148646714832837,15.3474981705038
0.0138993816687079,15.3497564760685
0.0129601528487877,15.3520602438221
0.0120489110785059,15.354415895004
0.0111673536444233,15.3568298595947
0.0103170052029226,15.3593087351963
0.00949913212769054,15.3618594069166
0.0087147752533525,15.3644892011271
0.00794449100126308,15.3672826302434
0.00718936001974645,15.3702676474101
0.00645312773090582,15.3734673353088
0.00573972525491308,15.3769084505375
0.00505327081626979,15.3806219643785
0.0043980141664279,15.384643882407
0.00377823742713875,15.3890164015655
0.0031980934826571,15.393789767856
0.0026613773883862,15.3990254943251
0.00217122051340766,15.4048024832862
0.00172993554028875,15.4112258555099
0.00134749278123455,15.4182627783258
0.00102767817755644,15.4258640410419
0.000763807992645973,15.434148785478
0.000575144177691755,15.4425444668527
0.000443751040316786,15.4507765035331
0.000328514428009435,15.4607765035331
0.000248170708275321,15.4707765035331
0.000192401852748295,15.4807765035331
0.000154213137904184,15.4907765035331
0.0001285028556387,15.5007765035331
0.000111539444029333,15.5107765035331
0.00010067306653517,15.5207765035331
9.40766362855018e-05,15.5307765035331
9.0510274806673e-05,15.5407765035331
8.91351751389057e-05,15.5507765035331
8.93829031600184e-05,15.5607765035331
9.08693991519911e-05,15.5707765035331
9.3339071586887e-05,15.5807765035331
9.66276419436678e-05,15.5907765035331
0.000100636788953181,15.6007765035331
0.000105316702095473,15.6107765035331
0.000110654276914249,15.6207765035331
0.000116665469214322,15.6307765035331
0.000123390761921633,15.6407765035331
0.00013089301647074,15.6507765035331
0.000139257247429169,15.6607765035331
0.000148592087180616,15.6707765035331
0.000159032906319446,15.6807765035331
0.000170746743584449,15.6907765035331
0.000183939403081313,15.7007765035331
0.000198865329710343,15.7107765035331
0.000215841221173065,15.7207765035331
0.000235264843844408,15.7307765035331
0.000257641298489617,15.7407765035331
0.000283620213833535,15.7507765035331
0.000314049353796963,15.7607765035331
0.000350053493064605,15.7707765035331
0.00039315324433117,15.7807765035331
0.0004454489489125,15.7907765035331
0.00050606057852864,15.8002286793225
0.000574828967254501,15.8089576250605
0.000652744525827101,15.817011370857
0.000741017704706259,15.8244426875256
0.000841037839171903,15.8313007927778
0.0009543826607634,15.83763133545
0.00108283978075495,15.8434766771176
0.00122843370321839,15.8488761422639
0.00139345860931927,15.8538662224713
0.00158051314960141,15.8584807847456
0.00179254522653352,15.8627512813036
0.00203290134816561,15.8667069517442
0.00230538943943461,15.8703749962799
0.00261435229412669,15.8737807526811
0.00296476247260213,15.8769478889286
0.00336234448451118,15.8798985990143
0.00381373192450519,15.8826538048483
0.004326684121397,15.8852333975728
0.00491038954919537,15.8876565312739
0.00557590684623652,15.8899419985285
0.00632015380806083,15.8920653206935
0.00714224670658913,15.8940282735075
0.00805382629394922,15.895864914384
0.00907247688882792,15.8976097912633
0.0102267902346021,15.8993022338439
0.0115711187482911,15.9009989619913
0.0133149519383968,15.9028941195525
0.0152022263637114,15.9046863159851
0.0168373918446927,15.9061019328307
0.0185594080880345,15.9075175496764
0.0200971830253798,15.9087646282849
0.0214702206797602,15.9099086148377
0.0227012738447685,15.9110082415555
0.0237866352163849,15.9121038869938
0.024705197926723,15.9132349900025
0.0254153233684568,15.914456617628
0.0258299019871556,15.9158822783465
0.0256155043743671,15.918012957219
0.0249238273493627,15.9195195302581
0.0238850204560103,15.9210261032971
0.022695530074335,15.9224225099623
0.0213597752760091,15.9238209472069
0.019886714859195,15.9252716946662
0.0182852644590496,15.9268121348317
0.0172725849712834,15.9277881693308
0.0162873441243567,15.92876420383
0.0143039286109177,15.9308774118737
0.0125282692933657,15.932981896405
0.0108965039707968,15.9351514960511
0.00928660857599098,15.9375895872675
0.00785613269602386,15.9400953631258
0.00702240568506894,15.9417534751974
0.00627006193292275,15.9434115872691
0.00564038610856712,15.944945891332
0.00508378131458317,15.9464392618761
0.00456203426239726,15.9479825308163
0.00404239082457298,15.9496903523398
0.00347077662802115,15.951819921533
0.00281004080197772,15.9547261711847
0.00227363560089458,15.957591537318
0.00186308128928732,15.9602421155183
0.00149841186526909,15.9630983434706
0.00114367544774422,15.966597636399
0.000842700299564188,15.9705647287247
0.00061418297551647,15.9749186666951
0.000466973107585344,15.979747216894
0.00042429196184987,15.9843528463553
0.000471908738753783,15.9884797146036
0.000596169931653036,15.9921932933105
0.000790546625158783,15.9955373045996
0.00105275544107968,15.998559939099
0.00138372550489646,16.0013106958794
0.0017876280142729,16.0038400841745
0.00227295378937058,16.0062008044498
0.00285445222774612,16.0084486980277
0.00355747342103916,16.0106481149248
0.00443499486659195,16.0129010561356
0.00559711851412786,16.0153704025288
0.00717526677949614,16.0181619496787
0.00909768564656123,16.0210215643623
0.0105253570184941,16.022866689863
0.0121360611918157,16.0247118153637
0.0138165125382885,16.0264021971383
0.015571617462369,16.027945557733
0.017484860653005,16.0294095067979
0.0195853991681607,16.030800830369
0.0219222530711549,16.0321355837072
0.0245345563741372,16.033418525012
0.0274658701688892,16.034654149595
0.0307561447448574,16.0358435316526
0.0344582890484596,16.0369909848728
0.0386243117922207,16.0380983392435
0.0433145983797845,16.0391680901221
0.0486031513240895,16.0402037988315
0.0545734895353908,16.0412084908716
0.0613225952457604,16.0421851478928
0.068969460879435,16.0431374213662
0.0776566877227256,16.0440690371507
0.0875577926313156,16.0449839637651
0.0988874622396247,16.045886587873
0.111914445463059,16.0467818046176
0.126985457727024,16.0476754970677
0.144554338879855,16.0485747117249
0.165236552119107,16.0494884691931
0.189766708730306,16.0504242125436
0.218147861740526,16.0513619453331
0.251087433548956,16.0523105734179
0.289538490666009,16.0532836689002
0.334996352123021,16.0543069271669
0.372728745916339,16.0550884235213
0.412166815888413,16.0558699198757
0.44708216270985,16.056556966238
0.47755283308769,16.0571775374249
0.504295992086176,16.0577670735921
0.527384254518954,16.0583504311695
0.546400600570435,16.0589511459416
0.560311612592479,16.0596008552589
0.566661299059832,16.0603594310153
0.561650409094875,16.0611332392321
0.544201596402545,16.0619434466154
0.512577135844658,16.0628086268704
0.465952907650304,16.063716757226
0.404770873660386,16.0646493986472
0.355840004579372,16.0652877053143
0.30211923279685,16.0659260119815
0.25507327993199,16.066454615569
0.215318150999054,16.0668924782066
0.180699011514071,16.0672759351937
0.149857218914641,16.0676262282966
0.12199848293126,16.0679561055109
0.0965905299162509,16.0682746550311
0.0732072330153035,16.0685899239405
0.051408421007695,16.0689114324794
0.0304979833082206,16.0692561858945
0.00804616152056107,16.0696866148296
-0.00148695916132696,16.069897174192
-0.0101110657419216,16.0701077335544
-0.0167169754592179,16.0702855171155
-0.022813957137793,16.0704657150771
-0.0289520739410947,16.0706669539847
-0.0348788219453933,16.0708857678034
-0.0404328963604789,16.0711200590919
-0.0455243967733545,16.0713690870286
-0.0501063768894957,16.0716330171648
-0.0541578866582084,16.0719126694914
-0.057673957315642,16.0722093981588
-0.0606576762707161,16.0725250528724
-0.0632647600321752,16.0728873060648
-0.0651430191691888,16.073247324183
-0.0665247282636064,16.0736348055781
-0.0674261974521893,16.0740545762915
-0.0678594403032826,16.0745122734734
-0.0678323875412277,16.0750150603538
-0.0673466311590727,16.075572252119
-0.0663915096716477,16.0761977850883
-0.0649398085625091,16.0769100475916
-0.062935611864732,16.0777371359916
-0.0602606920189646,16.0787285111277
-0.0566010207515627,16.0800011186918
-0.0524346989314835,16.0814089315001
-0.0483927079833698,16.082772365782
-0.0445270080838689,16.0840961149184
-0.0408637530871889,16.0853822612179
-0.037416882654637,16.0866314826729
-0.03419321046186,16.087843752988
-0.0311946694073793,16.0890187141233
-0.028419505225358,16.0901558728628
-0.0258630555723841,16.0912547024215
-0.0235183563329404,16.0923146906048
-0.0213766657251699,16.0933353561017
-0.0194279366437989,16.0943162445065
-0.0176612449124722,16.0952569104876
-0.016050007014258,16.0961657019696
-0.0144955057856642,16.0970975742867
-0.0130027465499943,16.0980537447031
-0.0115757143675285,16.0990361908355
-0.0102182199815345,16.100047222802
-0.00893384302852664,16.1010895682807
-0.00772587973404215,16.1021664784653
-0.0065972878910926,16.103281869573
-0.00555062900197825,16.1044405159174
-0.00458800698312733,16.1056483200961
-0.00371100209343537,16.1069127025902
-0.00292059741590484,16.1082431840741
-0.00221709276946377,16.1096522947497
-0.00159999597133838,16.1111570744418
-0.00107059075513414,16.1127723296048
-0.000647999156985629,16.1144273966382
-0.000314600387319271,16.1161406915838
-5.52077035739439e-05,16.1179314496821
0.00014440139376978,16.1198249496265
0.000297878975599161,16.1218561503889
0.000418896388652278,16.1240770589588
0.000522193371558783,16.1265735058126
0.000626174863604536,16.1295132565836
0.000759585476439065,16.1332538600725
0.000913369793164039,16.1370972822089
0.00111195543164675,16.1414623495275
0.00132597107047043,16.1457621158118
0.00155453834406476,16.1501498908513
0.00181136309612755,16.15500950346
0.00207076688680574,16.1599305083046
0.00232772700771722,16.164847215802
0.00256770704490613,16.1694636002903
0.00277982790277653,16.1735409632793
0.00298183363867885,16.1774018732655
0.00318170033969242,16.1811811641905
0.00338418090728334,16.184951658957
0.00359287237269743,16.1887624888115
0.00381095121233946,16.192651949061
0.00404150680057802,16.1966527574802
0.00428777859290944,16.2007953865496
0.00455333423886348,16.2051100050913
0.00484224993651874,16.2096278077393
0.00515937063333804,16.2143823013398
0.00551073985753298,16.2194106424745
0.00589827812918414,16.2246743521863
0.00629774633223191,16.2297946654217
0.00671963027224153,16.2348766602284
0.00716373205506896,16.2398736625869
0.00763513755364733,16.2447980608304
0.00813867755672683,16.249651315674
0.00868027466248577,16.2544391438604
0.00926635969963669,16.2591646534861
0.00990398241261155,16.2638290882482
0.0106028440161726,16.2684444324962
0.0113875479943913,16.2730960234098
0.0122726919317794,16.2777753171794
0.0132809685307064,16.2824999516144
0.0144442156989732,16.2873037088768
0.0158152647622527,16.2922673570142
0.0175066001820707,16.2976089483791
0.0199268323786187,16.3042288205582
0.0215597801094506,16.3082740559717
0.02325621117525,16.3123192913851
0.0247286938259351,16.3158661898786
0.0259677475533162,16.3190530171207
0.0270003832740414,16.3220805915984
0.0277966499024092,16.3249970484502
0.0283259629971996,16.3278063447529
0.0285835809072429,16.3306308483129
0.0285321814727792,16.333637756234
0.0280340473571298,16.3372276842647
0.0272298906906442,16.3404122391851
0.0261423875657819,16.3435967941055
0.025055771645539,16.3462772755144
0.0239816739881365,16.348685302273
0.0229079240876804,16.3509600120536
0.0218339389188539,16.3531623951458
0.0207627127009732,16.355325425187
0.0196979342354988,16.3574703214447
0.0186432602978639,16.3596122874214
0.0176021237898333,16.3617630526625
0.0165776823782831,16.36393220689
0.0155728156066535,16.3661279705547
0.0145901306869498,16.3683576914918
0.0136319750310771,16.3706281775921
0.0127004486215469,16.3729459382636
0.0117974104119676,16.3753173846053
0.0109245035241181,16.3777489825558
0.0100831903430355,16.3802473907375
0.00927466592926838,16.3828196096209
0.00849589409014634,16.3854874295059
0.00772951204875302,16.3883328711398
0.00697934439704562,16.3913759924452
0.00624916453439485,16.3946409451007
0.005542958747138,16.3981556097378
0.00486489024970369,16.4019522808896
0.00421923024347018,16.4060685718469
0.00361024460299973,16.4105487101768
0.00304201026146648,16.41544571336
0.00251816217106284,16.4208252699151
0.00204161107050676,16.4267726277977
0.00161444285308663,16.4334022198779
0.00125048779262644,16.4405896502109
0.000947249102712,16.4483715002996
0.000700125324380711,16.4568775451019
0.000552454974590856,16.4640803197765
0.000410640162186403,16.4735458334064
0.000306128445873041,16.4834583065235
0.000232490414299595,16.4934583065235
0.000181578619771978,16.5034583065235
0.000146882951989223,16.5134583065235
0.00012363579221572,16.5234583065235
0.000108386627964359,16.5334583065235
9.87134969750354e-05,16.5434583065235
9.29574601971833e-05,16.5534583065235
8.99941572866505e-05,16.5634583065235
8.90617970086414e-05,16.5734583065235
8.96436643695824e-05,16.5834583065235
9.13913556470939e-05,16.5934583065235
9.40745104264835e-05,16.6034583065235
9.75470310648025e-05,16.6134583065235
0.000101723894884957,16.6234583065235
0.000106565233842611,16.6334583065235
0.000112065661011004,16.6434583065235
0.000118247474950226,16.6534583065235
0.000125156771987165,16.6634583065235
0.000132861805016779,16.6734583065235
0.000141453187110489,16.6834583065236
0.000151045758515874,16.6934583065236
0.000161782129466409,16.7034583065236
0.000173838100214754,16.7134583065236
0.000187430372116665,16.7234583065236
0.000202827235074891,16.7334583065236
0.000220363296347132,16.7434583065236
0.000240459878661296,16.7534583065236
0.000263653584574292,16.7634583065236
0.000290636909180545,16.7734583065236
0.000322317056734727,16.7834583065236
0.000359902959402691,16.7934583065236
0.000405037197669745,16.8034583065236
0.000460001617188707,16.8134583065236
0.000522619426909723,16.8227278505573
0.000593597539814309,16.8312812496686
0.000674008687714349,16.8391729486643
0.000765110413987114,16.8464549969303
0.000868338793462163,16.8531756882879
0.000985322541479296,16.8593798155857
0.00111790639170832,16.8651089515904
0.00126817966293931,16.8704016865838
0.00143850996057488,16.8752938295184
0.00163157951756736,16.8798186175996
0.00185043183517833,16.8840069261567
0.00209852389198524,16.887887464039
0.00237979063875192,16.8914869437573
0.00269872445831198,16.8948302625439
0.00306047481321367,16.8979406980312
0.00347097904995316,16.9008401026427
0.00393713214088135,16.9035491132161
0.00446702108404959,16.9060874048698
0.00507025783546109,16.9084740000196
0.00575846863892638,16.910727676734
0.00652172629165487,16.9128070629883
0.00736530567090267,16.9147346144221
0.00830217344818451,16.9165445366123
0.00935201575256349,16.9182719578928
0.0105478988285579,16.9199588899426
0.0119668905818982,16.9216830752977
0.0138832773674319,16.9236849304266
0.0155861287957127,16.9252557321329
0.0174343012914167,16.9268265338392
0.019122197353975,16.9282012193576
0.0205984331390329,16.9294043163825
0.0219205089032701,16.9305273845973
0.0231015547975843,16.9316213468316
0.0241313474995542,16.932724620368
0.024982567570129,16.9338798301972
0.0256025240075045,16.9351545480244
0.0258676524772836,16.9367160549689
0.0255153021100501,16.9385215979479
0.0245600564634988,16.9403271409269
0.0234475781216445,16.9417928697482
0.0221991508705776,16.9431843110506
0.0208091697715424,16.9445984041256
0.0192858695383734,16.9460792515528
0.0176363966736116,16.9476647154437
0.0158889765117328,16.9494023165815
0.0145466091987828,16.9508372129591
0.0127433817976368,16.9529445592971
0.0110980970712803,16.9550991699647
0.00949757350584899,16.9574799680994
0.00803124205272238,16.9599976437045
0.00716404885017381,16.9616896245542
0.00638291123760022,16.9633816054039
0.00573615680632592,16.9649325659546
0.00517067194894573,16.966426297123
0.00464537054142206,16.9679551369805
0.00412787056568692,16.9696255664058
0.00357112487383674,16.9716531758059
0.00289742656380623,16.9745368953618
0.00232268460936845,16.977533640741
0.00189785775104765,16.9802259089428
0.00152939973865142,16.9830594317515
0.00117423746112611,16.9864843866185
0.000866908530256031,16.9904189588783
0.000631594545530088,16.994734605175
0.000476328939735998,16.9995152368171
0.000423989486775902,17.0041749376984
0.000463927134531326,17.0083416503643
0.00058142860881859,17.012092631214
0.000769408075839865,17.0154685895269
0.00102533358515387,17.0185193476224
0.00134990111122249,17.0212941290882
0.00174690288757677,17.0238426277242
0.00222423890672889,17.0262168007146
0.00279613559189295,17.0284730559056
0.00348655525664581,17.0306740772464
0.0043443733488096,17.0329158433587
0.00547283978004766,17.0353554542554
0.00702028040305165,17.0381372962449
0.00891380826737322,17.0409965882824
0.0103434570492057,17.042871598559
0.0119570578051224,17.0447466088356
0.0136346207378386,17.0464582368141
0.015379393874814,17.0480148502878
0.0172742738076122,17.049486582486
0.0193528749989908,17.050884813259
0.0216621078822108,17.0522248438488
0.0242434968356536,17.0535131929655
0.0271382130245364,17.0547534001014
0.0303881630845671,17.0559475598676
0.0340446129290916,17.0570995093126
0.0381573633390131,17.0582106692441
0.0427886645542025,17.0592842750173
0.0480101591233824,17.060323522913
0.0539039030037176,17.0613314098905
0.0605645413476159,17.0623108173583
0.0681097543989309,17.0632655230437
0.0766788967763392,17.0641991679168
0.086441734126173,17.0651156825684
0.0976074916445468,17.0660193633434
0.11043908039366,17.066915104397
0.125273521665821,17.0678086545801
0.142551128529095,17.0687069013689
0.162866579104886,17.069618603436
0.187028275467834,17.0705545636598
0.2149762709362,17.0714917279342
0.247399357071491,17.0724386908257
0.285217075587758,17.0734083412069
0.329839050144544,17.0744243895386
0.368045135252736,17.0752220625797
0.408166108246485,17.0760197356208
0.44365315974472,17.0767171922708
0.474544554098285,17.077342831212
0.501665207743746,17.0779343522167
0.525147215239488,17.078517297987
0.544624567467749,17.0791149545184
0.559147059481995,17.0797574852905
0.566500209492151,17.0805021419366
0.562807723181922,17.0812731784582
0.546830119635031,17.0820783058971
0.516905518414549,17.0829365092239
0.471862254351833,17.0838427544124
0.412154898172366,17.0847746736956
0.362411907320038,17.0854340869287
0.307408012733918,17.0860935001618
0.259368573818456,17.0866353427879
0.218982428654998,17.0870804617658
0.183928722766973,17.0874681548462
0.152755825576924,17.0878210629646
0.124629333358975,17.0881525139038
0.0989994773139071,17.0884718224915
0.0754347692616819,17.088787041151
0.0535031088903492,17.0891073863518
0.0325563500510511,17.0894485442102
0.0105740764587458,17.0898623262451
-0.000281022466122192,17.0900976834754
-0.00777852195136248,17.0902769178152
-0.014639485591645,17.0904561521549
-0.0206260456648915,17.0906273547157
-0.0267794827939128,17.0908214436955
-0.0328047727287473,17.0910343265788
-0.0385047972558158,17.0912632504547
-0.0437681526206665,17.0915070523067
-0.0485350346550782,17.091765612871
-0.0527766601858064,17.0920395382725
-0.0564832283299139,17.0923300004048
-0.0596566514399838,17.0926386730978
-0.0623802004318712,17.0929798904229
-0.0644581296321544,17.0933297709753
-0.0660343578620698,17.0937057325588
-0.0671248640366167,17.094112079963
-0.0677427626578326,17.0945539603014
-0.0678978336512087,17.09503787036
-0.0675945085232934,17.0955721760299
-0.0668277831563809,17.0961687521235
-0.0655777709681719,17.0968439301325
-0.0638022422614729,17.0976211513397
-0.0614145221138966,17.0985390373024
-0.0582114734337903,17.0996762948353
-0.0540146972701041,17.1011057360834
-0.0499166238089081,17.1024853338486
-0.0459795214953955,17.103823837361
-0.0422368154582643,17.1051241744311
-0.0387062188995492,17.1063874471817
-0.0353968954506892,17.1076138377614
-0.0323124584770206,17.1088030826687
-0.0294524515705273,17.109954723329
-0.0268132427549866,17.1110682371778
-0.0243886802152459,17.1121431027275
-0.0221706418641497,17.1131788261661
-0.0201495255089679,17.1141749440938
-0.0183146937626381,17.1151310104068
-0.0166548747593374,17.1160465717678
-0.0150782521790193,17.116969550674
-0.0135615890199233,17.1179162848427
-0.0121091590846183,17.1188885090849
-0.0107248458072716,17.1198883984622
-0.00941232249241582,17.1209185112917
-0.00817499920417648,17.1219818856818
-0.00701596877222278,17.123082166034
-0.00593795004739307,17.124223774171
-0.00494322801986424,17.1254121464102
-0.00403358978615443,17.1266540713425
-0.00321025428996514,17.1279581874605
-0.00247379183959817,17.1293357466004
-0.00182402565107889,17.1308018454932
-0.00125989956447056,17.1323775438927
-0.000798556168974882,17.1340154059694
-0.00043283352838287,17.1357043611918
-0.00014680490992434,17.1374628287185
7.40820828731658e-05,17.1393134603628
0.000243641017910015,17.1412868997323
0.000375447421730669,17.1434273593657
0.000483652224456666,17.1458046042219
0.000584733164231887,17.1485449346813
0.000703244052647829,17.1519435620528
0.00084582823475672,17.1557023707648
0.00102380154101506,17.1598155526391
0.00123202888124815,17.1641373009637
0.00145355546917479,17.1684540469167
0.00169513546900146,17.1730396314772
0.0019594536684777,17.1780428906069
0.00221602639870232,17.1829329286062
0.00247803005262149,17.1879682140728
0.00269827728425957,17.1922040076467
0.00290301303320449,17.1961278663748
0.00310305445786861,17.1999284418102
0.00330404133862369,17.2036956352607
0.00350989997754441,17.2074855904413
0.0037239197717002,17.2113399754887
0.0039491969591693,17.2152932985774
0.00418888634573739,17.2193765776046
0.00444640731106674,17.2236199316916
0.00472561153068492,17.2280540065783
0.00503100212882985,17.2327112406671
0.00536808641421822,17.2376272168957
0.0057439471313902,17.2428417826151
0.00613749105397515,17.2480051367349
0.0065506370622921,17.2531089873673
0.00698540149781697,17.2581380384486
0.00744549068931841,17.2630910102928
0.00793567827468841,17.2679716700794
0.00846151535747077,17.2727848519419
0.00902922951191441,17.2775347047049
0.00964562452110422,17.2822232369972
0.0103181422321956,17.2868505599499
0.0110674227146011,17.2914888851098
0.0119106488749555,17.2961557489232
0.0128672895741995,17.3008599101244
0.0139647304277527,17.3056263786193
0.0152453116114118,17.3105121550212
0.0167891728358623,17.3156606468751
0.018820163120564,17.3215476209372
0.0206530588135179,17.326284726869
0.0226136854012377,17.3310218328007
0.0242148651668991,17.3348400033642
0.0255365075738605,17.3381356787178
0.0266445226752312,17.3412038752254
0.0275404963834591,17.3441905918076
0.0281658212288458,17.3470259894548
0.028523565428963,17.3498294729975
0.0285913920275841,17.3527446115102
0.0282859956573743,17.3560378591297
0.0273033104846896,17.3603954867928
0.0264132897745021,17.3630968218052
0.0253557533975213,17.3657981568176
0.0242834874390643,17.3682549382122
0.0232102465545228,17.3705583984691
0.0221361146315883,17.3727769434548
0.0210637548210452,17.3749484803864
0.0199967895477016,17.3770966929085
0.018938917157751,17.3792381329304
0.0178936413733779,17.3813853380013
0.0168641995870318,17.3835484022653
0.0158535491348306,17.3857358719702
0.0148643724587605,17.3879553017369
0.0138990902817657,17.3902136202459
0.012959869724583,17.3925174029267
0.012048636766229,17.3948730710093
0.0111670886423528,17.3972870544915
0.0103167499392254,17.399765951054
0.00949888694958704,17.4023166459163
0.00871454044666527,17.4049464656075
0.00794426014500739,17.4077399498152
0.00718913430436482,17.4107250282534
0.00645290831224637,17.413924784953
0.00573951335025416,17.4173659776869
0.00505306769449009,17.4210795791188
0.00439782112429183,17.4251015964962
0.00377805575008198,17.429474228869
0.00319792438430361,17.4342477250817
0.00266122193219374,17.4394836023154
0.00217107952621822,17.4452607693519
0.00172980960060818,17.4516843564806
0.00134738683656414,17.4587214351215
0.00102759016241797,17.4663228846692
0.000763735924204953,17.4746078577057
0.000575225223925672,17.4829968669262
0.000443755575963482,17.4912327765145
0.000328517092401951,17.5012327765145
0.000248172184813863,17.5112327765145
0.00019240277692777,17.5212327765145
0.000154213836609698,17.5312327765145
0.000128503440371744,17.5412327765145
0.000111539941492128,17.5512327765145
0.000100673488488851,17.5612327765145
9.40769983672636e-05,17.5712327765145
9.05105945784044e-05,17.5812327765145
8.91354676370251e-05,17.5912327765145
8.93831792774279e-05,17.6012327765145
9.08696662350909e-05,17.6112327765145
9.33393346638082e-05,17.6212327765145
9.66279047202932e-05,17.6312327765145
0.000100637054412726,17.6412327765145
0.000105316972825219,17.6512327765145
0.000110654555301808,17.6612327765145
0.000116665757594613,17.6712327765145
0.000123391062706169,17.6812327765145
0.000130893332269585,17.6912327765145
0.000139257581171982,17.7012327765145
0.000148592442245107,17.7112327765145
0.00015903328667815,17.7212327765145
0.000170747153983175,17.7312327765145
0.000183939849266041,17.7412327765145
0.000198865818724857,17.7512327765145
0.000215841761758712,17.7612327765145
0.000235265446987974,17.7712327765145
0.000257641978188725,17.7812327765145
0.000283620988187028,17.7912327765145
0.000314050246590967,17.8012327765145
0.000350054536132801,17.8112327765145
0.000393154481157484,17.8212327765145
0.000445450440289577,17.8312327765145
0.000506062260123782,17.8406849337092
0.000574830858612046,17.8494138615844
0.000652746654512657,17.8574675909002
0.000741020102938431,17.8648988923938
0.00084104054377677,17.8717569836803
0.000954385713590324,17.8780875135072
0.0010828432292893,17.8839328433685
0.00122843760134055,17.8893322976718
0.00139346301817195,17.8943223679295
0.00158051813856967,17.8989369210828
0.00179255087445145,17.9032074092895
0.00203290774473594,17.9071630720942
0.00230539668686182,17.9108311096596
0.0026143605093051,17.9142368597111
0.00296477178973351,17.9174039901894
0.00336235505858927,17.9203546950513
0.00381374393595138,17.9231098961773
0.00432669778238318,17.9256894846868
0.00491040511275747,17.9281126146511
0.00557592461985989,17.9303980786438
0.00632017343061992,17.9325213962958
0.00714226841301344,17.9344843454533
0.00805385044323999,17.9363209835378
0.0090725040309805,17.9380658585297
0.0102268213167875,17.9397583003528
0.0115711557508591,17.9414550296283
0.0133150035563738,17.9433501958461
0.015202257168599,17.9451423677207
0.01683742121419,17.9465579815226
0.0185594347643146,17.9479735953244
0.0200972065988061,17.9492206715349
0.0214702418491105,17.9503646569483
0.0227012927268657,17.951464283281
0.0237866515989456,17.952559928947
0.024705211321567,17.9536910328983
0.0254153328453371,17.9549126626412
0.0258299053452181,17.9563383284573
0.0256154870796539,17.9584690353106
0.0249237989284613,17.9599756029
0.0238849865023022,17.9614821704894
0.0226954914219685,17.9628785761327
0.0213597321812684,17.9642770143568
0.0198866676347212,17.9657277640029
0.0182852133077913,17.9672682075121
0.0172725328995676,17.9682442433007
0.0162872929842183,17.9692202790892
0.0143038798869465,17.9713334898908
0.0125282249886118,17.9734379750779
0.0108964678980203,17.9756075699456
0.00928659114822174,17.9780456382304
0.00785611938387436,17.9805514104865
0.00702238623241482,17.9822095377672
0.00627003766400164,17.9838676650479
0.00564036093100178,17.98540197672
0.00508375800015763,17.9868953479454
0.00456201482244038,17.9884386110643
0.00404237786960315,17.9901464163014
0.00347077692757827,17.9922759379355
0.00281004083287327,17.9951821861768
0.00227362619311497,17.9980476044749
0.00186307070736705,18.0006981977619
0.00149840358589231,18.0035544159531
0.00114367072820526,18.0070536778843
0.000842695332941695,18.0110207706736
0.000614177440155428,18.0153747104129
0.00046696659646117,18.0202032628775
0.000424284048874094,18.0248089063338
0.000471899445119848,18.0289357864042
0.000596159209149147,18.0326493760246
0.000790534405295172,18.0359933970893
0.00105274163318477,18.0390160401235
0.00138370997978784,18.0417668041185
0.00178761056663594,18.044296198193
0.00227293410964002,18.0466569228051
0.00285442979939341,18.0489048190551
0.00355744716305143,18.0511042360207
0.00443496196130463,18.053357171871
0.00559707316535558,18.0558265045112
0.00717521148427642,18.0586180471115
0.009097621116285,18.0614776595176
0.010525294207032,18.063322793983
0.0121360008190002,18.0651679284484
0.013816454502135,18.0668583179233
0.0155715587779586,18.068401682744
0.0174847987771493,18.0698656340749
0.0195853332422186,18.0712569596443
0.0219221813243349,18.0725917143267
0.0245344781606809,18.073874657089
0.0274657838350304,18.0751102828101
0.0307560495818987,18.0762996661353
0.0344581837590369,18.0774471205513
0.0386241943107476,18.0785544758889
0.043314467564897,18.0796242278067
0.0486030053052307,18.0806599374888
0.0545733261096957,18.0816646304274
0.0613224115071458,18.0826412882262
0.068969253947638,18.0835935624317
0.0776564538951429,18.0845251788675
0.0875575274052274,18.0854401060467
0.0988871600335659,18.0863427306226
0.111914099393896,18.0872379477344
0.126985059061451,18.0881316404376
0.144553876314845,18.089030855215
0.165236010549139,18.0899446126378
0.189766084679338,18.0908803563275
0.218147141320298,18.0918180893347
0.251086599320209,18.0927667174691
0.289537518734287,18.0937398127151
0.334995201604785,18.0947630700836
0.372727676386642,18.0955445699832
0.412165866366157,18.0963260698827
0.447081311759518,18.0970131186107
0.477552053958377,18.0976336911123
0.504295277314219,18.0982232279637
0.527383607777868,18.0988065857196
0.546400035747617,18.0994073001001
0.560311161224826,18.1000570081148
0.566661049240649,18.100815584057
0.561650378634328,18.1015893919944
0.544201815289446,18.1023995986531
0.512577648306622,18.1032647777843
0.465953654512599,18.104172908548
0.404771840112874,18.1051055502705
0.355840878998621,18.105743859877
0.302119949933066,18.1063821694834
0.255073872465996,18.1069107749582
0.215318664081858,18.1073486386645
0.180699469860986,18.1077320962978
0.149857635563918,18.1080823898145
0.121998865900731,18.1084122672901
0.0965908851222373,18.1087308169497
0.0732075659391577,18.1090460858746
0.051408738773092,18.1093675942538
0.0304983014099315,18.1097123471128
0.00804657007027923,18.1101427731812
-0.00148672789231386,18.1103533358525
-0.0101109826324588,18.1105638985238
-0.0167169079694675,18.1107416823933
-0.0228138870056948,18.1109218801599
-0.0289520039835296,18.1111231189126
-0.0348787542112955,18.1113419326079
-0.0404328320334465,18.1115762237877
-0.0455243365154198,18.1118252516197
-0.0501063210506813,18.1120891816477
-0.0541578353968177,18.1123688338571
-0.0576739106712468,18.1126655623937
-0.060657634187147,18.1129812169582
-0.0632647220517264,18.1133434698507
-0.0651429857005632,18.1137034877586
-0.06652469920313,18.1140909689071
-0.0674261727034494,18.1145107393269
-0.0678594197973333,18.114968436155
-0.0678323712566526,18.1154712226038
-0.0673466191498563,18.1160284138337
-0.0663915021461167,18.1166539461088
-0.0649398059346241,18.1173662076989
-0.0629356149556411,18.1181932948295
-0.0602607026476042,18.1191846680008
-0.0566010446810224,18.1204572715555
-0.0524347223078936,18.121865084835
-0.0483927301975809,18.1232285194807
-0.0445270288196944,18.1245522689406
-0.0408637721853345,18.1258384155449
-0.0374169000366822,18.1270876372972
-0.0341932260986135,18.1282999079081
-0.031194683303782,18.1294748693404
-0.0284195174119511,18.1306120283795
-0.0258630660994875,18.1317108582407
-0.0235183652660554,18.1327708467297
-0.0213766731410531,18.1337915125355
-0.0194279426269643,18.1347724012522
-0.0176612495520519,18.1357130675484
-0.0160500112477042,18.1366218588533
-0.014495509574066,18.1375537309852
-0.0130027498641249,18.1385099012018
-0.0115757171793916,18.1394923471174
-0.010218222264831,18.1405033788471
-0.00893384475906882,18.1415457240654
-0.00772588089020383,18.1426226339613
-0.00659728845427288,18.1437380247461
-0.00555062895711967,18.1448966707255
-0.00458800631925811,18.1461044744869
-0.00371100080428691,18.1473688564973
-0.00292059550062589,18.1486993374114
-0.00221709023350168,18.1501084474023
-0.00159999282762825,18.1516132262504
-0.00107058679135318,18.1532284811649
-0.000647994522426609,18.1548835478113
-0.000314595206997197,18.1565968422383
-5.5202094285353e-05,18.1583875996486
0.000144407320719383,18.160281098678
0.000297885110377055,18.1623122982017
0.000418902616653336,18.164533205031
0.000522199560796952,18.1670296492633
0.000626180828256291,18.169969395497
0.000759591242498889,18.1737099995448
0.000913375176398419,18.1775534190778
0.00111196030533285,18.1819184816935
0.00132597566753921,18.1862182468515
0.0015545431254724,18.190606028121
0.00181136894224232,18.1954656625606
0.00207077254417993,18.2003866643619
0.00232773285455068,18.2053033755146
0.00256771164248668,18.209919735094
0.00277983207016024,18.2139970889062
0.0029818376721548,18.2178579952329
0.00318170438568203,18.2216372850933
0.00338418506428917,18.2254077804017
0.00359287672190096,18.2292186119822
0.0038109558294198,18.2331080749293
0.00404151176223446,18.2371088869145
0.00428778398197543,18.2412515203908
0.00455334014808171,18.2455661441923
0.00484225647352627,18.2500839530006
0.00515937792893951,18.2548384537471
0.0055107480795759,18.2598668031327
0.00589828650673737,18.2651305091055
0.00629775516996352,18.2702508222189
0.00671963950506294,18.2753328151427
0.00716374179004562,18.2803298159386
0.00763514788360279,18.2852542125758
0.00813868860652435,18.2901074659671
0.0086802865681467,18.2948952928054
0.00926637260972803,18.2996208011476
0.00990399648747218,18.3042852346387
0.0106028597682681,18.3089005796924
0.0113875656888269,18.3135521711025
0.0122727119896282,18.3182314656531
0.0132809915058191,18.3229561013233
0.0144442424325952,18.3277598608952
0.015815296775914,18.3327235139652
0.0175066412694857,18.3380651181366
0.0199268740428463,18.3446849754801
0.0215598161167013,18.3487301913051
0.0232562395220361,18.3527754071302
0.0247287171895903,18.3563222959264
0.0259677672005588,18.3595091188731
0.0270003993606135,18.3625366918928
0.0277966613071461,18.3654531458521
0.0283259698232168,18.3682624413015
0.0285835828644987,18.37108694633
0.0285321774380179,18.3740938595497
0.0280340326015733,18.3776838058443
0.0272298736802524,18.38086834426
0.0261423723407678,18.3840528826757
0.0250557571387217,18.3867333577496
0.0239816595649729,18.3891413819735
0.0229079096523269,18.3914160904668
0.0218339244964954,18.3936184728485
0.0207626983390028,18.3957815025249
0.0196979199838456,18.3979263986548
0.0186432462041378,18.4000683646812
0.0176021098981441,18.4022191301135
0.0165776687289428,18.4043882846514
0.0155728022362074,18.4065840487311
0.0145901176284174,18.4088137701786
0.0136319623139565,18.4110842568799
0.0127004362721215,18.4134020182405
0.0117973984533815,18.4157734653592
0.0109244919784348,18.4182050641773
0.0100831792277548,18.420703473321
0.00927465525831419,18.423275693267
0.0084958835647832,18.4259435154426
0.00772950171984625,18.4287889596198
0.00697933431413385,18.4318320837751
0.0062491547501973,18.4350970396332
0.00554294931703011,18.4386117078809
0.00486488123105127,18.4424083831174
0.0042192216945086,18.4465246787131
0.00361023658089888,18.4510048223369
0.0030420028192439,18.4559018316103
0.00251815535361124,18.4612813952642
0.00204160491165467,18.46722876158
0.00161443737623737,18.4738583638949
0.00125048319717175,18.4810458017397
0.00094724529714876,18.4888276608473
0.000700122479232406,18.4973337167171
0.000552450978517108,18.5045365965885
0.000410637445152878,18.5140021035779
0.000306126144278114,18.5239146214057
0.000232488830032398,18.5339146214057
0.000181577549995892,18.5439146214057
0.00014688224786505,18.5539146214057
0.000123635344467951,18.5639146214057
0.000108386358947064,18.5739146214057
9.87133532299535e-05,18.5839146214057
9.29574055327555e-05,18.5939146214057
8.99941672796468e-05,18.6039146214057
8.9061855154719e-05,18.6139146214057
8.96437595641808e-05,18.6239146214057
9.13914805560121e-05,18.6339146214057
9.4074660405935e-05,18.6439146214057
9.75472034252945e-05,18.6539146214057
0.000101724088385645,18.6639146214057
0.000106565448350789,18.6739146214057
0.000112065897284064,18.6839146214057
0.000118247734509919,18.6939146214057
0.000125157057065226,18.7039146214057
0.000132862118558864,18.7139146214057
0.000141453532832183,18.7239146214057
0.000151046141010587,18.7339146214057
0.000161782554370717,18.7439146214057
0.000173838574443105,18.7539146214057
0.000187430904185284,18.7639146214057
0.00020282783554562,18.7739146214057
0.000220363978437893,18.7839146214057
0.00024046065909413,18.7939146214057
0.000263654484770157,18.8039146214057
0.000290637956971863,18.8139146214057
0.000322318288869585,18.8239146214057
0.000359904425291042,18.8339146214057
0.000405038965134365,18.8439146214057
0.000460003781557039,18.8539146214057
0.000522621886225705,18.8631841390284
0.000593600323919739,18.8717375127591
0.000674011838775598,18.8796291883305
0.000765113981089424,18.8869112150236
0.000868342832584632,18.8936318865251
0.000985327116137736,18.8998359955595
0.00111791157386208,18.9055651147789
0.00126818553414188,18.9108578343582
0.00143851661321883,18.9157499631511
0.00163158705643713,18.9202747382716
0.00185044037918992,18.9244630349655
0.00209853357643735,18.9283435620052
0.00237980161777732,18.9319430318308
0.00269873690824102,18.9352863416114
0.00306048893671443,18.9383967689227
0.00347099508138497,18.9412961661396
0.00393715035364499,18.9440051700588
0.00446704180066639,18.9465434557685
0.00507028144213226,18.9489300456668
0.00575849560765139,18.9511837178224
0.00652175607630874,18.9532630978077
0.00736533864964142,18.9551906442107
0.00830221020392214,18.9570005626384
0.00935205720168458,18.9587279815344
0.0105479466137752,18.9604149130303
0.0119669508347218,18.9621391039056
0.0138833669172715,18.9641409777929
0.0155861942864789,18.9657117502437
0.0174343357906351,18.9672825226944
0.0191222238142892,18.9686572011159
0.0205984564963606,18.9698602960049
0.021920529906669,18.9709833633599
0.0231015734367477,18.9720773254254
0.0241313634642157,18.9731805994268
0.0249825802401784,18.9743358105537
0.0256025321559149,18.9756105312418
0.0258676525969729,18.9771720460615
0.0255152938359748,18.9789775809669
0.0245600468998072,18.9807831158724
0.0234475678953413,18.9822488425158
0.0221991394468148,18.9836402836526
0.0208091571363433,18.9850543771284
0.0192858557610896,18.9865352252923
0.0176363817877751,18.9881206902756
0.0158889610104326,18.9898582930118
0.0145465735549125,18.9912932128401
0.0127433497130429,18.9934005593018
0.011098068195705,18.9955551704365
0.00949754773985503,18.9979359694342
0.00803122094045348,19.0004536429857
0.00716402968632067,19.0021456240241
0.00638289386665702,19.0038376050626
0.00573614094340733,19.0053885657937
0.00517065740870657,19.0068822971784
0.00464535723364242,19.0084111372994
0.0041278584717257,19.0100815670753
0.00357111406834207,19.0121091770581
0.00289741709532182,19.0149928986897
0.00232267661673691,19.0179896448227
0.0018978508572135,19.0206819138509
0.00152939375630452,19.0235154381565
0.00117423231194506,19.0269403960162
0.000866904163499774,19.0308749726078
0.000631590945374368,19.0351906242625
0.000476326174401076,19.0399712626142
0.000423987675870666,19.0446309596854
0.000463926018194133,19.0487976698846
0.000581428053733372,19.0525486483998
0.000769408012767371,19.0559246047541
0.00102533398476569,19.0589753612145
0.00134990197514882,19.0617501413633
0.00174690424027355,19.0642986389581
0.00222424080351832,19.0666728111903
0.00279613813706478,19.0689290659425
0.00348655861715571,19.0711300871755
0.00434437778977459,19.0733718535231
0.00547284589507774,19.0758114653338
0.00702028831916655,19.0785933075817
0.00891381789430419,19.0814525991357
0.010343466897174,19.0833276076144
0.0119570679426786,19.085202616093
0.0136346316753025,19.0869142428771
0.0153794061739583,19.0884708556656
0.0172742877706337,19.0899425872961
0.0193528909816688,19.091340817617
0.021662126196461,19.0926808477975
0.024243517792815,19.0939691965263
0.0271382369875254,19.0952094033046
0.0303881903992037,19.0964035627225
0.034044644013499,19.0975555118401
0.0381573987124487,19.0986666714794
0.0427887047305373,19.0997402769747
0.0480102047492646,19.1007795246195
0.0539039548439431,19.1017874113747
0.0605646003212622,19.1027668186524
0.0681098215955478,19.1037215241787
0.0766789735327235,19.1046551689279
0.086441822093386,19.1055716834941
0.0976075929329146,19.1064753642308
0.110439197618675,19.1073711052946
0.125273658286059,19.1082646555498
0.142551289197693,19.109162902489
0.1628667703373,19.1100746048116
0.187028496787941,19.1110105650793
0.214976527741958,19.111947729473
0.247399656401257,19.1128946925894
0.285217427395195,19.1138643433631
0.32983947166373,19.114880392427
0.368045512803326,19.1156780641245
0.408166422893107,19.116475735822
0.443653420850349,19.1171731916171
0.474544775929987,19.1177988301785
0.501665394501286,19.1183903510699
0.525147365728386,19.1189732969285
0.544624676102023,19.1195709537666
0.559147113826781,19.1202134851778
0.566500178417863,19.1209581432268
0.56280757594691,19.1217291800285
0.546829843947076,19.1225343079381
0.516905095600439,19.1233925118866
0.471861686746603,19.1242987573879
0.412154191430093,19.1252306768768
0.362411281813685,19.1258900880934
0.307407513928431,19.12654949931
0.259368172109664,19.1270913406883
0.218982088215215,19.1275364589933
0.183928424306027,19.1279241516874
0.152755559009344,19.1282770595709
0.124629092554066,19.1286085103711
0.0989992578833522,19.1289278188937
0.0754345674141098,19.1292430375604
0.0535029202512832,19.1295633828656
0.0325561663773493,19.1299045410341
0.0105738582832952,19.1303183243994
-0.000281103592082196,19.1305536790187
-0.00777859214492878,19.1307329132685
-0.0146395458352704,19.1309121475183
-0.0206261100542347,19.1310833503746
-0.0267795471571169,19.1312774395893
-0.0328048342638123,19.131490322666
-0.0385048543618931,19.1317192467158
-0.0437682044202334,19.1319630487357
-0.0485350807022553,19.1322216094714
-0.0527767002967541,19.1324955350545
-0.0564832624821097,19.1327859973843
-0.059656679709946,19.1330946702962
-0.0623802315332029,19.1334358891789
-0.0644581531362311,19.1337857701227
-0.0660343739019741,19.1341617321383
-0.0671248728320108,19.1345680800435
-0.0677427643916975,19.1350099609696
-0.0678978284423186,19.1354938717258
-0.0675944963916526,19.1360281782366
-0.0668277639291111,19.1366247553861
-0.0655777442201909,19.1372999347342
-0.0638022071216526,19.1380771577152
-0.0614144767410847,19.1389950462196
-0.0582114129737903,19.1401323081025
-0.0540146377803255,19.1415617485036
-0.0499165662221574,19.1429413456815
-0.045979466427825,19.1442798486606
-0.0422367632314569,19.1455801852191
-0.0387061696870637,19.1468434574634
-0.0353968493359939,19.1480698475345
-0.0323124154799427,19.1492590919268
-0.0294524116619014,19.1504107320646
-0.0268132058666579,19.1515242453834
-0.0243886462481177,19.1525991103956
-0.022170610695251,19.1536348332901
-0.0201494969979107,19.1546309506672
-0.0183146677574507,19.1555870164235
-0.0166548511017083,19.1565025772211
-0.0150782293042233,19.1574255564448
-0.0135615669980709,19.1583722909469
-0.0121091379702924,19.1593445155497
-0.0107248256526289,19.1603444053197
-0.00941230334640882,19.1613745185796
-0.00817498111183757,19.1624378934452
-0.00701595177391746,19.1635381743272
-0.00593793417803462,19.1646797830605
-0.00494321330808652,19.1658681559781
-0.00403357625341347,19.1671100816922
-0.00321024194954959,19.1684141987251
-0.0024737806954579,19.1697917589554
-0.0018240156963445,19.1712578591781
-0.00125989077935623,19.172833559249
-0.000798548842923829,19.1744714218938
-0.000432827422691869,19.1761603779434
-0.000146799818204922,19.1779188465688
7.4086354109983e-05,19.17976947967
0.000243644654801046,19.1817429209939
0.000375450611371105,19.1838833833267
0.00048365516992216,19.1862606321202
0.00058473612220362,19.1890009689559
0.000703247488396155,19.192399609466
0.000845831965975815,19.1961584200249
0.00102380591166305,19.2002716097469
0.00123203337182673,19.2045933557346
0.00145356018366446,19.2089101038647
0.00169514076415214,19.2134956989859
0.00195945863803151,19.2184989523823
0.00221603132463736,19.2233889902944
0.0024780352695618,19.228424281776
0.00269828197725539,19.2326600649041
0.00290301752778118,19.2365839191295
0.00310305892012743,19.2403844929074
0.00330404587250618,19.2441516863195
0.00350990466366342,19.2479416425802
0.00372392468246954,19.2517960295933
0.00394920216601916,19.2557493554161
0.00418889192408882,19.2598326378986
0.00444641334430411,19.264075996159
0.00472561811436029,19.2685100759648
0.00503100937693414,19.2731673157774
0.00536809446965574,19.2780832986253
0.00574395618287844,19.2832978719736
0.0061375003226142,19.2884612220389
0.00655064686019671,19.2935650719164
0.00698541180228045,19.2985941209464
0.00744550162746041,19.3035470911143
0.00793568996074787,19.308427749267
0.00846152793101349,19.3132409296326
0.00902924312362785,19.3179907809689
0.00964563933578162,19.32267931186
0.0103181584303335,19.3273066333988
0.0110674409236592,19.3319449594487
0.0119106694288328,19.3366118239128
0.0128673130083618,19.341315986195
0.0139647574961391,19.3460824565919
0.0152453435749804,19.3509682368577
0.0167892123937502,19.3561167378505
0.0188202200304961,19.3620037426808
0.0206531020328525,19.3667408017093
0.022613710803342,19.3714778607378
0.0242148843626573,19.3752960173616
0.0255365235999321,19.3785916879993
0.0266445359911382,19.3816598826839
0.0275405060994818,19.3846465964161
0.0281658275323603,19.3874819928447
0.0285235682405537,19.3902854768029
0.028591390806867,19.3932006179605
0.0282859884803197,19.3964938737263
0.0273032978456125,19.4008514974873
0.0264132759473737,19.4035528274991
0.0253557395870705,19.4062541575109
0.0242834736819279,19.4087109361482
0.0232102327832036,19.4110143949574
0.0221361008622026,19.413232939139
0.0210637410966618,19.4154044756398
0.0199967759161638,19.4175526879802
0.0189389036654468,19.4196941280024
0.0178936280635772,19.4218413332166
0.0168641864993596,19.4240043977422
0.0158535363054263,19.4261918678111
0.0148643599202694,19.4284112980341
0.0138990780635027,19.430669617086
0.0129598578527577,19.4329734003929
0.012048625263866,19.4353290691843
0.0111670775303501,19.4377430534588
0.0103167392355402,19.4402219509004
0.00949887666877212,19.4427726467333
0.00871453060070098,19.4454024674932
0.00794425046469976,19.4481959540111
0.00718912483963081,19.4511810350187
0.00645289911155292,19.4543807946033
0.00573950446464324,19.4578219905873
0.00505305917716782,19.4615355956922
0.00439781302963361,19.4655576172358
0.00377804813198788,19.4699302543561
0.0031979172936622,19.474703756017
0.00266121541359685,19.4799396395728
0.0021710736143356,19.4857168140769
0.00172980431969712,19.4921404102174
0.00134738239407615,19.4991774953928
0.00102758647174237,19.5067789527752
0.000763732902196665,19.5150639353979
0.000575228623129821,19.5234526648116
0.000443755765071896,19.5316887369124
0.000328517203633142,19.5416887369124
0.000248172246612544,19.5516887369124
0.000192402815802821,19.5616887369124
0.000154213866190611,19.5716887369124
0.00012850346529143,19.5816887369125
0.000111539962844247,19.5916887369125
0.000100673506748712,19.6016887369125
9.40770141779891e-05,19.6116887369125
9.05106086680964e-05,19.6216887369125
8.91354806314368e-05,19.6316887369125
8.93831916313802e-05,19.6416887369125
9.08696782568651e-05,19.6516887369125
9.33393465661874e-05,19.6616887369125
9.66279166620552e-05,19.6716887369125
0.000100637066523661,19.6816887369125
0.00010531698521981,19.6916887369125
0.00011065456808753,19.7016887369125
0.00011666577087823,19.7116887369125
0.000123391076599371,19.7216887369125
0.000130893346894399,19.7316887369125
0.000139257596666249,19.7416887369125
0.000148592458768394,19.7516887369125
0.000159033304418598,19.7616887369125
0.000170747173165896,19.7716887369125
0.00018393987016384,19.7816887369125
0.000198865841672337,19.7916887369125
0.000215841787171238,19.8016887369125
0.000235265475387682,19.8116887369125
0.000257642010240857,19.8216887369125
0.000283621024751697,19.8316887369125
0.00031405028879844,19.8416887369125
0.000350054585495519,19.8516887369125
0.000393154539741008,19.8616887369125
0.000445450510981038,19.8716887369125
0.00050606233988919,19.8811408932274
0.000574830948384883,19.8898698202573
0.000652746755606823,19.8979235487931
0.000741020216889041,19.9053548495684
0.000841040672338211,19.9122129401938
0.000954385858755943,19.9185434694126
0.00108284339332063,19.9243887987149
0.00122843778680338,19.9297882525048
0.00139346322797758,19.9347783222913
0.00158051837602157,19.9393928750127
0.0017925511433027,19.9436633628239
0.00203290804925682,19.947619025267
0.00230539703191789,19.9512870625023
0.00261436090046102,19.9546928122531
0.00296477223337772,19.9578599424582
0.00336235556210035,19.9608106470728
0.00381374450791928,19.9635658479759
0.00432669843291016,19.966145436286
0.0049104058538922,19.9685685660735
0.00557592546624623,19.970854029912
0.00632017436507529,19.9729773473501
0.00714226944674095,19.9749402963346
0.00805385159336628,19.9767769342871
0.00907250532375179,19.9785218091902
0.0102268227974238,19.9802142509784
0.0115711575139377,19.9819109803092
0.0133150060169566,19.9838061469416
0.0152022586335003,19.9855983176437
0.0168374226095228,19.9870139313008
0.0185594360299012,19.988429544958
0.0200972077151702,19.9896766210545
0.0214702428497185,19.9908206064141
0.0227012936173561,19.9919202327289
0.0237866523692286,19.9930158784064
0.0247052119483726,19.9941469824032
0.0254153332842951,19.9953686122477
0.0258299054912962,19.9967942783078
0.0257551584266687,19.9983971391539
0.0251591674298873,20
