ecg,time
0.0209815303204512,15.0033878522415
0.0228198407768255,15.0078358531609
0.0243667366902663,15.0115616931095
0.0256546766760216,15.0148289865489
0.0267323330922724,15.0178920956937
0.0275899361890908,15.0208640485013
0.0281786074160535,15.0236990466391
0.0284987766186694,15.0265174526242
0.0285233932876921,15.0294699540407
0.0281541777010395,15.0328595529213
0.0273720628458869,15.0363126033042
0.0262441012999719,15.0397656536871
0.025143472661181,15.0425372487477
0.0240664961017578,15.0449826862956
0.0229917650570407,15.047279561246
0.0219169315630366,15.0494974673722
0.0208446902679655,15.0516721095119
0.0197786921420219,15.0538259502142
0.0187226234673252,15.0559748551988
0.0176799633152151,15.0581309360324
0.0166539248153718,15.0603039910366
0.0156474435707262,15.0625023398518
0.0146631820862501,15.0647333468124
0.0137035449438214,15.0670037583284
0.0127706813294209,15.0693199703638
0.0118665015981403,15.0716882022674
0.010992685455755,15.0741146504102
0.0101506830969747,15.0766056400322
0.00934173063909949,15.0791677266518
0.00856399351331992,15.0818179520121
0.00779828018784532,15.0846432098926
0.00704840716207493,15.0876630092685
0.0063181077012771,15.0909009504452
0.00561132890651685,15.0943842333538
0.00493219093125553,15.0981443446547
0.00428492223031503,15.1022179268722
0.00367374938696461,15.1066480379821
0.00310272574198578,15.1114861993544
0.0025754872051434,15.1167960681082
0.00209497708768885,15.1226599269972
0.00166332938456412,15.1291879222012
0.00129163969463365,15.1363188723997
0.000981477725385795,15.144033114012
0.000726199923212416,15.1524561825953
0.000519589870542464,15.1617549308134
0.00036117109386306,15.1717549308134
0.00025274156936585,15.1817549308134
0.000181032436388356,15.1917549308134
0.000132148513001465,15.2017549308134
9.82483321984461e-05,15.2117549308134
7.47969447333012e-05,15.2217549308134
5.88211094878008e-05,15.2317549308134
4.81708478697148e-05,15.2417549308134
4.12605901999969e-05,15.2517549308134
3.69508639761984e-05,15.2617549308134
3.44487135950568e-05,15.2717549308134
3.32130130762753e-05,15.2817549308134
3.28760488762083e-05,15.2917549308134
3.3186798369722e-05,15.3017549308134
3.39731204495944e-05,15.3117549308134
3.51171530138058e-05,15.3217549308134
3.65389956087793e-05,15.3317549308134
3.81855215040054e-05,15.3417549308134
4.00225388744168e-05,15.3517549308134
4.20292829047879e-05,15.3617549308134
4.41945828663896e-05,15.3717549308134
4.65142322681527e-05,15.3817549308134
4.89892118424379e-05,15.3917549308134
5.16245114166002e-05,15.4017549308134
5.44283730855054e-05,15.4117549308134
5.74118348939672e-05,15.4217549308134
6.05884941906979e-05,15.4317549308134
6.39744372997228e-05,15.4417549308134
6.75883012970175e-05,15.4517549308134
7.14514475084592e-05,15.4617549308134
7.5588236843151e-05,15.4717549308134
8.00264055386775e-05,15.4817549308134
8.47975472452994e-05,15.4917549308134
8.99377143611003e-05,15.5017549308134
9.54881588286652e-05,15.5117549308134
0.000101496240903306,15.5217549308134
0.000108016544473729,15.5317549308134
0.000115112250304318,15.5417549308134
0.000122856835317973,15.5517549308134
0.000131336188464224,15.5617549308134
0.000140651264257731,15.5717549308134
0.000150921437274551,15.5817549308134
0.000162288780014038,15.5917549308134
0.000174923570493904,15.6017549308134
0.000189031456881177,15.6117549308134
0.000204862883290527,15.6217549308134
0.000222725643634613,15.6317549308134
0.000243001827701802,15.6417549308134
0.000266171035841197,15.6517549308134
0.000292842701740479,15.6617549308134
0.000323801912724932,15.6717549308134
0.000360075674595831,15.6817549308134
0.000403030907023132,15.6917549308134
0.000454523047499463,15.7017549308134
0.00051712789286397,15.7117549308134
0.000588139460803635,15.7210001811411
0.000668372214636912,15.7295199604344
0.000758976815053478,15.7373713137462
0.000861296147303391,15.7446081416688
0.000976861673431954,15.751280302184
0.00110741000144041,15.7574339326519
0.0012549088832693,15.7631117817252
0.00142158927572808,15.7683534622989
0.00160998292198145,15.7731956412773
0.00182296193417071,15.7776722741944
0.00206379390543751,15.7818148641863
0.0023362027832859,15.7856526910276
0.00264444157876039,15.7892129709427
0.00299338732282052,15.7925210617823
0.00338866083424795,15.7956007151225
0.00383678808836167,15.7984742931099
0.00434541114543619,15.8011630115794
0.00492359192496178,15.8036872809068
0.00558225888689243,15.8060671171222
0.00632170788310619,15.8082866163612
0.00713885256751166,15.8103384454544
0.00804570432645899,15.8122589955923
0.00906074865098649,15.8140858198372
0.0102146799621712,15.8158626750185
0.0115679804204156,15.8176555311865
0.0133498100828527,15.8196864548731
0.0153128328045354,15.8216419667458
0.01683958879051,15.8230385876844
0.0184292789889181,15.824435208623
0.0198657714107874,15.8256928855311
0.0211521456759391,15.8268612809434
0.0223012320159075,15.8279929872943
0.0233051116078182,15.8291277431608
0.024139588062897,15.8303073634165
0.0247582057819499,15.8315943668681
0.0250584557820764,15.8331301440087
0.0248130842166613,15.8349159544085
0.0241809171575936,15.8363896226133
0.0233328228813002,15.8377305220213
0.0223052097803585,15.8390502943157
0.0210878914963035,15.8404293689932
0.0197140201392933,15.8418757264755
0.0182187659992258,15.8433975631249
0.0171425612619839,15.8444879875406
0.0160897372822831,15.8455784119563
0.0150562054259494,15.8467045794491
0.0133779649453472,15.8486817201864
0.0117182220572318,15.8508679078306
0.0100896348576922,15.8533159872663
0.00863547742258568,15.8558562454734
0.00741579968409533,15.8583549926
0.00636407269471398,15.8609001043357
0.00545852701550065,15.8635183470182
0.00468443269902639,15.8662329589482
0.00403164679019138,15.8690676261996
0.00349421545623954,15.8720480304046
0.00307081937214153,15.8752032835555
0.00276634252481194,15.8785675763631
0.00259546613929087,15.8821823076069
0.00258165152275475,15.8856560213752
0.00270250073853877,15.8887657230407
0.00293388547102026,15.8915654681987
0.0032621757826587,15.894098344055
0.0036817666839211,15.8964111507413
0.00419341417406529,15.8985482116609
0.00480495124169745,15.9005550690327
0.00553364346310602,15.902480858098
0.00641197162271675,15.9043838904801
0.0075026323181124,15.9063459903405
0.00892927242924644,15.908492600415
0.0109404218824335,15.9110217913038
0.0127663010253891,15.9129866869144
0.0148560600128825,15.914951582525
0.0169235826579804,15.916650261848
0.0190229700021398,15.9181622043714
0.0212467972747921,15.9195640234001
0.0236598472605264,15.9208901220135
0.0263215549943443,15.922159758307
0.0292704082410129,15.9233761703706
0.0325643500399915,15.9245480796559
0.0362471465366553,15.9256760552323
0.0403801825241008,15.9267647073258
0.0450219809791481,15.9278156580393
0.0502457700072983,15.9288322079999
0.0561319235785667,15.9298169036977
0.0627752524550713,15.930772658912
0.0702876680143519,15.9317025612403
0.0788008684513669,15.9326097044692
0.0884741062637076,15.9334975059752
0.0994995381584616,15.9343695340737
0.112112003806489,15.9352296260902
0.126602856153888,15.9360820416324
0.143337360485359,15.936931541081
0.162782009748194,15.937783653804
0.18555028782445,15.9386452274173
0.212494129739115,15.9395257640691
0.243861722418102,15.9404129734421
0.280180350713813,15.941307050611
0.32248140844764,15.942221423008
0.372508280476564,15.9431847484389
0.410334190917745,15.9438604505924
0.449383716997769,15.944536152746
0.48414541487558,15.9451411302247
0.514768794618411,15.9457000966082
0.541756902497303,15.9462419525354
0.56502650533687,15.9467898367983
0.583970763974666,15.9473701515518
0.597113651431733,15.94802796762
0.600554816760882,15.9487541206381
0.591895993791424,15.9495096265774
0.569754309589653,15.9503176382366
0.536158104544837,15.9511135730545
0.48959296581157,15.9519470076314
0.427200175933851,15.952847654376
0.373700113186477,15.9535135655816
0.314901599517095,15.9541794767871
0.264334720080966,15.9547208587794
0.222363172281582,15.9551616790943
0.186185737832513,15.9555441811894
0.154137465851327,15.9558919475114
0.125289949948475,15.9562185635764
0.0990413649303028,15.9565334595376
0.0749217316561592,15.9568448504006
0.0524551657881127,15.9571623794219
0.0308968003438987,15.9575033117845
0.00760230381466658,15.9579325894652
-0.00193895165892676,15.9581353563213
-0.0105861204622386,15.9583381231774
-0.0172722587360767,15.9585106745135
-0.0234601191938185,15.9586858490098
-0.0297103455457435,15.9588819040093
-0.0357607484791173,15.9590953732948
-0.041443069060868,15.9593241451777
-0.0466628641320773,15.959567449387
-0.0513703556245752,15.9598254153399
-0.0555429196920247,15.9600988228117
-0.0591746941729095,15.9603889818951
-0.0622701918868633,15.9606976935109
-0.0648401809478323,15.9610272660712
-0.0668954751679853,15.9613805792026
-0.0685063660777758,15.9617818532168
-0.0695206558902522,15.9621919335092
-0.0700617942263872,15.9626387413606
-0.0701397015236093,15.9631295662284
-0.0697571694318168,15.963673523528
-0.0689055281063331,15.9642839919259
-0.0675592660464591,15.9649790766552
-0.06566491496341,15.9657860973365
-0.0631089508971239,15.9667528104913
-0.0595936261089786,15.9679901711654
-0.0554139836077943,15.9694106552204
-0.0513376542272751,15.9707867008908
-0.0474225847060441,15.972123725891
-0.0436990722503575,15.9734238147763
-0.0401838982937024,15.9746876049982
-0.0368861634229626,15.9759150108355
-0.0338097724015378,15.9771056080116
-0.0309546967154484,15.9782588373427
-0.0283177687778192,15.9793741108032
-0.0258932895476354,15.9804508629271
-0.023673554333892,15.981488569763
-0.0216493327734276,15.9824867472502
-0.0198103104865723,15.9834449355861
-0.01814549055032,15.9843626732519
-0.0165692082582424,15.9852842359794
-0.0150516146214826,15.9862294966036
-0.0135970428421922,15.9872001413277
-0.0122093815521747,15.9881983248
-0.010892310476566,15.9892265801723
-0.00964924594201772,15.9902879144056
-0.00848328568575346,15.9913859326725
-0.00739715056331374,15.9925250064566
-0.00639312260170682,15.9937105061037
-0.00547297813560594,15.9949491316025
-0.00463791353466962,15.9962493989106
-0.00388845879813057,15.9976223841886
-0.00322436987857531,15.9990829205937
-0.00264448109746189,16.000651648231
-0.0021649481733509,16.002287056824
-0.00178099952557258,16.0039724894313
-0.00147651648937305,16.0057263122091
-0.00123679374521115,16.0075708168854
-0.00104782138595464,16.0095360698462
-0.000895760839925939,16.0116652663938
-0.000766081374890163,16.0140261517317
-0.00064169781212796,16.0167401492881
-0.000496958548923214,16.0200852033241
-0.000325254210946925,16.023836629427
-0.00011890988307122,16.0279176379024
0.000146312744752226,16.0327315098154
0.000440186630893201,16.0378315840824
0.000770641532795538,16.0435485877629
0.0011150251947908,16.0496523036067
0.00145079498734461,16.0558097733946
0.00172002165797597,16.0608830488304
0.00195241376820617,16.0653496928319
0.00216963971416049,16.0695762141488
0.00238642086336812,16.073820996852
0.00262029021081508,16.0784059195859
0.00287008072918959,16.0832776612096
0.00311952760600841,16.088082798938
0.00337074072935544,16.0928352869645
0.00359070320195909,16.0969011985302
0.00380126749496581,16.1007021859945
0.00401146918751216,16.1043980865099
0.00422644511749718,16.1080685964577
0.00445011147350972,16.1117649962423
0.00468602210234229,16.1155258330096
0.00493774867790862,16.1193830245094
0.0052091596105309,16.1233656237933
0.0055046353985069,16.127501766926
0.00582929333669955,16.1318199720097
0.00618928282994051,16.1363501663679
0.00659225155803929,16.1411247863759
0.00704812379369935,16.1461799475953
0.00752555949301061,16.1511076321042
0.00803693734627469,16.156004041348
0.0085824056705913,16.160824112163
0.00916802272409882,16.1655737962499
0.00980006671710781,16.1702517658946
0.0104864653371819,16.1748616525243
0.0112532369746212,16.1795046673324
0.0121144049716112,16.1841723552923
0.0130918067625601,16.188882389247
0.0142150733005233,16.1936644067906
0.0155312744747221,16.1985863283631
0.0171337264107496,16.2038225971176
0.0193168215685799,16.2100163409586
0.0210401637240402,16.2144091779386
0.0228581536102873,16.2188020149186
0.0243956743302542,16.2225066222292
0.0256779253897737,16.2257654803577
0.0267505117473573,16.2288253178912
0.0276013593380074,16.2317920573347
0.0281835598963022,16.2346250361769
0.0284970080018681,16.2374447520737
0.0285136559568392,16.2404034090654
0.0281318026491723,16.2438124464931
0.027348362649887,16.2472332023603
0.0262269128663377,16.2506539582275
0.0251281509641413,16.2534176885698
0.024051616826196,16.2558608844817
0.0229771306320154,16.2581567549812
0.0219025359145341,16.2603741306483
0.0208305559013022,16.2625485133631
0.0197648462506581,16.2647022783347
0.0187090922301158,16.2668512455445
0.0176667708709744,16.2690074990539
0.0166410920171361,16.271180821943
0.0156349884253959,16.2733795240894
0.0146511192266913,16.275610965787
0.0136918855881456,16.2778818931816
0.0127594338467455,16.2801987037974
0.011855670825854,16.2825676232045
0.0109822733927848,16.2849948553487
0.010140688605973,16.2874867372268
0.00933215005558183,16.290049838168
0.00855464745050403,16.292701841974
0.00778920590772867,16.2955290677257
0.00703964113860814,16.2985510607645
0.00630968864484605,16.3017914522401
0.00560329717325823,16.3052774787553
0.00492458838888221,16.3090406669074
0.00427779150761471,16.313117704009
0.00366713259277924,16.3175516995871
0.00309666226696096,16.3223942407083
0.00257001104810453,16.3277090762656
0.00209011442813078,16.3335786242117
0.00165909854292872,16.340113205124
0.00128811210216243,16.3472499259338
0.000978582120450847,16.3549711006452
0.00072387032313756,16.3634026367384
0.000517766920253742,16.3727118742446
0.000359954230815777,16.3827118742446
0.000252303012434193,16.3927118742446
0.000181006367365855,16.4027118742446
0.000132256060894924,16.4127118742446
9.83557875136818e-05,16.4227118742446
7.48399239133379e-05,16.4327118742446
5.87642596893017e-05,16.4427118742446
4.79916021406619e-05,16.4527118742446
4.09437515620979e-05,16.4627118742446
3.64864635712356e-05,16.4727118742446
3.38304504160108e-05,16.4827118742446
3.24368521820236e-05,16.4927118742446
3.19391076429683e-05,16.5027118742446
3.2086580743715e-05,16.5127118742446
3.270703425767e-05,16.5227118742446
3.36822075502536e-05,16.5327118742446
3.49315979803303e-05,16.5427118742446
3.64013235753945e-05,16.5527118742446
3.80563101333611e-05,16.5627118742446
3.98747961628388e-05,16.5727118742446
4.18445042326118e-05,16.5827118742446
4.39600085162614e-05,16.5927118742446
4.62209491666805e-05,16.6027118742446
4.86308401809625e-05,16.6127118742446
5.11962935079689e-05,16.6227118742446
5.39265385999711e-05,16.6327118742446
5.68331561999817e-05,16.6427118742446
5.9929972290575e-05,16.6527118742446
6.32330769223014e-05,16.6627118742446
6.67609460869155e-05,16.6727118742446
7.05346548477624e-05,16.6827118742446
7.45781778414068e-05,16.6927118742446
7.89187798976765e-05,16.7027118742446
8.35875055762607e-05,16.7127118742446
8.86197824843601e-05,16.7227118742446
9.40561598952672e-05,16.7327118742446
9.99432120421489e-05,16.7427118742446
0.000106334645230852,16.7527118742446
0.000113292660511415,16.7627118742446
0.000120889640296572,16.7727118742446
0.000129210249730091,16.7827118742446
0.000138354074243576,16.7927118742446
0.000148438957185413,16.8027118742446
0.000159605260993408,16.8127118742446
0.000172021360170297,16.8227118742446
0.000185890796681207,16.8327118742446
0.000201461707651805,16.8427118742446
0.000219039402154417,16.8527118742446
0.000239003368318312,16.8627118742446
0.000261830616684737,16.8727118742446
0.000288128250930761,16.8827118742446
0.00031867974690403,16.8927118742446
0.00035451205207995,16.9027118742446
0.000396995095903951,16.9127118742446
0.000447993165480154,16.9227118742446
0.000509476406420635,16.9326193928159
0.000579180823185927,16.9417774235407
0.000657945001889975,16.9502193300408
0.000746913497746073,16.958001241856
0.000847416539917314,16.9651760694472
0.00096096969302735,16.9717927955505
0.0010892915557047,16.977896782566
0.00123432930857367,16.9835300802497
0.00139829036408773,16.9887316604637
0.00158367825050755,16.9935376150676
0.00179333285334582,16.997981384819
0.0020304821611889,17.0020940034609
0.00229880243547871,17.0059043080148
0.00260248759645689,17.0094391036785
0.00294634179763446,17.012723365653
0.00333589425701546,17.0157804721046
0.00377755160388777,17.0186324088584
0.00427880008615729,17.0213000059299
0.00484849088893675,17.023803250456
0.00549725508765493,17.0261616597239
0.00622788587152031,17.0283665897764
0.0070346119496129,17.0304011919915
0.00792843022903325,17.0323006814522
0.00892608594082009,17.0341008480393
0.010054517656022,17.0358416245315
0.0113640307931251,17.0375788558432
0.0130276150688595,17.039479608861
0.0152454664502881,17.0416667285036
0.0168181112931025,17.0430697325902
0.018466996200457,17.0444727366768
0.0199618093823314,17.0457314621367
0.0212988460151907,17.0468912875569
0.0224962904581424,17.0480083152823
0.0235492079580439,17.0491228740577
0.0244358655914037,17.0502751365191
0.0251138545381805,17.0515220882024
0.0254935506089215,17.0529835740498
0.0252829066091116,17.0549930668416
0.0246169543862531,17.0565154513044
0.0236078453432606,17.0580378357671
0.0224466800175525,17.0594494646812
0.0211437409534928,17.0608583981479
0.0198149929257248,17.062209535187
0.0184982873119523,17.0635155570915
0.017149567185448,17.0648527855172
0.0157351208256199,17.0663128119873
0.0141528560091999,17.0680792947098
0.0118475921204614,17.0709870930818
0.00997289396091191,17.0737620440549
0.00854624173630587,17.0762330529587
0.00731437703667334,17.078725417345
0.00624844502888839,17.0812659998237
0.00532726923138682,17.0838792810541
0.00453524928230142,17.0865883767223
0.00386083570718295,17.0894168926589
0.0032960290244392,17.0923904025208
0.00283655745233307,17.0955378738402
0.00248276785348081,17.0988933042362
0.00224171946272484,17.1024978311447
0.00213180636426005,17.1064026737252
0.00216901952480727,17.1099425329678
0.00232325804452122,17.1131145309554
0.00257552100275428,17.1159637838613
0.00291581560555678,17.1185386424796
0.00334024745444318,17.12088368882
0.00385047157459412,17.1230435309871
0.00445413318858293,17.1250629922384
0.00516718053225866,17.1269899582095
0.00601798732642667,17.1288781559261
0.00706095993216286,17.130802438981
0.00840443888179757,17.1328786825096
0.0102948326593509,17.1353243435487
0.0126422375014055,17.1378732567703
0.0149010145737916,17.1399662233018
0.0169841537559568,17.1416456390092
0.0191126016566674,17.1431502922615
0.0213671342901095,17.1445451570679
0.0238120891279962,17.145863855479
0.0265068954414618,17.1471254699116
0.0294939768524742,17.148334910882
0.0328303642490216,17.1495000676794
0.036562818432438,17.1506222507998
0.040751293760519,17.1517052588342
0.0454578508898986,17.1527513347445
0.0507537980822173,17.1537630447232
0.0567229465229614,17.1547433599325
0.0634603111908474,17.1556949461036
0.0710804127881961,17.156620994486
0.0797180019336697,17.1575246596913
0.0895342034021217,17.1584092373728
0.100725352202276,17.1592783503032
0.113531164371413,17.1601358544628
0.128248242341753,17.160985974823
0.14524932183815,17.161833486917
0.165010622468996,17.1626839386221
0.188159364465751,17.1635442293641
0.215571903630493,17.1644240825664
0.247430742243587,17.1653092968018
0.284325951025354,17.166202015427
0.327327778970648,17.1671164094094
0.37829429464726,17.1680834889179
0.415750213236595,17.1687451329338
0.45424661881297,17.1694067769497
0.488561027368673,17.1700026166946
0.518838497271738,17.1705566219887
0.545498739170914,17.1710963588914
0.568402856449425,17.1716448374902
0.586877043012281,17.1722295435783
0.59928470892915,17.1728999764661
0.601451947060137,17.1736268776211
0.591386479492323,17.1743860129357
0.567609216461012,17.1752005704391
0.532806316794034,17.1759936020391
0.484660041390735,17.1768318400039
0.420609818863828,17.1777366143781
0.367893407107488,17.178382666673
0.310320417651984,17.1790287189679
0.260646665093262,17.1795580332245
0.219214410876108,17.1799923364976
0.183396147115082,17.1803710235621
0.151616650151303,17.1807163950215
0.122984004296449,17.1810415252686
0.0969114055242064,17.1813556533619
0.0729324384627819,17.1816670064864
0.0505611302114782,17.1819855439465
0.0289975449644041,17.1823299352949
0.00503925413652735,17.182778880939
-0.00359243206329992,17.1829659865892
-0.0114671429505333,17.1831530922393
-0.0180163384642821,17.1833236878709
-0.0242304867748688,17.1835013628187
-0.0304714422227976,17.1836994395219
-0.0364878803915993,17.1839145860909
-0.0421220133636231,17.1841448790919
-0.0472857370473248,17.1843896716827
-0.0519330914241225,17.1846491780865
-0.0560437940177744,17.1849242431624
-0.0596134334370002,17.1852162337805
-0.0626474112676114,17.1855270067942
-0.0651570086959795,17.1858589314214
-0.0671526607989515,17.1862149583493
-0.0686924261040216,17.1866163833087
-0.0696538694317691,17.187029847658
-0.070143077583333,17.1874807298442
-0.0701692529212679,17.1879764766789
-0.0697343110107804,17.1885264797356
-0.0688278609290687,17.1891447084071
-0.0674220669316055,17.1898499104034
-0.0654589763702381,17.1906708698941
-0.0628141698719204,17.1916589694699
-0.0591467608183274,17.1929397394179
-0.0549647888469299,17.1943548234524
-0.050894411430557,17.1957267138377
-0.0469902826496392,17.1970599575066
-0.0432807181677793,17.1983564177373
-0.0397814396731067,17.1996166198811
-0.0365008641636422,17.2008404225228
-0.0334423898612275,17.2020273756908
-0.030605583317174,17.2031769104355
-0.0279869439531495,17.204288437188
-0.0255804992996786,17.2053613927255
-0.023378324877026,17.2063952564151
-0.0213710200614803,17.2073895468219
-0.0195481455491944,17.2083438048373
-0.0178986205809998,17.2092575667541
-0.0163267864697748,17.2101813627622
-0.0148142781705395,17.2111289686144
-0.0133653204075021,17.2121021512937
-0.0119837856355565,17.213103097937
-0.0106733321073132,17.2141343825965
-0.00943735001938789,17.2151990635711
-0.00827890622997888,17.2163008113331
-0.00720068591156963,17.2174440817506
-0.00620493055827593,17.2186343563176
-0.00529337103624348,17.2198784848569
-0.00446715311718955,17.221185191144
-0.00372675060719668,17.2225658499983
-0.00307185658859765,17.224035743657
-0.00250123332086056,17.2256162288519
-0.00203326910279592,17.2272556228178
-0.00165938030306479,17.2289468652405
-0.00136368460467679,17.2307084062948
-0.00113158024816123,17.2325631457047
-0.000949131647445698,17.2345421289647
-0.000802530052821221,17.2366902831804
-0.000677191512880777,17.2390788059816
-0.000555754296682832,17.2418375072772
-0.000411281254082085,17.2452743978344
-0.000242299697125923,17.2490385156152
-3.64740410848737e-05,17.2531743432828
0.000230322243632607,17.258097267795
0.000521663888722271,17.2632524602716
0.000856779966838695,17.2691853710193
0.00120533144494937,17.2755233950698
0.00152930109603241,17.2816153039864
0.00180401590844282,17.2869235825277
0.00203724716511856,17.2915122191926
0.00225178171657777,17.2957773191839
0.00246267788856471,17.2999889952537
0.00268511768873109,17.3044284539039
0.00293425716257046,17.3093695282902
0.00317993925652665,17.3141721666836
0.00343634831280046,17.3190872278987
0.00366022033780481,17.3232691488425
0.00387160504041381,17.3271174574992
0.00408134109415687,17.3308306342741
0.00429515777493174,17.3345013739853
0.004517190858521,17.3381861597101
0.00475108864313462,17.3419260760815
0.0050004603835287,17.3457543501736
0.00526917154675258,17.3497005002967
0.00556158156758567,17.3537927486619
0.00588276691094527,17.358059377473
0.00623880621580288,17.3625298149848
0.00663720884002381,17.3672356485506
0.00708763665240988,17.3722118620654
0.00756836834863893,17.3771517985664
0.00808152157799435,17.3820384275658
0.00863021136749299,17.386857889201
0.00921934305496285,17.3916055310767
0.00985524942800304,17.3962808212798
0.010546713955881,17.4008927536484
0.0113192804576237,17.4055372380882
0.012187239501473,17.4102064442205
0.0131728764368288,17.4149189724555
0.0143066422732408,17.4197063018778
0.0156374153118292,17.4246405190782
0.0172639969732198,17.4299088308773
0.0195144205149563,17.4362330683363
0.0212045705940786,17.4405114434798
0.0229787371492046,17.4447898186234
0.0244936312159967,17.4484474267032
0.0257609449257447,17.4516870374074
0.0268198200281053,17.4547396954009
0.0276525824428124,17.457693827437
0.0282173585834628,17.4605221035773
0.0285126409628064,17.4633455580338
0.0285077011749043,17.4663205943883
0.0280912810746893,17.469782129312
0.0273025699843281,17.4731244338145
0.026194738817125,17.4764667383171
0.0250994767515532,17.4792095263638
0.0240231630029453,17.4816461476625
0.0229484752836079,17.4839389104602
0.0218737226829787,17.4861545729638
0.0208016963583161,17.4883280453115
0.0197360595511585,17.4904814415451
0.0186804925027965,17.4926304401772
0.0176384650796607,17.4947870386006
0.0166131785113568,17.4969609660402
0.0156075581930954,17.4991604948006
0.0146242553733775,17.5013929613576
0.0136656642022528,17.50366509499
0.0127339245546102,17.5059832814198
0.0118309365850778,17.508353739687
0.0109583710500887,17.5107826694984
0.0101176689571522,17.5132764063936
0.00931005825576448,17.5158415193654
0.0085327632720634,17.5184984153992
0.00776764184501992,17.5213310704135
0.00701850559585786,17.5243591502584
0.00628909719306264,17.5276063857
0.00558337077927604,17.5311001365515
0.00490545257875453,17.5348720747743
0.0042595736748488,17.5389590678449
0.00364995777673306,17.543404458581
0.00308064606586657,17.5482601653469
0.00255525165792974,17.5535904343656
0.00207668610149222,17.5594784519317
0.0016470531160694,17.5660356553812
0.00127797665259714,17.5731882090048
0.000970156982779783,17.5809283949909
0.000716960916171436,17.589383293745
0.000512193267393678,17.5987216437758
0.000355971943263796,17.6087216437758
0.000249372573792925,17.6187216437758
0.00017883337295795,17.6287216437758
0.000130687251040903,17.6387216437758
9.72700976507394e-05,17.6487216437758
7.41442589430162e-05,17.6587216437758
5.83885045022248e-05,17.6687216437758
4.78839490877588e-05,17.6787216437758
4.10665556381823e-05,17.6887216437758
3.68127564645274e-05,17.6987216437758
3.43411824223199e-05,17.7087216437758
3.31188234565328e-05,17.7187216437758
3.27834742298084e-05,17.7287216437758
3.30877995009153e-05,17.7387216437758
3.38621267198653e-05,17.7487216437758
3.49902513703261e-05,17.7587216437758
3.63933811562066e-05,17.7687216437758
3.80191165760781e-05,17.7787216437758
3.98337248177419e-05,17.7887216437758
4.18167098888471e-05,17.7987216437758
4.39570343120537e-05,17.8087216437758
4.62505271230699e-05,17.8187216437758
4.86981325031564e-05,17.8287216437759
5.13047485084523e-05,17.8387216437759
5.40784808288204e-05,17.8487216437759
5.7030192557218e-05,17.8587216437759
6.01732703186863e-05,17.8687216437759
6.35235541656048e-05,17.8787216437759
6.70993974854898e-05,17.8887216437759
7.09218367772692e-05,17.8987216437759
7.50148614805924e-05,17.9087216437759
7.94057823610602e-05,17.9187216437759
8.41257041685895e-05,17.9287216437759
8.9210115129018e-05,17.9387216437759
9.46996129656914e-05,17.9487216437759
0.000100640795249546,17.9587216437759
0.000107087351693741,17.9687216437759
0.000114101408461399,17.9787216437759
0.000121755190849167,17.9887216437759
0.000130133092505744,17.9987216437759
0.000139334269002218,18.0087216437759
0.00014947591451785,18.0187216437759
0.000160697437714269,18.0287216437759
0.000173165834179945,18.0387216437759
0.000187082669822183,18.0487216437759
0.00020269326046006,18.0587216437759
0.000220298886470349,18.0687216437759
0.000240273264277606,18.0787216437759
0.000263085085709818,18.0887216437759
0.00028932936171966,18.0987216437759
0.000319771793727109,18.1087216437759
0.000355412844351835,18.1187216437759
0.000397582324173291,18.1287216437759
0.000448082545739744,18.1387216437759
0.000509411163608342,18.1487216437759
0.000579345585877263,18.1580229025969
0.000658386949837166,18.1665968142978
0.000747653676855015,18.1744983856087
0.000848468076004508,18.181781671556
0.000962340338037142,18.1884967588528
0.0010909834884891,18.1946899986084
0.00123633870047197,18.2004043363975
0.00140060648408659,18.2056795728955
0.00158628404009768,18.2105525527258
0.00179620356973847,18.2150573960273
0.00203358662831013,18.2192257531234
0.00230210275368768,18.2230870375651
0.00260594182127309,18.2266685877637
0.00294990506288095,18.2299958669972
0.00333952125447442,18.2330927096722
0.00378120338783714,18.2359815405509
0.00428245060153174,18.2386836096423
0.00485213900357533,18.2412193191802
0.00550094726127111,18.243608621456
0.00623199457827307,18.2458436549992
0.00703958129305851,18.2479071220715
0.00793507053645174,18.2498351730432
0.00893590487901688,18.2516648751028
0.0100705518224559,18.2534383388136
0.0113934718729998,18.2552163907494
0.0130959731336749,18.2571861545985
0.0150827095575306,18.2591875360253
0.0166342378481107,18.260612612883
0.0182595567216336,18.2620376897408
0.0197253006496025,18.2633110237431
0.0210355785950161,18.2644851604436
0.0222078610614668,18.2656165838002
0.0232367357423859,18.2667458525252
0.0241002854889541,18.2679135728689
0.0247559851982412,18.2691775833167
0.0251137435998758,18.270660128667
0.0249914829791902,18.2722809445209
0.0243827275245237,18.2739017603748
0.023515995131046,18.2753283625517
0.0224979505051945,18.2766565008353
0.0213405192610933,18.2779795760637
0.0200177400787121,18.2793788109049
0.0185407536807733,18.2808812830211
0.0169474705951257,18.2824908225952
0.0152828773494611,18.2842521018605
0.0133575853550477,18.2865019715903
0.0116633094122027,18.2887341061308
0.0100883782497432,18.2910995946796
0.00863269763089987,18.2936328907606
0.00740816522029861,18.2961303362262
0.0063515885486499,18.2986739642055
0.0054410751561063,18.3012903548849
0.00466161421771766,18.3040027359958
0.00400269327648738,18.3068347649146
0.00345786696892237,18.3098120723664
0.00302511769842937,18.3129636948373
0.00270823428081058,18.3163237167601
0.00252001956990819,18.3199333887726
0.00248491317934373,18.3235065351672
0.00258761563231133,18.326699257037
0.00280212382665124,18.3295705328502
0.00311362283237984,18.3321632727686
0.00351555589849794,18.3345250952281
0.00400755631853466,18.3367001806575
0.00459592971437649,18.3387336791751
0.00529534864354015,18.3406730669382
0.00613422231807224,18.3425744794364
0.00716488138621915,18.3445102185024
0.00849112829381076,18.3465921100415
0.0103467916106452,18.3490281725584
0.0126724626918157,18.3515880387333
0.0149151355113812,18.3536922621548
0.0169953798664664,18.3553889599696
0.0190962539930619,18.3568907688655
0.0213362427276772,18.3582921977238
0.0237654198123573,18.359616630827
0.0264364483670411,18.3608805432706
0.0294060393205829,18.3620957071606
0.032715267718396,18.3632635415511
0.036422346284299,18.364389801617
0.0405790838694447,18.3654758308029
0.0452505420061842,18.3665249432439
0.0505072707617043,18.367539622426
0.0564307748069573,18.3685225580122
0.0631174248277806,18.369476788752
0.0706787443511342,18.3704052174761
0.0792490216602521,18.3713111219759
0.0889884605863443,18.3721978528382
0.100090743056129,18.3730689589283
0.112793806663604,18.3739283429727
0.127391915454744,18.3747802586409
0.144254370274889,18.3756294817505
0.163853745867083,18.3764815948158
0.18681211187942,18.3773435146512
0.213996656179495,18.3782249210566
0.245602567542915,18.3791119617418
0.282203396936852,18.3800063293772
0.324851659386801,18.3809218809506
0.37535217173554,18.3818885835998
0.412950275637399,18.3825575472067
0.451670360771259,18.3832265108135
0.486161983087251,18.3838273274038
0.516572228090488,18.3843843247858
0.543357447627621,18.3849256810742
0.566403933766245,18.385474457778
0.585069288663013,18.3860575958485
0.597795293445488,18.3867223273688
0.600542894195688,18.3874493988054
0.591127587117607,18.3882072522824
0.568117109456001,18.3890190139954
0.533825269680195,18.3898147109703
0.486351414589572,18.3906517882922
0.423015257846887,18.3915552867009
0.370049802934014,18.3922090524956
0.312055064091082,18.3928628182903
0.262067933444636,18.3933969179936
0.220445428589417,18.3938338891105
0.184500458334376,18.3942141888182
0.152626157318725,18.3945606054915
0.123917771136704,18.3948864107795
0.0977834254238658,18.3952009165975
0.0737560164309842,18.3955123398611
0.0513546410167301,18.3958304985086
0.0298045636587944,18.3961734362072
0.00616551607707319,18.3966134354825
-0.00283422773415598,18.396806902052
-0.0110232285193987,18.3970003686214
-0.0176363387687007,18.3971719149781
-0.023837334793262,18.3973484198169
-0.0300824781161633,18.3975455652835
-0.0361151225685081,18.3977599510689
-0.0417724210703217,18.3979895613117
-0.0469632137980271,18.3982336887966
-0.0516397016256311,18.3984925063474
-0.0557804745281632,18.3987668271028
-0.0593804224158102,18.3990579902783
-0.062444518997937,18.3993678254667
-0.0649837991366806,18.3996986721992
-0.0670085434304277,18.4000534465375
-0.0685772703234395,18.400453060216
-0.0695669110518859,18.4008647792953
-0.0700840246853946,18.4013135754009
-0.0701381259896428,18.4018067873435
-0.0697316082618213,18.4023536578589
-0.0688550202845858,18.4029678399248
-0.0674818036718839,18.4036677312333
-0.0655564840657334,18.4044813175919
-0.0629607014341885,18.4054579867738
-0.0593779243484316,18.4067150970854
-0.0551995773214147,18.4081329512205
-0.0511282628063207,18.4095069648547
-0.0472204214422359,18.4108421225725
-0.0435054130273347,18.412140407084
-0.039999522351225,18.4134024047361
-0.0367115322619644,18.4146280048451
-0.0336451135757617,18.4158167720411
-0.030800051859382,18.4169681433706
-0.0281730277069481,18.4180815307729
-0.0257582185367493,18.4191563704108
-0.0235478217174407,18.4201921403539
-0.0215325326425716,18.421188358119
-0.0197019842952519,18.4221445644468
-0.0180451467801986,18.4230602968697
-0.0164713145345572,18.4239829887903
-0.0149564540393528,18.4249294348194
-0.0135048432594488,18.4259013619994
-0.0121203623980349,18.4269009413463
-0.0108066799625694,18.4279307266079
-0.00956719855594979,18.4289937505846
-0.00840499958370275,18.4300936512998
-0.00732278485981095,18.4312348426671
-0.00632281453886759,18.432422750888
-0.00540684007014244,18.4336641511983
-0.00457602962790006,18.4349676638401
-0.00383088117155098,18.4363445146973
-0.00317111374603598,18.4378097617788
-0.00259551782449642,18.4393844034057
-0.00212140121770158,18.4410218086608
-0.00174205500691029,18.4427101570381
-0.00144147794193182,18.4444678537919
-0.00120501169696057,18.4463174945967
-0.00101867525364917,18.4482896342611
-0.000868631234895435,18.4504283299531
-0.000740299060413938,18.4528030387722
-0.000616412602289985,18.4555393159815
-0.000470588176296797,18.4589297067622
-0.000298893665773715,18.4626871199525
-9.13221236218142e-05,18.4667951716791
0.000176402804433789,18.4716625575551
0.000470755226058165,18.4767891349053
0.000802807158531999,18.4825650063261
0.00114847976936154,18.4887318104949
0.00148069707121252,18.4948631717693
0.00174798058745931,18.499929989399
0.00197902299823811,18.5043943142068
0.0021951918525991,18.5086200251348
0.00241110565600432,18.5128652015205
0.00264427298668946,18.5174524833799
0.00289327980027271,18.5223230928549
0.00314214896138221,18.5271282220899
0.00339266383237748,18.5318757620802
0.00361226012864768,18.5359399893656
0.00382261263582009,18.5397402353396
0.00403271059451189,18.5434357901384
0.00424767805336303,18.5471061810091
0.00447143065250755,18.5508026218737
0.00470752783648769,18.55456362241
0.00495955242890896,18.5584210809988
0.00523138932133929,18.5624040428374
0.00552744198420865,18.5665406403895
0.00585285854736424,18.5708593913733
0.0062138299131891,18.5753902245097
0.0066180604558325,18.5801655790318
0.0070755534176597,18.5852215720987
0.0075543497885753,18.5901446890575
0.00806750676997517,18.5950379816234
0.00861500534961189,18.5998545190522
0.00920299436378054,18.6046007559165
0.00983777711723607,18.6092752331659
0.0105280018475608,18.6138858721314
0.0112994095083893,18.6185301075066
0.0121661856788175,18.6231994822479
0.0131505151199258,18.6279122669026
0.0142826626204944,18.6326994142068
0.0156111409484266,18.6376321189689
0.0172337126995031,18.6428951540853
0.0194719679187317,18.6491952054749
0.0211683040940431,18.6534940453146
0.0229505974112662,18.6577928851542
0.0244699845879328,18.6614592029701
0.0257404136709909,18.664702431474
0.0268021977543971,18.6677563927995
0.0276387706579593,18.6707130021459
0.0282072307317941,18.6735421811414
0.0285063609623475,18.6763648306838
0.028505996364234,18.6793364606104
0.0280969289006967,18.6827869740308
0.027309546286218,18.6861448009714
0.0261993242851272,18.689502627912
0.025103533267676,18.6922497737876
0.0240273127683545,18.694687832052
0.0229527919087161,18.6969812929319
0.0218781886915318,18.6991973493557
0.0208062814090825,18.701371040069
0.0197407324457142,18.7035245366079
0.0186852234075007,18.7056735492164
0.0176432258378958,18.7078300950112
0.0166179427312198,18.7100039160993
0.0156123008843712,18.7122032943101
0.0146289530227077,18.7144355728579
0.013670294386356,18.7167074869607
0.0127384660090166,18.7190254271369
0.0118353690517381,18.7213956170985
0.0109626751767681,18.7238242614405
0.0101218263646209,18.7263177007416
0.00931405149340281,18.7288825098747
0.00853677592497133,18.7315383874434
0.00777164901741585,18.7343699099503
0.00702248353744378,18.7373967151439
0.00629302051776927,18.7406425108952
0.00558721285812524,18.7441346280892
0.00490918577800332,18.7479047032335
0.00426316999854299,18.7519895580245
0.00365338985794771,18.7564324733332
0.00308388879867627,18.7612852764671
0.00255828393180334,18.7666120742828
0.0020794921469179,18.7724958350162
0.00164962193790051,18.7790476701919
0.00128015054200008,18.7861969323723
0.000971978106320301,18.793933167889
0.000718471752292386,18.8023831909866
0.000513433780152771,18.8117154404699
0.000356891376217311,18.8217154404699
0.000250235092156634,18.8317154404699
0.000179592534060873,18.8417154404699
0.000131286529871886,18.8517154404699
9.76992293283934e-05,18.86171544047
7.44106625460975e-05,18.87171544047
5.85029793897899e-05,18.88171544047
4.78558539491813e-05,18.89171544047
4.09031389994649e-05,18.90171544047
3.65195606318473e-05,18.91171544047
3.39224123231068e-05,18.92171544047
3.25775256327306e-05,18.93171544047
3.21216222884229e-05,18.94171544047
3.23063613593323e-05,18.95171544047
3.29611317771487e-05,18.96171544047
3.3968849352255e-05,18.97171544047
3.52498830082814e-05,18.98171544047
3.67510139755976e-05,18.99171544047
3.84376894126105e-05,19.00171544047
4.0288574675893e-05,19.01171544047
4.22917589950253e-05,19.02171544047
4.44421482105409e-05,19.03171544047
4.6739697945392e-05,19.04171544047
4.91882359237191e-05,19.05171544047
5.17946977342836e-05,19.06171544047
5.45686563893383e-05,19.07171544047
5.75220653318947e-05,19.08171544047
6.06691614891381e-05,19.09171544047
6.40264936530511e-05,19.10171544047
6.76130548692617e-05,19.11171544047
7.14505075641942e-05,19.12171544047
7.55634980876015e-05,19.13171544047
7.99800640695904e-05,19.14171544047
8.47321441804741e-05,19.15171544047
8.98562061466443e-05,19.16171544047
9.53940158072328e-05,19.17171544047
0.000101393578230786,19.18171544047
0.000107910292203183,19.19171544047
0.000115008372715294,19.20171544047
0.000122762613731051,19.21171544047
0.000131260587340671,19.22171544047
0.000140605408040709,19.23171544047
0.00015091923620338,19.24171544047
0.000162347758572094,19.25171544047
0.000175065974590239,19.26171544047
0.000189285749000321,19.27171544047
0.000205265784542336,19.28171544047
0.000223324957422316,19.29171544047
0.000243860397382193,19.30171544047
0.000267372374997455,19.31171544047
0.000294499136866534,19.32171544047
0.000326066576729693,19.33171544047
0.000363160536746597,19.34171544047
0.000407234506762245,19.35171544047
0.000460274276686817,19.36171544047
0.000523441331533942,19.3714865215156
0.00059500719427756,19.380513139252
0.000675866049490222,19.3888335126209
0.000767199056407352,19.3965032925174
0.000870373207940666,19.4035747427823
0.000986944035424949,19.4100962420271
0.00111867527776314,19.4161125980361
0.00126756532713952,19.4216653490508
0.00143588040803014,19.4267929820498
0.00162619023090739,19.4315311382345
0.0018414117148568,19.4359128457814
0.00208486077381372,19.4399687662253
0.00236031682407123,19.4437273919062
0.00267209368858085,19.4472152151112
0.00302513813067585,19.4504569383672
0.00342515238552319,19.4534757090211
0.00387875355369604,19.4562933230069
0.00439369279424896,19.4589304769938
0.00497916444893708,19.4614070992531
0.00564625688049535,19.4637427450697
0.00639234905688141,19.465913880213
0.00721658399188984,19.4679219605668
0.00813107156390813,19.4698024436526
0.00915430374986966,19.4715917064946
0.0103168884655319,19.4733320878957
0.0116788169824082,19.4750871522803
0.0134743083790572,19.477078374426
0.0156895561033964,19.4792115235667
0.0172267906304494,19.4805668144701
0.0188214046131384,19.4819221053734
0.0202668781956954,19.4831507224397
0.0215633563305682,19.4842979350463
0.0227211105809539,19.4854133660792
0.0237305884062154,19.4865359653686
0.0245656922783537,19.4877082641499
0.025176277245926,19.4889963295102
0.0254473978992957,19.490558459783
0.0249698537872277,19.4927971559915
0.0239513846311551,19.4946089855719
0.0228238001591579,19.4960766846467
0.0215707053204435,19.497484196207
0.0202744315165397,19.4988304688133
0.0189686879130582,19.5001380244906
0.0176132317737484,19.5014832162153
0.016506810067705,19.5025977402715
0.0154525960626038,19.5037122643277
0.0133604135268439,19.5061267904809
0.0111854799527149,19.5090199684806
0.00955047412627145,19.5115635544648
0.00818383200402813,19.514040010147
0.00700378520215166,19.5165442104365
0.0059829957276769,19.5191039513578
0.00510216219954867,19.5217431510456
0.00434704241672832,19.5244849092481
0.00370728418324149,19.5273532662707
0.00317616317397862,19.5303746371157
0.00275096740005959,19.5335792740341
0.00243423581244022,19.5370030114523
0.00223656715992805,19.5406895744632
0.00218157152070741,19.5444806058339
0.00226408353991808,19.5478569534539
0.00245652638560179,19.5508869367772
0.00274326344740904,19.5536137942339
0.00311673538846471,19.5560856503401
0.00357515863538095,19.5583470833718
0.0041224082289726,19.5604425101347
0.00476930901204994,19.562418057386
0.00553763141388813,19.5643263537877
0.00646339914042252,19.5662241488436
0.00761916405371831,19.5682005635186
0.00915022634949523,19.5703961342041
0.0112487679654104,19.5729201701972
0.0130598691748006,19.5747946732826
0.0151214597676823,19.576669176368
0.0172020501690359,19.5783266131432
0.0193329679209173,19.5798151185611
0.021599345895513,19.581200403299
0.0240684416096365,19.5825153710003
0.0267834270822471,19.5837698806885
0.0298044370821717,19.5849767646901
0.0331726927935881,19.5861370455834
0.0369466329240807,19.5872561261181
0.0411796720311029,19.5883355227737
0.0459377071858002,19.5893784023696
0.0512932865687,19.5903873449643
0.057329136629632,19.5913649200304
0.0641442539133572,19.5923142328749
0.0718532007626956,19.5932382194448
0.0805934443176733,19.5941401231569
0.0905297580269713,19.5950233303878
0.101861473513161,19.5958914175679
0.114833380425639,19.5967482968628
0.129748867958344,19.5975982622764
0.146989244189308,19.5984461461662
0.167043106434771,19.5992976065366
0.190556995507528,19.6001597543219
0.218441998353137,19.6010427699322
0.250749421219181,19.6019286967804
0.288180434954171,19.6028232162525
0.331851938862715,19.6037414859825
0.383763515339205,19.604717573989
0.420743579328607,19.6053675406697
0.458562883603674,19.6060175073504
0.492313748110916,19.6066065104116
0.522126531337078,19.6071577563419
0.548332792230339,19.6076976113722
0.570731405751807,19.6082491000867
0.588568437601333,19.6088410697251
0.600004418893223,19.6095284899149
0.600640938056577,19.6102584855003
0.58890258750013,19.6110236827248
0.563365657484947,19.6118429168121
0.526966895302893,19.6126387912261
0.476739006275112,19.6134867489883
0.410765027610352,19.6143961647736
0.359314594995287,19.6150160756082
0.303565872755942,19.6156359864428
0.255230178335612,19.6161492957446
0.214621605124631,19.6165750329397
0.179362825708232,19.6169487963899
0.148006518621065,19.6172911761492
0.119713974308578,19.6176145616922
0.0939209493959557,19.6179279418159
0.0701668380343734,19.6182395814577
0.0479507661886973,19.6185599381796
0.0263848458804707,19.6189099617042
0.00816210950696307,19.6192502175229
-0.00152640980386237,19.6194548586488
-0.0103006982644948,19.6196594997747
-0.0170334364596431,19.619832397675
-0.023211036720899,19.6200063662571
-0.0294660554868315,19.6202014067004
-0.0355313862401197,19.6204139929791
-0.0412343250928724,19.6206419382601
-0.0464777195898767,19.6208844224207
-0.0512101494653922,19.6211415401268
-0.0554079821537789,19.6214140443419
-0.0590647234707742,19.6217032212916
-0.0621844979902578,19.6220108484938
-0.064777844763854,19.6223392090075
-0.0668567959998557,19.6226911530434
-0.0685157045512074,19.6230981408885
-0.0695425338023824,19.6235071230947
-0.0700952098210464,19.6239525543852
-0.070184077901368,19.6244417627846
-0.0698121149379295,19.6249837931322
-0.0689710262265369,19.625591866628
-0.0676357820560859,19.6262839317574
-0.0657538491865269,19.6270869486181
-0.063213994296028,19.6280478103863
-0.059727430470579,19.6292741964024
-0.0555364509021171,19.6306964570329
-0.0514473977833239,19.6320739445617
-0.0475190356431825,19.6334123485762
-0.0437821928106447,19.6347138061407
-0.04025391315711,19.635978979733
-0.0369434520400725,19.6372077945775
-0.0338548188531755,19.6383998299602
-0.0309880609121923,19.6395545264762
-0.0283400660863351,19.640671294086
-0.0259051737329016,19.6417495646864
-0.0236757024539342,19.6427888118046
-0.0216424311539331,19.643788549481
-0.0197950421310723,19.6447483170106
-0.0181225239438178,19.6456676532738
-0.0165431793067527,19.6465883091629
-0.015022458177719,19.6475326185547
-0.0135647394425162,19.648502234897
-0.0121739195814308,19.6494992997821
-0.0108536887579693,19.6505263299526
-0.00960747624544092,19.6515863118073
-0.00843839552923117,19.652682824406
-0.00734918636965161,19.6538202055402
-0.00634215332190003,19.655003781253
-0.00541909952329708,19.6562401919249
-0.00458125338799639,19.6575378710244
-0.00382918371870088,19.6589077764941
-0.00316269456895899,19.6603645643563
-0.00258068220630612,19.6619285933659
-0.00209833572539472,19.663562426095
-0.00171243113562526,19.6652455506566
-0.00140676374687933,19.6669963067079
-0.00116660852766457,19.6688367471371
-0.000977962943294345,19.6707965560489
-0.000827037220458631,19.6729182570293
-0.000699423714120404,19.6752682697105
-0.000578333573638819,19.6779648539231
-0.000439027910143262,19.6812750463619
-0.000272550285888601,19.6850222841026
-7.28285468354802e-05,19.6890825281505
0.000183924811446225,19.6938556745481
0.000470712328339851,19.6989363536295
0.000802925010829447,19.7047921754085
0.00114954103995304,19.711048618978
0.00147821588847703,19.7171836882318
0.00175959590105484,19.7225875048646
0.00199635036437781,19.727223102032
0.00221254333351173,19.7315055150867
0.00242374384794249,19.7357120298687
0.00264477271801034,19.7401156442038
0.00289547225480088,19.7450846376441
0.00314130907722721,19.749891481288
0.00339638564386607,19.7547869773438
0.00362218375724127,19.7590142455302
0.00383407313608719,19.7628820389885
0.00404356926234688,19.7666029177761
0.0042566501232884,19.7702749393835
0.00447752877346006,19.7739566965582
0.00470986567073519,19.7776902615103
0.00495724780787242,19.7815093758258
0.00522349064050028,19.7854437697888
0.00551287852988497,19.7895217302741
0.00583038402487921,19.7937714899505
0.00618194258633076,19.7982223407641
0.00657485894924323,19.8029056331782
0.00701849163318683,19.8078560206143
0.0074957079009012,19.8128133654128
0.00800365421828566,19.8177061832799
0.00854685128695501,19.8225362256194
0.00912955892005656,19.8272937635675
0.00975806674572621,19.831979076884
0.0104400430482187,19.8365949294128
0.011199950932185,19.8412351877439
0.0120527991431488,19.8458999383059
0.0130197436005047,19.8506049331673
0.0141296185001583,19.8553784892355
0.015427544208279,19.8602841883115
0.0170008792008007,19.8654826744355
0.0191100136247335,19.8715377479211
0.0208743378511565,19.876074681155
0.0227463159164203,19.8806116143889
0.0243083242006344,19.8843701170867
0.0256054263118485,19.8876500203744
0.0266912821502603,19.8907179531227
0.0275597427989411,19.8936979394565
0.0281588062592297,19.8965361425324
0.0284897264449194,19.8993527385016
0.0285269628429045,19.9022962184431
0.0281772299079627,19.9056574927283
0.027155635377616,19.9099986042665
0.0262553189294574,19.9126777363709
0.0251955186378302,19.9153568684752
0.0241221073486731,19.9178041743627
0.0230477464222461,19.9201061161793
0.0219729626023004,19.9223271020803
0.0209005698565745,19.9245033829466
0.0198342159936949,19.9266578750247
0.0187775952701352,19.9288067030798
0.0177342000766,19.930962134604
0.0167072585468438,19.9331340659146
0.0156997205587369,19.9353308815719
0.0147142629147861,19.9375599874512
0.0137533035128823,19.9398281570995
0.0128190044896963,19.9421418020511
0.0119132888826952,19.9445071480436
0.0110378477364697,19.9469303932542
0.0101941432343227,19.9494178558817
0.00938342244547836,19.9519760807213
0.00860516856346508,19.9546174432208
0.00783873739787416,19.9574328709125
0.00708795168865598,19.9604416636612
0.00635653238044189,19.963667244821
0.0056484162949426,19.9671366020824
0.00496771550414278,19.9708809706105
0.00431865512874708,19.974936684545
0.00370546592872256,19.9793464070156
0.00313221398872849,19.9841611406034
0.00260257193599106,19.9894436739579
0.00216131899450721,19.994721836979
0.00179385699326422,20
