ecg,time
0.00188031353512437,15.0032907899813
0.00214187661088078,15.0070884119906
0.0024391895624327,15.0106107286206
0.00277713808500198,15.0138829688924
0.00316134165393079,15.0169287070823
0.00359830884257107,15.0197700941699
0.00409564684823531,15.0224281175611
0.00466235555149858,15.024922914355
0.00530925754087112,15.0272741700214
0.00603687620830719,15.0294665669142
0.00684181650551668,15.0314917896565
0.00773553041656629,15.0333852879054
0.00873549812270699,15.0351832569605
0.00987026092853645,15.0369269183746
0.0111944479593374,15.03867598875
0.0129069073404534,15.0406219666236
0.0147225382461563,15.0424267612851
0.0163113443977633,15.0438687365046
0.0179830899805943,15.0453107117241
0.0194747268568097,15.0465811875993
0.0208058068140083,15.0477472759223
0.0219975926857499,15.0488682545717
0.0230458500460739,15.0499849764516
0.0239293965095611,15.0511373798974
0.0246067991687346,15.0523811762567
0.024991549863346,15.0538309384571
0.0247541163387188,15.0559883111475
0.0240594062986547,15.0575178561256
0.0230250579492419,15.0590474011038
0.0218466165979582,15.0604625633835
0.0205279513961321,15.0618770777478
0.0190776993161207,15.0633418826717
0.0175046657772907,15.0648944824127
0.0165160608549792,15.0658723531038
0.0155527339676007,15.0668502237949
0.0138628955259319,15.0686820842511
0.0116761666462321,15.0713354882463
0.00987169785918197,15.0738517024897
0.00839094776572793,15.0762229569327
0.0071652518916296,15.0784703403152
0.00613915849374221,15.0806170519165
0.00526820339249091,15.0826896153813
0.00451574891850583,15.0847219879764
0.00384908565322691,15.0867657105622
0.0032316516398508,15.0889232171202
0.00258425272598552,15.0915480548488
0.00221039454847204,15.0932853784506
0.00187461657015937,15.0950227020524
0.00160098495769167,15.096589893119
0.00136892750303424,15.0980474287133
0.00115759709841804,15.0994966876155
0.000953489408746698,15.1010269734316
0.000742082160752615,15.1027732870449
0.000489757918904338,15.1051212155836
0.000146638712594393,15.1089208328505
-0.000114751507792608,15.1124752631726
-0.000320080110442172,15.1158464242529
-0.000516674279302629,15.1197631778539
-0.00073915970870032,15.1254551862925
-0.000895278520566191,15.1309728383347
-0.000987617633275938,15.1359696186914
-0.00102353798995104,15.1404523371587
-0.00100534317904663,15.1444697428038
-0.000932364235849365,15.1480641318514
-0.000802188058940944,15.1512957384192
-0.00061101923055639,15.154222482317
-0.00035264753882861,15.1569106423309
-1.68702278427472e-05,15.1594307764718
0.000415681178230302,15.1618732675447
0.000992218906460244,15.1643991894189
0.00177908508723764,15.1671527641795
0.00256375414113074,15.169484330408
0.00343160655903083,15.1718158966364
0.00432501583338741,15.1740690235492
0.00555621209436006,15.1770059037577
0.00669296013560792,15.1795099220347
0.00771041337238175,15.1815323622653
0.00871106933651302,15.1832984055873
0.00980151959379531,15.1849839922198
0.0110203330319963,15.1866132154549
0.0123991858656106,15.1881936244276
0.0139662896787696,15.1897261514217
0.0157512840468389,15.1912121392518
0.0177648281662846,15.1926387802219
0.0200430375993035,15.1940140789506
0.0226122719039818,15.1953372958265
0.0255026394328345,15.1966093569044
0.0287440959218233,15.1978304900571
0.0323830150492856,15.1990057971635
0.0364682248661885,15.2001384968682
0.0410567045349624,15.2012319075353
0.0462153522021402,15.2022894254619
0.0520228529653724,15.2033144672813
0.0585739164687755,15.2043107304982
0.0659814026662463,15.2052819218784
0.0743819146868889,15.2062319474184
0.0839428086926573,15.2071650167224
0.0948721386096723,15.2080857913663
0.107433567285034,15.2089996262992
0.121968183954544,15.2099128653053
0.138930055036765,15.2108333884187
0.158947226230781,15.211771573393
0.182584194332144,15.2127288942234
0.209950322416841,15.2136901917995
0.241756673283682,15.2146655255892
0.278967053124822,15.2156698768225
0.32309281670643,15.2167308029738
0.360146326229446,15.217550913442
0.39888958147033,15.2183710239102
0.433181122540735,15.2190912593415
0.463075609550539,15.2197403494481
0.489250016163401,15.2203545054706
0.511776637753499,15.22095889956
0.530262671792693,15.2215764897729
0.543750934180866,15.2222361933917
0.550106117022716,15.2229895722966
0.545769273635674,15.2237769678011
0.529370352343357,15.2245946708788
0.499327479936178,15.2254599647655
0.453554958758661,15.2263853780206
0.392174980375247,15.2273449433474
0.345653850685873,15.2279654977103
0.294703958293522,15.2285860520732
0.249689076865755,15.2291053365994
0.211282204262371,15.2295398982358
0.177637973159901,15.2299228058762
0.147560261086696,15.2302738522584
0.120330779842998,15.2306052111335
0.0954573941301071,15.2309257331158
0.0725379984152186,15.2312433871984
0.051147814155039,15.2315677522344
0.0305979288384407,15.2319162167967
0.00840049362483774,15.2323543911884
-0.000735547739844272,15.2325621760358
-0.00901837843001833,15.2327699608831
-0.0155429281631649,15.232950195947
-0.0215940185372283,15.2331338801656
-0.027668324911296,15.2333386052547
-0.0335208845917662,15.2335609302287
-0.0389964336694026,15.2337988074629
-0.04400887069238,15.2340515397592
-0.0485135700805367,15.2343193313923
-0.0524909641155473,15.2346030390104
-0.0559368666240263,15.234904053937
-0.0590087341518371,15.2352448872876
-0.0613371365125909,15.2355852796479
-0.0631581901652061,15.2359498756869
-0.0644888719984159,15.2363426362072
-0.0653431844534548,15.2367681219145
-0.0657327725677047,15.237232033895
-0.0656651929420321,15.2377416176674
-0.0651415748256283,15.2383063622466
-0.0641506803235493,15.2389403753427
-0.0626649435000692,15.2396622299162
-0.0606280311362024,15.2405004010547
-0.0579208703636565,15.2415051651501
-0.0542251183481023,15.2427963144032
-0.0501103332973406,15.2441968835706
-0.0461278903554283,15.2455529569475
-0.0423266826307706,15.2468689587765
-0.0387308947258525,15.2481469743199
-0.0353531221242627,15.2493877081892
-0.032199108897487,15.250591170503
-0.0292698817216917,15.2517570425557
-0.0265629107071928,15.2528848694458
-0.024072881123628,15.2539741592118
-0.0217922977578387,15.2550244291987
-0.0197120059884616,15.256035220881
-0.0178216584993254,15.2570060945809
-0.0161101348173362,15.2579366104001
-0.014523855678229,15.2588512907689
-0.0129960116135027,15.2597893138301
-0.0115313091208245,15.2607521108267
-0.0101337086277682,15.2617417391236
-0.00880698429095617,15.2627606086203
-0.00755466977225612,15.2638115712176
-0.00638000639131057,15.2648980347842
-0.00528588890191734,15.2660241161397
-0.0042748088485815,15.2671948510609
-0.00334879501027323,15.2684164902902
-0.00250934976784841,15.26969693005
-0.00175737903564687,15.2710463622449
-0.00109311115861741,15.2724783030095
-0.000515995617396973,15.2740113176327
-3.41314241424921e-05,15.2756352652983
0.000345382388397078,15.2773035811233
0.000639252620655292,15.2790345560892
0.000862226569658375,15.2808487271739
0.00102812259976934,15.2827733807382
0.00115023246361798,15.2848468801848
0.00124191872400525,15.2871275989284
0.00131772574637519,15.2897152482949
0.00139636696066337,15.29281739429
0.0014984662665605,15.2965505030479
0.00162740591276838,15.3004882196004
0.0017952698117731,15.3048331208643
0.00197795491710171,15.3090768856521
0.00217597935614424,15.3134252871374
0.00240206979909458,15.3182737821166
0.00263374535026643,15.3232053765362
0.00286643030163903,15.3281470104336
0.00307975515549753,15.3326483127427
0.00327161046215326,15.3366513661739
0.00345660746155052,15.3404521772923
0.00364156636952069,15.3441770013388
0.00383071938381313,15.3478951055716
0.00402740117700227,15.3516538014407
0.00423465238395526,15.3554901118893
0.00445551487897572,15.3594358346748
0.00469325518634285,15.3635208166136
0.00495153114437555,15.3677746907215
0.00523457635311703,15.3722281866231
0.00554746271327718,15.3769143243781
0.00589654765688011,15.3818698385708
0.00628919697732364,15.3871232202241
0.00669534515857648,15.3922156349063
0.00712768450965646,15.3972784105496
0.00758550127891985,15.4022569717868
0.00807431206496397,15.4071648575706
0.00859926831327349,15.4120024019571
0.00916680079148707,15.4167747741574
0.00978391565392657,15.4214842539674
0.0104583409777098,15.4261314609037
0.0112131642532529,15.4308014155639
0.0120642737672218,15.4354988270494
0.013032501732046,15.4402363976919
0.0141469311171279,15.4450425132523
0.0154538694463136,15.4499838291851
0.0170453915937333,15.4552333540057
0.0192111380409586,15.4614268635629
0.0209278734856267,15.46583164914
0.0227415281501344,15.4702364347172
0.0242770204996479,15.4739495750043
0.0255578152868745,15.4772115320142
0.0266302314624563,15.4802711131833
0.0274842124674581,15.4832399138525
0.0280709722580356,15.4860716516372
0.0283909932787967,15.4888860444658
0.0284177213051735,15.4918325146757
0.0280549945817938,15.4952093385378
0.0272770274527486,15.4986730517806
0.0261519464205014,15.5021367650234
0.0250561438412455,15.504909388137
0.0239853222129205,15.507352059712
0.0229173272647392,15.5096449529329
0.0218495725503038,15.5118582062109
0.0207846388660808,15.5140276525301
0.0197260902821901,15.5161757969946
0.018677531083588,15.5183185327444
0.0176423620116198,15.5204679948116
0.0166237175687419,15.5226340143281
0.0156244559212007,15.5248249549087
0.0146471633364723,15.5270482413113
0.0136941678294317,15.529310706853
0.0127675474403172,15.5316188553278
0.0118691414077026,15.5339790569873
0.0110005629048623,15.5363977031805
0.0101632016643765,15.5388813680476
0.0093582395333855,15.541436926528
0.00858275159681672,15.5440855531874
0.00781911470199057,15.5469095958451
0.00707110828047265,15.5499288646871
0.00634246164454647,15.5531672449485
0.00563712547702015,15.5566523195511
0.00495923541456348,15.5604160809733
0.00431305175710209,15.5644958324849
0.00370285507719171,15.5689354787115
0.00313277934581166,15.5737876168209
0.00260656997151753,15.5791172857465
0.00212730179298769,15.5850087081978
0.00169725171007677,15.591575156559
0.00132957594606817,15.5987158151804
0.00102372192722812,15.606440159211
0.000779464330663046,15.6148741304746
0.000603977370876655,15.6237619175098
0.000483864545948594,15.6324429908774
0.000387333496915608,15.6424169337353
0.00032342413523151,15.6524169337353
0.00028352412234659,15.6624169337353
0.000261350687638633,15.6724169337353
0.000252409559526786,15.6824169337353
0.000253632655970042,15.6924169337353
0.000263107646374753,15.7024169337353
0.000279836663601041,15.7124169337353
0.000303558013113226,15.7224169337353
0.00033465826889528,15.7324169337353
0.000374184837999361,15.7424169337353
0.000423970791168099,15.7524169337353
0.000483111363572414,15.7618670708405
0.000551194193095884,15.7705733492986
0.000629117371007324,15.7785884234408
0.000718092048764787,15.7859695642049
0.000819560885880846,15.7927695418975
0.000935188922730632,15.7990368016918
0.00106687725997441,15.8048159138931
0.00121678734538491,15.8101479519971
0.00138737309127534,15.8150708049615
0.00158141772848523,15.8196194625462
0.00180208081240134,15.8238262802568
0.00205295272382832,15.8277212226191
0.00233812351268713,15.8313320823301
0.00266226715857259,15.8346846976698
0.00303074994689687,15.8378031765782
0.00344977252632217,15.8407101254925
0.00392655843492099,15.8434268972638
0.00446961716956193,15.8459738848281
0.00508912302490932,15.8483708874455
0.00579360232811093,15.8506262789432
0.00657261699127556,15.8527028662055
0.00743615456015036,15.8546361113276
0.00839951028040657,15.8564619729288
0.00948677396198926,15.8582192511838
0.0107413703909323,15.8599593080007
0.0122920643640347,15.86181060313
0.0146301231338077,15.8641957707413
0.0161955829684113,15.8656241115317
0.0178454183931426,15.867052452322
0.0193485574953454,15.8683337659707
0.0206902338018833,15.8695062668067
0.0218921865567554,15.8706298769082
0.0229516800962278,15.8717461357097
0.0238488616867866,15.8728945303802
0.0245444087237008,15.874128594392
0.0249577379269995,15.8755544631247
0.0248109662556193,15.8775895461013
0.024165079635645,15.8791504450598
0.0231520132566364,15.8807113440184
0.0219928346341708,15.8821333472347
0.0206929819698798,15.8835447741642
0.0192603984024294,15.8850009986272
0.0177042561124996,15.8865399712219
0.016669564576704,15.8875626322764
0.0156574545307006,15.888585293331
0.0145760800518683,15.8897326096713
0.0122766598053465,15.8924133289126
0.0103650695289568,15.8949721845116
0.00879879641358354,15.8973809966017
0.00750551167204916,15.8996601392704
0.00642618509431095,15.9018323574624
0.00551356331436775,15.9039230912458
0.00472909248583072,15.9059638441477
0.00403931801499686,15.9080000901844
0.00340975338575829,15.9101150297355
0.00278195768723382,15.9125444838175
0.00235486837923906,15.9144360962078
0.00197501518366083,15.9163277085982
0.00168091466121757,15.9179604137524
0.00143897157035966,15.9194375847186
0.00122242857528844,15.9208821036565
0.00101651303414281,15.9223827196937
0.000807759381470144,15.9240542634749
0.000571663380868093,15.9261660200819
0.000210720247172368,15.9299874487414
-8.35037945942918e-05,15.9338509496137
-0.000314311800744944,15.9375796780603
-0.000531791179907128,15.9419342008603
-0.000752587144682229,15.9476950556951
-0.000903606040440557,15.953173637416
-0.000991422756641562,15.9581250322177
-0.00102312992994534,15.9625672535689
-0.00100072925747786,15.9665452849286
-0.000923339483469922,15.9701097485823
-0.00078853488532424,15.9733137483476
-0.000592207405947438,15.9762202674584
-0.000328198118549933,15.9788916084348
1.44393327018322e-05,15.9814025033438
0.000456863453891971,15.9838484881114
0.00104864526707338,15.9863922198731
0.00185445499529195,15.9891672117338
0.0026413425268138,15.9914799032697
0.003507336079726,15.9937925948056
0.00441316099967184,15.9960686518057
0.00571680309966623,15.9991567866597
0.00657104080139583,16.0010373475159
0.00750054311793655,16.0029179083721
0.00849104387332337,16.0047122574301
0.00955934833551012,16.0064124918985
0.0107472913650754,16.0080512968677
0.0120956431101635,16.0096483636697
0.013618963834736,16.0111887142401
0.0153564671583117,16.0126850308823
0.0173217121680092,16.0141253904534
0.0195413745540095,16.0155110832921
0.0220461194097942,16.0168447909828
0.0248652663964797,16.0181271587907
0.0280314218322034,16.0193595289907
0.0315830150723172,16.0205443048277
0.0355699373165142,16.0216857722055
0.0400473941016189,16.0227872527017
0.0450801519988203,16.0238521500173
0.0507441646177447,16.0248838574765
0.0571304965218248,16.0258860106629
0.0643478636099503,16.0268623090234
0.0725274283926219,16.0278166120192
0.0818294894299948,16.0287530619543
0.0924526166174441,16.0296762116062
0.104647481365177,16.0305912574779
0.118736879811567,16.0315043124097
0.13514781789043,16.0324228927271
0.154465810664541,16.0333567694683
0.177405799962707,16.0343145741929
0.2039497819588,16.0352746890687
0.234771966161884,16.0362465471406
0.270772060863469,16.0372438237662
0.313303946167155,16.0382903465039
0.351540970086512,16.0391506301285
0.391884193145391,16.0400109137532
0.427179417775319,16.0407517537684
0.457787732140208,16.041411005728
0.484598659842214,16.0420297451023
0.507784853002122,16.0426345547798
0.527035574091598,16.0432482237223
0.541518249796341,16.0438978149323
0.549407743931057,16.0446283531689
0.547208035750497,16.0454124647065
0.53318251065505,16.0462231905157
0.505859449051957,16.0470784916845
0.463234618461416,16.0479918761371
0.403929142397948,16.0489586943301
0.356243890977377,16.0496126705873
0.303389521274078,16.0502666468445
0.256840589581955,16.0508074810627
0.217432523859103,16.0512541353227
0.183085176086178,16.0516442301136
0.152465456994338,16.0519997642709
0.124794490726192,16.0523338471925
0.0995534865294194,16.0526556980723
0.0763326950494229,16.0529732854714
0.0547217268450091,16.0532956595541
0.034112644760254,16.0536379404756
0.0126946734212912,16.0540477604744
0.00114325637909751,16.0543025684737
-0.00633474010365188,16.0544851605405
-0.0131742072163221,16.0546677526073
-0.0191297680714711,16.0548418964451
-0.0252248749945106,16.0550385310406
-0.031189875551185,16.0552541308527
-0.0368302720808055,16.0554859186795
-0.0420361104548557,16.0557327164207
-0.0467485311681716,16.0559944041431
-0.0509393136750988,16.0562715952553
-0.05459894110456,16.0565654735306
-0.0577236461140091,16.0568777278619
-0.0603515250796878,16.0572161948724
-0.0623957615534405,16.0575696324303
-0.0639424660210539,16.0579494077807
-0.0650068130396236,16.0583597583578
-0.0656016893285734,16.0588058373297
-0.0657367067794531,16.0592941415594
-0.0654162314437794,16.0598330236919
-0.0646352526196647,16.0604343920412
-0.0633742949961499,16.0611144603564
-0.0615921837845405,16.0618964774944
-0.05920479870201,16.0628185588866
-0.0560167027490413,16.0639576215238
-0.0518647933460789,16.0653824841088
-0.0478169264257055,16.0667570510961
-0.0439338961380589,16.0680899054787
-0.0402477624125143,16.069384099692
-0.0367752561992097,16.0706408236506
-0.0335247108490885,16.0718603272249
-0.0304990016921701,16.0730424020392
-0.0276970175841029,16.0741866355422
-0.0251145595699113,16.0752925436965
-0.0227450016853517,16.0763596366107
-0.0205798422233606,16.0773874451053
-0.0186091921629622,16.0783755230756
-0.016822214753412,16.0793234337981
-0.0152075183779343,16.0802307246571
-0.0136534052111178,16.0811584810023
-0.0121606221835368,16.0821102268042
-0.0107332307244163,16.0830878673376
-0.00937509404385204,16.0840936481586
-0.00808985699107886,16.085130216014
-0.00688089500611002,16.0862007198524
-0.00575126090883478,16.0873089450184
-0.0047036293407318,16.0884594955815
-0.0037402385725966,16.0896580482489
-0.00286282884948239,16.090911716387
-0.00207257552242803,16.0922295903345
-0.00137001352880166,16.0936235739638
-0.000754946477413395,16.0951097498661
-0.000226326438674799,16.0967107628986
0.00019517549211546,16.0983574554195
0.000524217024334866,16.1000591306606
0.000776121084677019,16.1018344556585
0.000965067677543758,16.1037074310821
0.00110451794491576,16.1057108928181
0.00120771128281273,16.1078929731088
0.00128848349446613,16.1103313872336
0.00136311167039559,16.11317235644
0.0014570291756111,16.1167878461604
0.00157204467601391,16.1205822807402
0.00172620367441807,16.1248253994847
0.0019029033822338,16.1290851492417
0.00209420232308197,16.1333623261669
0.00230697340383064,16.1379539525333
0.00254116625830501,16.1429465301506
0.0027723292087955,16.1478563553966
0.00300262860789865,16.1527296220704
0.00319995627443756,16.1568622303622
0.00338640652624814,16.1607146054906
0.00357083144019883,16.1644564474283
0.00375808588326917,16.1681708034282
0.00395172300979431,16.1719106837831
0.00415484761593818,16.1757159999655
0.00437047292152908,16.1796199564328
0.00460176211676882,16.1836528125268
0.00485221170227567,16.1878441136389
0.00512582223768433,16.1922240732806
0.00542732279753842,16.1968247597123
0.00576254110983461,16.2016814506398
0.00613901230321939,16.2068338977555
0.00653970226306825,16.2119847931281
0.00696201690677188,16.2170625178042
0.00740971138459572,16.2220722274787
0.00788625502361784,16.2270064809949
0.00839688386604464,16.2318697771842
0.00894761068632388,16.2366662537051
0.00954522202014512,16.2413992453878
0.0101971679683362,16.246069964071
0.010919399156527,16.2507256260837
0.0117324654736419,16.2554126969367
0.0126539634950238,16.2601329631841
0.0137094491791162,16.2649084460347
0.0149370306601182,16.2697871147996
0.0164054274089618,16.2748875012821
0.0182875795718861,16.2805718117513
0.0207096724071316,16.286967340775
0.022239833291959,16.2907092057329
0.0237948379396354,16.2944510706908
0.0251481152212874,16.297816652402
0.026289124979126,16.3009245561694
0.0272256818186159,16.3039358050343
0.0279017023989481,16.306800516035
0.0283130826979947,16.3096063895593
0.0284445372062119,16.3124870653846
0.0282336986922755,16.3156614190526
0.0273936211418814,16.3199213908095
0.0265306229614949,16.3227467749556
0.025473730189209,16.3255721591017
0.0244039542012641,16.3280958149273
0.0233362547752695,16.3304347167863
0.0222682680458387,16.3326737653738
0.021201837771616,16.3348572121905
0.0201403598105018,16.3370115508467
0.0190874721310507,16.339154802205
0.0180466677863264,16.341300353279
0.0170211896463239,16.3434588137511
0.0160140032780441,16.3456390499477
0.0150278008303873,16.3478488054065
0.0140650106665886,16.3500951105948
0.0131278067766353,16.3523845751697
0.0122181225418833,16.3547235974798
0.0113376579297483,16.3571185453289
0.0104878878535086,16.3595759095374
0.00967007700871213,16.3621024253943
0.00888528071342766,16.3647052316028
0.0081165669893789,16.3674582936676
0.00736200666914695,16.3703983717827
0.00662531528776629,16.3735477938637
0.0059103618092556,16.3769326078074
0.00522121254791874,16.380582992969
0.00456208881361845,16.3845340428207
0.00393727983765385,16.3888268772394
0.00335100149123164,16.3935103542817
0.00280718618870594,16.3986440087545
0.00230919599835424,16.4043035612007
0.0018596200247512,16.4105895361557
0.0014658233912903,16.4175285572663
0.00113648563720127,16.4250111883139
0.000926140443016663,16.431103045666
0.00076467608912367,16.437194903018
0.000594391055269222,16.4460486551639
0.000472636835109764,16.4550863981588
0.000379433114106629,16.4650863981588
0.000318163688287203,16.4750863981589
0.000280203213098978,16.4850863981589
0.000259448597153578,16.4950863981589
0.000251549115582044,16.5050863981589
0.000253558476713913,16.5150863981589
0.000263661541229001,16.5250863981589
0.000280934576999586,16.5350863981589
0.00030517391740193,16.5450863981589
0.00033681678004968,16.5550863981589
0.00037696251808372,16.5650863981589
0.00042750677069616,16.5750863981589
0.000487202064271825,16.5844839607199
0.000555869605918984,16.5931401558954
0.000634438116485607,16.6011094193665
0.000724135657854189,16.6084487067069
0.000826419140892255,16.615210436673
0.000942967644867787,16.6214427411795
0.00107569722056964,16.6271899109245
0.00122678581053354,16.632492767148
0.00139870576871855,16.6373889702356
0.00159426113293169,16.6419133029093
0.00181663517512316,16.646097933389
0.00206944559933365,16.6499726562673
0.00235681399957161,16.6535651103279
0.00268345154445576,16.6569009957864
0.00305476871989859,16.6600042982939
0.00347701969142381,16.662897517573
0.00395749423821357,16.665601916789
0.00450478582757763,16.6681378189709
0.00512917878478739,16.6705249777375
0.00583778777238741,16.6727673799136
0.0066213891700649,16.6748331481178
0.00749020359313414,16.6767576879591
0.00845985794522738,16.6785769110527
0.00955509918815207,16.6803298884099
0.0108209373595622,16.6820690563122
0.0123961764736485,16.683931961614
0.0147839193263628,16.6863447043729
0.0163424951678809,16.6877560722418
0.0179798552671327,16.6891674401106
0.0194704208017925,16.6904364276497
0.0208026342738222,16.6916026729378
0.0219955943250725,16.6927236117917
0.0230450929389852,16.6938400626517
0.0239300489238636,16.6949919191912
0.0246091930402532,16.6962347118601
0.024996487775667,16.6976823188079
0.0247668986755263,16.6998289739962
0.0240762096180479,16.7013604979705
0.0230437348936267,16.7028920219448
0.0218668462747105,16.7043074655674
0.020549598418424,16.705721523076
0.0191005983557506,16.7071854432994
0.0175286872183596,16.7087367570186
0.0165400770156094,16.7097142731578
0.0155761822001163,16.7106917892971
0.01406009234157,16.7123255722196
0.0118445449583225,16.7149835259413
0.0100119664882646,16.7175091602254
0.00850842289131754,16.7198889158078
0.00726438595505045,16.7221437226071
0.00622352298338459,16.7242967362233
0.00534065955624899,16.7263743334113
0.00457862832028246,16.7284101028147
0.00390440756408868,16.7304546199064
0.00328160532117505,16.7326070534414
0.00263473395169106,16.7351981079084
0.0022511484855801,16.7369586146871
0.00190716363934755,16.7387191214659
0.00162878027932591,16.7402981501801
0.00139387693118863,16.7417602408749
0.00118064776614524,16.7432097154527
0.00097534021935286,16.7447355479678
0.000763624276284766,16.7464685405809
0.00051389708366026,16.7487677369388
0.000166637974906623,16.7525690699499
-9.989679884667e-05,16.7561576104071
-0.00030792421562562,16.7595462928754
-0.00050544232212498,16.7634544069478
-0.000728499386898051,16.7691228236813
-0.000885940112873098,16.7746502107771
-0.000979145435936098,16.7796564583481
-0.00101573019906817,16.7841484188495
-0.000998134041760316,16.7881745881464
-0.000925764806495827,16.7917770673252
-0.000796267019119825,16.7950157694106
-0.000605874379549877,16.7979488321704
-0.00034844655615729,16.8006421605911
-1.39058096524807e-05,16.8031660200765
0.000416866643610966,16.8056103624567
0.000989854780178773,16.8081326988253
0.00177290099456335,16.8108849276408
0.00255867766245048,16.8132273567779
0.00342882418417986,16.815569785915
0.0043224590182396,16.8178263334266
0.0055476267188166,16.8207517715328
0.00668909545830178,16.8232689755869
0.00770205041538801,16.8252848807376
0.0087039522301683,16.8270557910919
0.00979162204169279,16.828739782388
0.0110092664246012,16.8303703496193
0.0123853595985577,16.831950505624
0.0139502689582296,16.8334837874206
0.0157328048903488,16.8349704935425
0.0177436390059895,16.8363977979767
0.020018931080107,16.837773759302
0.0225850068229673,16.8390976197875
0.0254719544990458,16.8403702984882
0.028709518547051,16.8415919511371
0.0323442590084903,16.8427677802629
0.036424881280134,16.8439009777609
0.0410082864091492,16.8449948600261
0.0461611841261538,16.8460528034918
0.0519623117345052,16.8470782586558
0.0585061977484259,16.8480749110845
0.065905549577138,16.8490464678783
0.0742967869524149,16.8499968358562
0.0838470152617255,16.850930223205
0.094764049524739,16.8518512968129
0.10731118542748,16.8527654114777
0.121829071275352,16.8536789134105
0.138771218623376,16.8545996867234
0.158764952004621,16.8555381152238
0.182375652917072,16.8564957334864
0.209711543214266,16.8574573238838
0.241483022789458,16.8584329504789
0.27865282671487,16.8594375907235
0.322729496427843,16.8604987582905
0.359787751105396,16.8613199815403
0.398542310193566,16.8621412047901
0.432842716281191,16.8628622751322
0.462742622474609,16.863511959263
0.488921481077617,16.8641265489472
0.511453374001612,16.8647312429783
0.529947474476744,16.8653489851515
0.543450296024887,16.8660086150262
0.54983752596645,16.8667614058792
0.545554193424777,16.8675489199558
0.529219154708157,16.8683665811214
0.4992548556721,16.8692316711189
0.453580552990692,16.8701567236345
0.392237905534646,16.8711169323438
0.345723642382601,16.8717379675763
0.29476991703206,16.8723590028089
0.249749345621003,16.8728786306222
0.211339141354045,16.8733134136788
0.17769295284483,16.8736964739137
0.147613901133316,16.8740476315123
0.120383429800628,16.8743790723917
0.095509386878335,16.8746996516017
0.0725898591775526,16.8750173363371
0.051200677602747,16.8753416926036
0.0306551681303649,16.8756900552314
0.00848455367113114,16.8761275529166
-0.000689165312386479,16.8763361075303
-0.00900355964820458,16.8765446621439
-0.0155316148720871,16.8767250087645
-0.0215814191685026,16.876908668349
-0.0276551352499341,16.8771133818612
-0.0335076274429225,16.8773357054421
-0.0389834272893604,16.8775735866866
-0.0439963123267478,16.8778263254258
-0.0485015850103342,16.878094124025
-0.0524796330467116,16.878377837766
-0.0559262415870912,16.8786788568547
-0.0590056887739275,16.87902057211
-0.0613334363475894,16.879361036326
-0.0631538058283214,16.8797256970897
-0.0644838541578883,16.8801185264419
-0.0653375793876795,16.8805440857206
-0.0657266210600495,16.8810080765734
-0.0656585302345548,16.8815177451283
-0.0651344292401256,16.8820825824057
-0.0641430741668818,16.8827166962148
-0.0626568961109585,16.8834386604699
-0.0606195622309517,16.8842769512493
-0.0579120081069762,16.8852818456013
-0.054215930904803,16.886573132248
-0.0501015933675953,16.8879736109367
-0.0461196837059672,16.8893295886262
-0.0423190629176469,16.890645487964
-0.0387238950275802,16.8919233949231
-0.0353467612087661,16.8931640148492
-0.0321933939092885,16.8943673585697
-0.0292648098110195,16.8955331080381
-0.0265584704085097,16.8966608089468
-0.0240690537188287,16.8977499698498
-0.0217890586696665,16.8988001085161
-0.0197093261726024,16.8998107667394
-0.0178195057888303,16.9007815050431
-0.0161084751778204,16.901711883597
-0.0145222920817455,16.9026266437246
-0.0129945601959848,16.9035647501568
-0.0115299819414056,16.9045276370206
-0.0101325171029562,16.9055173627816
-0.0088059389651605,16.9065363387161
-0.00755378010367571,16.9075874184414
-0.00637928052206413,16.9086740119942
-0.0052853334099278,16.9098002389756
-0.00427442847579635,16.9109711387963
-0.00334859235798191,16.9121929670516
-0.00250932494341137,16.91347362662
-0.00175752922316549,16.9148233188403
-0.00109343006330743,16.9162555737859
-0.000516472687365532,16.9177889784787
-3.48431096761817e-05,16.9194130500787
0.000344499295099182,16.9210815519915
0.000638253226164796,16.9228127747662
0.000861163788033323,16.9246272738945
0.00102704873733132,16.9265523646229
0.00114920159314075,16.9286264598364
0.0012409906456079,16.9309080269025
0.00131697440876396,16.933496987168
0.00139590613849056,16.9366015385909
0.00149833388514984,16.9403346893589
0.0016276807838982,16.9442738160437
0.00179543970853372,16.9486069910878
0.00197838239371118,16.9528497892803
0.00217734930369928,16.9572121592019
0.00240598418114345,16.9621080319983
0.00263781224439881,16.9670349829256
0.00287127070373409,16.9719853222684
0.00308282470463227,16.9764414180489
0.00327415006884586,16.9804268646937
0.00345910438682843,16.9842205890512
0.00364426964213411,16.9879434392416
0.00383380121090549,16.9916627934338
0.00403100706796805,16.9954251418521
0.00423892053380765,16.999267084946
0.00446058846291255,17.0032202303157
0.00469929098283301,17.0073143722204
0.00495870679744144,17.0115791743981
0.00524309987864182,17.016045467031
0.00555758887650533,17.0207464485618
0.00590860661285855,17.0257191125294
0.00630161689631801,17.0309658225054
0.00670869972595037,17.0360586892007
0.00714180362658755,17.0411183694696
0.00760056737504296,17.0460944299613
0.0080904790060851,17.0509996803244
0.0086167606746055,17.0558348932382
0.00918586248861201,17.0606051176699
0.00980481376625067,17.0653125624171
0.0104813630992645,17.0699577574965
0.0112392612085161,17.0746290827658
0.0120939722743034,17.0793275807707
0.013066635083532,17.0840669397249
0.0141866986842995,17.0888762528291
0.0155013515291872,17.0938242025682
0.0171053666623729,17.0990901017621
0.0193045481150188,17.1053476455582
0.0210045580075445,17.1096932979637
0.022796050661702,17.1140389503691
0.0243205259332648,17.117728315427
0.0255942731415894,17.1209806338221
0.0266602868550294,17.1240365272339
0.027505779094278,17.1269990987392
0.0280843950732366,17.1298284099407
0.0283959676234774,17.1326443610729
0.0284127341525066,17.1355981926332
0.0280344411979648,17.1389981943604
0.0272544888440545,17.1424224654707
0.0261369427610147,17.145846736581
0.0250430809996581,17.1486097824181
0.0239724910687661,17.1510497405336
0.0229045077580732,17.1533414047645
0.0218367714667794,17.1555539894105
0.0207718943795801,17.1577230850552
0.0197134444078138,17.1598710931326
0.0186650241585176,17.1620138512749
0.0176300315729543,17.1641634610689
0.0166115977549473,17.1663297331795
0.0156125777453015,17.1685210177161
0.0146355546304153,17.1707447312024
0.0136828533059083,17.1730077023624
0.0127565491335397,17.1753164322657
0.0118584785276006,17.1776772911594
0.0109902518261259,17.1800966725922
0.0101532564186644,17.1825811535695
0.00934867156929115,17.1851376145577
0.00857330309628881,17.1877881978006
0.00780982867830774,17.1906144120761
0.00706202639567687,17.1936361138846
0.00633362834028744,17.1968772272701
0.00562858720294464,17.2003653831753
0.00495104041807251,17.2041326294983
0.00430524905232932,17.2082163369015
0.00369549285992595,17.2126604948395
0.0031259022176085,17.21751781815
0.00260021567733309,17.2228535199184
0.00212149824378856,17.2287520915052
0.00169201696625335,17.2353271937335
0.00132508017724488,17.2424742057062
0.00101988053490542,17.2502061761474
0.000776370899028389,17.2586494976498
0.000598661626470051,17.2677083367854
0.000480248251010456,17.2763556750732
0.000384479568069362,17.2863436915112
0.00032118502378663,17.2963436915112
0.000281674823114233,17.3063436915112
0.000259726302290716,17.3163436915112
0.000250884505578933,17.3263436915112
0.000252106990667637,17.3363436915112
0.000261496324137869,17.3463436915112
0.000278060202145729,17.3563436915112
0.000301533733264461,17.3663436915112
0.000332291082166666,17.3763436915112
0.000371356061488525,17.3863436915112
0.000420522649313789,17.3963436915112
0.000479130148719628,17.4058312962008
0.00054661494683515,17.414573795428
0.000623855588844907,17.4226224676237
0.000712049923384398,17.4300346981355
0.000812627198239422,17.4368634162213
0.000927237722534854,17.4431572144657
0.0010577659447479,17.4489607991661
0.00120635433633587,17.4543153704147
0.00137543514385582,17.4592589351496
0.00156776682971924,17.4638265923426
0.0017864804175227,17.4680507977383
0.00203513321166426,17.4719616075502
0.00231777669659419,17.4755868974049
0.00263903915217097,17.4789525785595
0.00300423213846235,17.4820828205299
0.00341948951731469,17.485000278342
0.00389195153138655,17.487726337065
0.00443002110557027,17.4902814000944
0.00504373149026345,17.4926852469537
0.00574331012476284,17.4949516486425
0.0065168029924377,17.4970367952317
0.00737386391341845,17.4989760712441
0.0083292974066932,17.5008053142846
0.00940621710364501,17.502562714124
0.0106456994532544,17.5042977632891
0.0121631032257257,17.5061262491823
0.0144095860113339,17.5084413774436
0.0159911233386631,17.5098950526275
0.017667223741409,17.5113487278115
0.019198534386548,17.5126492715912
0.0205618457912146,17.5138301323241
0.021783940850412,17.5149558658997
0.0228648085552195,17.5160694228218
0.0237866628248843,17.5172097235666
0.0245132245705675,17.5184272397788
0.0249719173696538,17.519816752023
0.0249415119463483,17.5217031157596
0.0243598865052324,17.5233243928802
0.0233618761277765,17.5249456700008
0.0222208104212947,17.5263791282326
0.0209400697266439,17.5277869638605
0.0195249408639237,17.5292331475588
0.0179846611295221,17.5307567682646
0.0166733257273357,17.5320501541783
0.0154003249379012,17.533343540092
0.0140843971739266,17.5347667767636
0.0118672271720152,17.537422540218
0.0100293883150292,17.5399514327725
0.00852186587096162,17.5423340803454
0.00727494884567697,17.5445912113059
0.00623206631617304,17.5467459081536
0.00534788099119845,17.548824400989
0.00458514722429694,17.5508599600517
0.00391089248138692,17.5529023914841
0.00328913544845956,17.5550484162907
0.00264747505806658,17.5576127737067
0.00225953661187964,17.5593886165383
0.00191199549016351,17.5611644593699
0.00163217216457895,17.5627502639482
0.00139688812437956,17.5642138809016
0.00118377662194462,17.5656617874743
0.000978995997273686,17.567182679796
0.000768429913346593,17.5689043880784
0.000521951383556013,17.5711684055406
0.000173755605653288,17.5749676851871
-9.51839460891721e-05,17.5785798586023
-0.000304306402035429,17.5819824969224
-0.000501808830786067,17.5858881590819
-0.000724762028557458,17.5915518531844
-0.000882429625005136,17.5970861243166
-0.000975788698999995,17.6020989905902
-0.00101252762106782,17.606597250701
-0.00099512080550995,17.6106288727472
-0.000923001721648617,17.6142360937253
-0.000793836160407229,17.6174786825213
-0.000603877129115503,17.6204148226201
-0.000347033136252318,17.6231102179787
-1.33217806955603e-05,17.6256349052104
0.000416176241856269,17.6280784117206
0.000986530300546615,17.6305954837053
0.00176679907929871,17.6333439134038
0.00255319496009735,17.635691132159
0.00342484724021243,17.6380383509142
0.00431756331773969,17.6402922404283
0.00553116734548624,17.6431905546056
0.00643542986262762,17.6452065004048
0.00741969455698211,17.6472224462041
0.00839367687234056,17.6490084370207
0.00946283758503753,17.6507338787668
0.0106350365064547,17.6523745553076
0.0119661777267262,17.6539755555723
0.0134709018874631,17.6555211026911
0.0151867992285885,17.65702215699
0.017124639458338,17.6584648197942
0.0193187893808254,17.6598560273001
0.0217957174525891,17.6611951931886
0.0245841723933888,17.6624827496603
0.0277128108305193,17.6637186671896
0.0312251215131034,17.6649076339158
0.0351681956727833,17.6660530149245
0.0395963176288738,17.6671580866657
0.044573246757032,17.6682262418499
0.0501734333536055,17.6692608145423
0.0564868408060611,17.6702655125133
0.0636201919340456,17.6712439982979
0.0717022393155344,17.6722001078857
0.0808901401662133,17.673137948857
0.0913782334290647,17.6740620197006
0.103411530684132,17.6749774499998
0.117304685599319,17.6758902396258
0.133472711808944,17.6768077335576
0.152482288672598,17.6777394188616
0.175115181401656,17.6786972448261
0.20129682306562,17.6796565980485
0.231685126486719,17.6806266246396
0.267152452119938,17.681620441626
0.308989028670809,17.6826603668152
0.347900775114834,17.6835419550284
0.389132838885476,17.6844235432415
0.424893933345153,17.685173544979
0.455811378740692,17.6858369150454
0.482891087494683,17.6864573885395
0.5063510334797,17.6870622575715
0.525913257707449,17.6876743179202
0.540791087550845,17.6883200220892
0.549265436927702,17.6890422608285
0.547895474198086,17.6898250548125
0.534782624846078,17.6906330648552
0.508497222378747,17.691484511695
0.467066848413626,17.6923932947242
0.408676809490213,17.6933613674829
0.360502707137736,17.6940294546821
0.306838084922012,17.6946975418813
0.259645858683633,17.6952472825313
0.219824542640559,17.6956988242326
0.185191159444173,17.6960917676525
0.154352817712916,17.6964490588952
0.126504497086153,17.696784203562
0.101115812040806,17.6971065805086
0.0777730397179668,17.6974241759317
0.0560696041426514,17.697745875909
0.0354221798465334,17.698086094073
0.0141992968613282,17.6984876756908
0.00122897057193633,17.6987715543216
-0.00626086552215146,17.6989542016343
-0.0131112497243638,17.6991368489469
-0.0190765365200495,17.6993110508072
-0.0251723887040835,17.6995074378474
-0.031140621507825,17.6997228205944
-0.036785871661792,17.6999544108872
-0.0419974446331162,17.7002010164771
-0.0467160340844958,17.7004625077606
-0.0509131487755855,17.7007394909904
-0.0545791061297321,17.7010331439733
-0.0577102510842717,17.7013451498592
-0.0603509097604613,17.7016842737358
-0.0623998600587822,17.7020374763633
-0.0639510414305645,17.7024169721969
-0.0650197119234766,17.7028270015019
-0.0656187814838421,17.7032727074627
-0.0657578993269608,17.7037605733668
-0.0654414875638501,17.7042989328651
-0.0646646454430998,17.7048996522384
-0.0634080356991584,17.7055789074779
-0.0616307256031963,17.7063598622852
-0.0592491161097596,17.7072804470405
-0.0560693667626563,17.7084170127208
-0.0519164064687124,17.7098424042298
-0.0478669326174242,17.7112173545571
-0.0439819331027067,17.7125505637166
-0.0402936431363863,17.7138451026296
-0.036818884370105,17.7151021703261
-0.0335660468238482,17.7163220210002
-0.0305380466800919,17.7175044480911
-0.0277338045731729,17.7186490395654
-0.0251491469090407,17.7197553112648
-0.0227774677851687,17.7208227729153
-0.0206102808138762,17.7218509549227
-0.0186377079722832,17.7228394108866
-0.0168489195925445,17.7237877040136
-0.0152325276428881,17.7246953819286
-0.0136777618955639,17.725622919988
-0.0121842774874284,17.7265744362895
-0.0107561459538629,17.7275518282746
-0.00939723206595034,17.728557338229
-0.00811118272966776,17.7295936087809
-0.00690137588357634,17.7306637836996
-0.00577086729824329,17.7317716417244
-0.00472233502684281,17.732921778361
-0.00375802121848074,17.7341198589892
-0.00287967047304508,17.7353729816262
-0.00208846299153005,17.7366902151825
-0.0013849390951285,17.7380834324809
-0.000768908393743626,17.7395686689211
-0.000239329766286287,17.7411684929592
0.000183300517675362,17.7428147662457
0.000513313660604431,17.7445158403354
0.000766053827425829,17.746290368258
0.00095571119902692,17.7481622857287
0.00109575377988843,17.7501643221404
0.001199423018686,17.7523444174237
0.00128054791870507,17.7547798907459
0.00135537479722636,17.7576159434364
0.00144918791375811,17.7612203557775
0.00156418577490455,17.7650127815102
0.00171811076140149,17.7692492652746
0.00189496709845743,17.7735114908743
0.00208622065783553,17.7777849775576
0.00229845147722042,17.7823613335534
0.00253313262869074,17.787360449937
0.00276443154042247,17.7922696398237
0.00299640037506426,17.7971759734003
0.00319429522175988,17.8013187070538
0.00338098738237648,17.8051749762221
0.00356550954427695,17.8089181978427
0.0037527678315287,17.8126324881728
0.00394633341635852,17.8163712791564
0.00414931713751414,17.8201746873282
0.00436473229367386,17.8240760255273
0.00459573686796856,17.8281055839701
0.00484581872734447,17.8322929056157
0.0051189656276633,17.8366681722969
0.005419887735814,17.8412633926517
0.00575438320741121,17.8461137496358
0.00612994074710499,17.8512588771907
0.00653045014951124,17.8564134466972
0.00695227982727831,17.8614917330615
0.00739950600811362,17.8665032385328
0.00787545507841293,17.8714389715306
0.00838537368238741,17.8763037311301
0.00893524781133988,17.8811015535829
0.00953185319488046,17.885835841138
0.0101826256679517,17.8905078431055
0.0109031427879482,17.8951627151667
0.0117142053009212,17.8998492458264
0.0126332421302995,17.904568630433
0.0136856408313489,17.9093426107442
0.0149091287788324,17.9142182968776
0.0163714143785459,17.9193118662147
0.0182412011203788,17.924975600197
0.020663138371803,17.9313857360346
0.0221972704061143,17.9351413270766
0.0237582132279145,17.9388969181186
0.0251172444579102,17.9422717947582
0.0262632801229248,17.9453839300174
0.0272049981404237,17.9483959269369
0.0278876844510449,17.9512635387465
0.0283058139148386,17.9540693782639
0.0284448084062051,17.9569461194963
0.0282442211890157,17.9601083762561
0.0274322610609186,17.9643080656437
0.0265733739410095,17.9671548678207
0.0255155599531774,17.9700016699976
0.024445256984564,17.9725360389319
0.0233775255426969,17.9748802256867
0.0223095318799872,17.9771221669979
0.0212429823574688,17.9793072057036
0.0201812452084052,17.981462299265
0.0191279590798534,17.9836057069347
0.0180866254669476,17.9857509533434
0.0170604977359586,17.9879087330437
0.0160525522056126,17.9900879665105
0.0150654915351565,17.99229643184
0.0141017541066398,17.9945411809119
0.0131635235493299,17.9968288349688
0.0122527425181805,17.9991657962609
0.0113711197635959,18.0015584304288
0.0105201387415701,18.004013220111
0.00970107232663478,18.0065368869865
0.00891498359066384,18.0091365507707
0.00814580299309689,18.0118827645275
0.00739062659436432,18.0148152273204
0.00665317401246936,18.0179560993729
0.00593730560843521,18.0213312835072
0.00524708063135991,18.0249707853467
0.0045867155767626,18.0289094896442
0.00396049916484976,18.0331882551325
0.00337265354579099,18.0378555928077
0.00282712594986614,18.0429705476716
0.00232730550542798,18.0486080665147
0.00187581211124248,18.0548675064515
0.00147939047620452,18.0617876614769
0.00114768825721754,18.0692477008092
0.000924814304552841,18.075669558208
0.000755895011151313,18.0820914156068
0.000585333907961209,18.0911125158185
0.000465665623310468,18.1001879615577
0.000374549726307078,18.1101879615577
0.000314738091348578,18.1201879615577
0.000277802013221493,18.1301879615577
0.000257762181946777,18.1401879615577
0.000250356349817334,18.1501879615577
0.000252704053845741,18.1601879615577
0.000263038043273873,18.1701879615577
0.000280468202701054,18.1801879615577
0.000304813944568762,18.1901879615577
0.000336528333638105,18.2001879615577
0.000376721856960061,18.2101879615577
0.000427298366198905,18.2201879615577
0.000486988369255052,18.2295816274068
0.000555635547666842,18.2382342787253
0.000634172548056127,18.2462004486996
0.000723828820721276,18.2535370340202
0.000826061572766704,18.2602963981071
0.000942549549256622,18.2665266255104
0.00107520803877296,18.272271966088
0.00122621387964716,18.2775732054868
0.00139803799886183,18.2824679728674
0.00159348267844299,18.2869910233874
0.00181572906427446,18.2911745007405
0.00206839230820256,18.295048177435
0.00235559091136665,18.2986396721398
0.00268203228702842,18.3019746664793
0.00305312228318493,18.3050771285274
0.00347510923304458,18.3079695408434
0.00395527542166235,18.3106731491436
0.00450220439316032,18.3132082577305
0.00512616685902224,18.3155945987006
0.0058344093814424,18.3178365639818
0.00661757461630357,18.3199017576142
0.00748584111883932,18.3218255388964
0.00845476784610574,18.3236437560277
0.00954896189260231,18.3253953426289
0.0108130828244465,18.3271323910441
0.0123841901868055,18.3289907164206
0.0147627718199548,18.3313946219832
0.0163247441109163,18.3328086370588
0.017966909317256,18.3342226521345
0.019462097415679,18.3354932959252
0.0207981041168368,18.336659927822
0.0219946626179475,18.3377804994757
0.0230479084764683,18.3388959606784
0.0239370372242411,18.3400460860925
0.0246212122730218,18.3412859180202
0.0250156323364298,18.3427274849839
0.0248067862177917,18.344845930216
0.0241267008747855,18.3463826627932
0.0230989187649604,18.3479193953704
0.0219258614123913,18.3493354243158
0.0206120313532412,18.3507481296741
0.0191659358781024,18.352209610823
0.0175965009560419,18.3537574808052
0.0166073869799888,18.3547342160262
0.0156415022995796,18.3557109512473
0.0143766053311453,18.3570601828066
0.0121067460259513,18.3597352944314
0.0102242430715351,18.3622838567395
0.00868155673439891,18.364683512588
0.00740719391321886,18.3669548225946
0.00634301887610826,18.3691206177404
0.00544250586306535,18.3712065522318
0.00466763341424328,18.3732446214348
0.00398522884703679,18.3752815080544
0.00336054733509931,18.3774041185156
0.002731821984559,18.3798684607194
0.00231911227341775,18.381719778323
0.00195113771581089,18.3835710959266
0.00166209743655454,18.3851894982589
0.00142280767961232,18.38666220017
0.00120797714928574,18.3881066289491
0.00100315989167568,18.3896112497651
0.000794811463459477,18.3912937457676
0.000557327615874099,18.3934387663334
0.000201177720183944,18.3972491858796
-8.41619804957119e-05,18.401026189488
-0.000305780627512647,18.4046145858063
-0.000512706304417729,18.4087289633131
-0.000734532335608661,18.4144336255332
-0.000889292533697414,18.4199486698458
-0.000980213875699693,18.4249391495322
-0.00101476819224227,18.4294168992658
-0.00099523808226323,18.4334286053909
-0.000920910709156593,18.4370209780006
-0.000789476331628444,18.4402485615202
-0.00059697379902062,18.4431738936039
-0.000337369336578866,18.4458598785476
-4.18970490924067e-07,18.4483780792351
0.000433590900689231,18.4508206673307
0.00101050964641043,18.4533420732671
0.00179955287836123,18.4560985005261
0.00258607046385534,18.4584323457184
0.00345573482362472,18.4607661909107
0.00435270825047684,18.4630258190768
0.0055913467097055,18.465974557734
0.0064670045757476,18.46791972938
0.0074184375997707,18.4698649010259
0.0083982862408502,18.4716608573344
0.00946414955391954,18.4733800267382
0.0106373628680225,18.4750215631606
0.0119696362609082,18.4766233148122
0.0134741460476753,18.478168047017
0.0151903178588095,18.479668852817
0.0171297811327758,18.4811122578498
0.0193239011921604,18.4825029820686
0.0218008026513011,18.4838417320384
0.0245892990392424,18.4851289512673
0.0277195567828995,18.4863651589257
0.031232555261367,18.4875539997444
0.0351763513475844,18.4886992506522
0.0396052795864934,18.4898042001513
0.0445831196043936,18.4908722420803
0.050184411610832,18.491906722812
0.056499040056686,18.4929113289762
0.0636337648576226,18.4938897259743
0.071717363361551,18.4948457493778
0.0809070259329555,18.4957835067329
0.0913971267412307,18.4967074958465
0.103432701147773,18.4976228440258
0.117328438178927,18.4985355495062
0.133499373750789,18.499452954326
0.152512193618463,18.5003845415236
0.175149211490312,18.5013422774289
0.201335506085089,18.5023015336269
0.231728993265799,18.5032714515369
0.267201998891539,18.5042651419617
0.309044671578867,18.5053049142346
0.347960170495442,18.5061863271442
0.389196198545253,18.5070677400538
0.42496071625996,18.5078175938245
0.455881042073894,18.5084808338915
0.482963481270371,18.5091011939441
0.506426096885588,18.5097059649325
0.525990877735194,18.5103179441431
0.540870922803012,18.5109635920912
0.549346305002186,18.5116858296011
0.547974643777172,18.5124685555595
0.534858615481485,18.5132765215821
0.508568047180854,18.5141279537316
0.467129589967222,18.5150367571799
0.408744319270344,18.5160046362245
0.360558684627826,18.5166728182244
0.306880450586944,18.5173410002244
0.259678393716729,18.5178907891372
0.219850652888745,18.5183423479329
0.185212690548797,18.518735294486
0.154370791371574,18.5190925824687
0.126519556271535,18.5194277204319
0.101128403366809,18.5197500884528
0.0777834931867087,18.5200676731904
0.0560781732389593,18.5203893606472
0.0354290685037139,18.5207295634153
0.0142047606650879,18.5211311201067
0.00123137447496917,18.5214150311029
-0.0062587458553574,18.5215976648217
-0.0131094058482937,18.5217802985406
-0.019074956799087,18.5219544877141
-0.0251710753186022,18.5221508597759
-0.0311396207878282,18.5223662272494
-0.0367852051949168,18.5225978019053
-0.0419971166953924,18.5228443913524
-0.0467160382269964,18.5231058658466
-0.0509134721347694,18.5233828315022
-0.0545797319207361,18.5236764659569
-0.057711203439133,18.5239884522662
-0.0603534396409822,18.5243277405167
-0.0624024146340887,18.5246809360184
-0.0639535956032049,18.5250604228793
-0.0650222561110725,18.5254704436827
-0.0656213068630578,18.5259161419452
-0.0657603970455396,18.5264040014131
-0.0654439477453369,18.5269423564421
-0.0646670553304769,18.5275430745643
-0.0634103770066132,18.5282223336129
-0.061632968466077,18.5290033010768
-0.0592512036187211,18.5299239159655
-0.0560711574270807,18.531060556653
-0.05191809218045,18.5324859525404
-0.0478685101583083,18.5338609143201
-0.043983398999788,18.5351941388631
-0.0402949937165808,18.5364886958742
-0.036820116800659,18.5377457836542
-0.033567159642786,18.5389656559244
-0.0305390399587439,18.5401481057965
-0.0277346799014778,18.5412927209972
-0.0251499072551188,18.5423990171867
-0.0227781172951273,18.5434665039523
-0.0206108245791694,18.5444947115966
-0.0186381517836323,18.5454831936478
-0.0168492696981538,18.5464315132726
-0.0152327905230419,18.5473392180876
-0.0136780115577915,18.5482667404399
-0.0121845111030906,18.5492182402653
-0.0107563614349843,18.5501956144487
-0.00939742747331106,18.551201105041
-0.00811135631964211,18.5522373543766
-0.00690152615337742,18.5533075058561
-0.00577099303483672,18.55441533775
-0.00472243536042607,18.5555654449569
-0.00375809568265721,18.5567634920548
-0.00287971907438929,18.5580165759752
-0.00208848629330819,18.5593337641139
-0.00138493832418611,18.5607269271004
-0.000768885586559512,18.5622120970022
-0.000239287986382496,18.5638118368845
0.000183372767778998,18.5654580802492
0.000513404624683138,18.5671591115738
0.000766152788631946,18.5689335828896
0.000955807590758015,18.5708054253171
0.00109583676553646,18.5728073607234
0.00119948082272801,18.5749873154613
0.00128056655644488,18.5774225807612
0.0013553348773724,18.5802582861403
0.00144905134324685,18.5838619183316
0.00156395707146686,18.5876542025429
0.00171776722073779,18.5918902183674
0.00189460263146106,18.5961541038021
0.00208567905354091,18.6004255052422
0.00229741582252439,18.6049931135893
0.00253217953559526,18.6099961585789
0.00276336935343228,18.6149050645091
0.00299616267847158,18.6198311748869
0.00319426399129287,18.623979858416
0.00338099546003971,18.627838406858
0.00356548977039008,18.6315824451112
0.00375267993225047,18.635296716739
0.0039461461376705,18.6390349001623
0.0041490022173899,18.6428372314682
0.00436426179633791,18.6467370880519
0.00459508074129231,18.6507647793188
0.00484494349998045,18.6549498486014
0.00511783276214036,18.659322461593
0.00541845107165551,18.6639145952471
0.00575258412367206,18.6687613812697
0.00612770028309037,18.6739023895934
0.00652816596364501,18.6790584918354
0.00694981869473334,18.6841367419907
0.00739689999485513,18.6891488718493
0.00787266297525045,18.694085081369
0.00838236074099915,18.6989503133628
0.00893196745232607,18.7037485443294
0.00952825615887738,18.7084832069295
0.0101786590042707,18.713155568033
0.0108986455139545,18.7178101890074
0.0117090895728995,18.7224965401566
0.0126273712792509,18.7272156454324
0.0136788286912629,18.7319891650962
0.0149010767896313,18.7368639556399
0.0163615259201522,18.7419555004201
0.0182276414037384,18.7476131818376
0.0206495065786913,18.7540276843084
0.0221848047732852,18.7577873743058
0.0237475009194392,18.7615470643032
0.0251082395701807,18.7649247354191
0.0262557632811094,18.7680381474662
0.0271990144477774,18.7710503832281
0.0278836790589636,18.7739188702896
0.02830380747299,18.7767247158625
0.0284450291958054,18.7796003157322
0.0282474543191635,18.7827590555503
0.0274435404750986,18.7869416383068
0.0265858503344056,18.7897947946776
0.0255277403742192,18.7926479510484
0.0244572724456828,18.7951854662426
0.0233895282603906,18.7975311939409
0.0223215314514397,18.7997739768412
0.0212549471059349,18.8019594793706
0.0201931351385278,18.804114794561
0.0191397342959391,18.8062582510529
0.018098248472843,18.8084034134518
0.0170719340484831,18.810561000937
0.0160637704322997,18.8127399497019
0.0150764633120802,18.8149480478799
0.0141124539537336,18.8171923536007
0.0131739287647311,18.8194794915194
0.012262833076237,18.8218158650851
0.0113808781668797,18.8242078394207
0.0105295499591184,18.8266618949149
0.009710123689684,18.829184749457
0.00892366466984644,18.8317835174592
0.00815435190303433,18.834527773193
0.00739900088511028,18.8374580591024
0.00666133245551593,18.8405964876455
0.00594520455981488,18.8439689204395
0.00525467447925352,18.847605313849
0.00459395739539744,18.8515404935932
0.00396734195271393,18.8558152448262
0.00337905218539368,18.8604779811781
0.00283303971164026,18.8655876105857
0.00233270161533226,18.871218864019
0.00188066701685465,18.87747077334
0.00148350497149559,18.8843855528329
0.00115113968685265,18.8918391535862
0.000876921588197376,18.8999420127285
0.000719049919870556,18.9064623288418
0.000560728815420158,18.9154440602711
0.000444865243789335,18.9248476184664
0.000360723643774333,18.9348476184664
0.000306021962563073,18.9448476184664
0.00027289660730939,18.9548476184664
0.000255716075350822,18.9648476184664
0.000250501987851361,18.9748476184664
0.000254615641256799,18.9848476184664
0.000266486345591202,18.9948476184664
0.000285381869012468,19.0048476184664
0.000311257356147603,19.0148476184664
0.000344699966862151,19.0248476184664
0.000386975274422703,19.0348476184664
0.000440156316793881,19.0448415975167
0.000501858292164782,19.0540682246544
0.000572681712391159,19.0625612332184
0.000653655348538117,19.0703807284848
0.00074606471777452,19.0775827580571
0.000851418055669031,19.0842187027768
0.00097144695217839,19.0903357627503
0.0011081244486368,19.0959773909366
0.00126369207357029,19.101183647119
0.00144069359417349,19.1059914985986
0.00164201425607082,19.1104350980356
0.00187093003364296,19.1145460420814
0.00213116597279844,19.1183536056864
0.0024269681184185,19.1218849578963
0.00276319481960949,19.12516538014
0.00314543262818125,19.1282184914077
0.00358014984526894,19.1310664787791
0.00407490312184012,19.1337303551069
0.00463862712673223,19.1362302691142
0.00528205735609993,19.1385858987829
0.00600674242072252,19.1407848178584
0.00680836001707997,19.1428151575991
0.00769815087537114,19.1447123211413
0.0086932650625425,19.1465123943916
0.00982155273411919,19.1482561434822
0.0111358307223304,19.1500018291375
0.0128236290266962,19.1519307712134
0.0146764103774491,19.1537792629996
0.0162688239493693,19.1552261620186
0.0179464705292845,19.1566730610377
0.0194445715647889,19.1579473077181
0.0207808170056807,19.1591149135575
0.021977515520518,19.1602360637802
0.023031015822304,19.1613518588793
0.0239206170718378,19.1625020480272
0.024605650405896,19.1637415144539
0.0250017891921829,19.1651816430359
0.0247997486388102,19.1672908065211
0.0241234701020577,19.1688302315658
0.0230975417218311,19.1703696566105
0.0219262500449798,19.171786491994
0.0206142432040491,19.1731991865197
0.0191699839976007,19.1746601752116
0.0176024334275319,19.1762070977352
0.0166142840478114,19.1771832217324
0.0156488678998936,19.1781593457297
0.0144332522637431,19.1794539280133
0.0121544652241174,19.182131269139
0.010263509516482,19.1846831177508
0.00871404098036325,19.1870856538598
0.00743429331910063,19.1893593868348
0.00636585830070738,19.1915271110614
0.00546199237912226,19.1936144010601
0.00468452382591922,19.1956530646918
0.0040002184148272,19.1976893248941
0.00337447252522113,19.1998086826841
0.00274686069173432,19.2022593959378
0.00232943299468884,19.2041247820707
0.00195757373697087,19.2059901682036
0.00166695018943152,19.2076136275018
0.00142691168547865,19.2090877628987
0.00121166100542204,19.2105319461339
0.00100664615513353,19.2120347148799
0.000798370270982857,19.2137125985353
0.000561694484426712,19.2158440622591
0.000204076910271648,19.2196577248079
-8.4257365497277e-05,19.2234651368386
-0.000308825847114634,19.2270995162316
-0.000518862382033103,19.2312856116945
-0.00074036203372841,19.237007783868
-0.000893988087284173,19.242512187173
-0.000983991812443283,19.2474913070373
-0.00101771978532004,19.251958688674
-0.000997365495986095,19.2559604617687
-0.000922159375351613,19.2595447588494
-0.00078976820856208,19.2627651954043
-0.000596173247108482,19.2656849155679
-0.000335320395066115,19.2683663775313
3.23402235547634e-06,19.2708821321804
0.000439607160752356,19.2733252984467
0.0010206123505788,19.2758523034638
0.00181439093704111,19.2786136937563
0.00260076970488927,19.280940536839
0.00346909059178607,19.2832673799216
0.00436822388517134,19.2855307002933
0.00562287104050275,19.2885136431145
0.00649087715665617,19.2904376397459
0.00743410114337092,19.2923616363773
0.00841637444664483,19.2941577512332
0.0094825199946514,19.2958726778231
0.010658743326866,19.2975136760847
0.0119945159978988,19.2991147282819
0.0135028039807984,19.3006584915454
0.0152233173217106,19.3021583744683
0.0171682767231565,19.3036013428613
0.019367559263813,19.304991015042
0.0218500668591381,19.3063287131647
0.0246447226986993,19.3076149256944
0.0277824742022069,19.3088504470613
0.0313032850092083,19.3100384649708
0.0352557789993671,19.3111829462079
0.0396944728675637,19.3122871890061
0.0446833427915352,19.3133545892933
0.0502972279299508,19.314388506044
0.0566262259437572,19.3153926111137
0.0637774898195429,19.3163705776003
0.0718802696743957,19.3173262457265
0.0810923703232344,19.3182637297563
0.0916089965049175,19.3191875383915
0.103676290117202,19.3201028119929
0.117610532077405,19.3210155710007
0.133829099536283,19.3219331910489
0.152902344262755,19.322865210517
0.175599600898176,19.3238229437047
0.201856950061189,19.3247823513952
0.232335485625027,19.3257526310087
0.267912817623655,19.3267470007743
0.309891232711122,19.3277880573231
0.34866952447457,19.3286651578321
0.389725013161857,19.3295422583412
0.425397359115577,19.3302903042584
0.456257533658752,19.3309527461095
0.483288011920153,19.3315727729732
0.506697909270125,19.3321775328015
0.52620292362736,19.3327898184511
0.541007502917965,19.3334362026667
0.549372034842309,19.3341599989799
0.547842335467835,19.3349429751232
0.534552790899127,19.3357514572298
0.508065222195817,19.3366036223136
0.466400164268228,19.3375133008187
0.407836176111476,19.3384810032347
0.359744699495464,19.3391464519575
0.306223312191175,19.3398119006802
0.259145421253308,19.3403599725199
0.219397143944454,19.3408105935805
0.184813982627932,19.3412029958589
0.154013878253744,19.3415599489127
0.126196511853152,19.3418948845495
0.100833555131834,19.3422171518105
0.0775119620749261,19.3425347332988
0.0558244209180462,19.3428565446388
0.0351831217657616,19.3431971264134
0.0139251388377926,19.3436001593492
0.00125780928412339,19.3438777182672
-0.00623555977430441,19.344060395
-0.0130891372857634,19.3442430717328
-0.0190566354449195,19.344417285578
-0.0251526938004444,19.3446136163243
-0.031121687285336,19.3448289494442
-0.0367680594732074,19.3450604943772
-0.041980950453072,19.3453070557415
-0.0467009540964587,19.3455685017873
-0.0508995187889273,19.3458454371761
-0.0545669247099322,19.3461390383482
-0.0576995467024307,19.3464509872512
-0.0603432214706457,19.3467902734197
-0.0623932390703616,19.347143423423
-0.0639454348654762,19.3475228566183
-0.0650150874533176,19.3479328141567
-0.0656151124436841,19.3483784370677
-0.0657551678425358,19.3488662057102
-0.0654396887126246,19.3494044496464
-0.0646637991829013,19.3500050260719
-0.0634081931367898,19.3506841029153
-0.0616319916761361,19.3514648256544
-0.0592517101397233,19.3523850851682
-0.0560738536713787,19.3535211120406
-0.0519207723932733,19.3549466206788
-0.0478710521465734,19.3563216567508
-0.0439857234340154,19.3576549458462
-0.0402970600108717,19.3589495628081
-0.0368219033232584,19.3602067085855
-0.0335686558169052,19.3614266382669
-0.0305402426464717,19.3626091456514
-0.0277355914517849,19.36375381879
-0.0251505342395976,19.3648601734755
-0.0227784695466346,19.3659277193324
-0.0206109143863688,19.3669559866625
-0.018637993181771,19.3679445289908
-0.0168488778370647,19.3688929095034
-0.0152321811115918,19.3698006758765
-0.0136773505668765,19.370728163977
-0.0121837918065026,19.3716796277598
-0.0107555787649689,19.3726569628747
-0.00939657667599051,19.3736624108591
-0.0081104330466817,19.3746986134
-0.00690052654854278,19.3757687130828
-0.00576991382712643,19.3768764871373
-0.00472127396466591,19.3780265291126
-0.00375685031046719,19.3792245018008
-0.00287838885923268,19.3804774997132
-0.00208707143709552,19.3817945868671
-0.00138344027884349,19.3831876289965
-0.000767307296077029,19.3846726507308
-0.000237634240336926,19.3862722030966
0.000185128448771451,19.3879183806521
0.000515236763412388,19.3896193174346
0.000768038679380263,19.3913936633057
0.000957725412924966,19.3932653391618
0.00109776483415632,19.3952670501129
0.00120139643174989,19.3974466922658
0.00128244380345223,19.3998814946093
0.00135713906384623,19.4027164266851
0.00145071435280625,19.4063183216697
0.00156549506757405,19.4101102931624
0.00171914267296713,19.4143452689727
0.00189585939043358,19.4186089003257
0.00208685869532247,19.4228805177309
0.00229856619750084,19.4274490785122
0.00253324491718958,19.4324516787917
0.00276438274861793,19.4373606098345
0.00299702747804678,19.4422845278486
0.00319506203561422,19.4464325587102
0.00338175122866111,19.4502908607945
0.00356621440281806,19.4540348146016
0.00375338068253421,19.4577490946792
0.00394682882864227,19.461487352525
0.00414967213944081,19.4652898114193
0.00436492414152187,19.4691898420423
0.00459574098106127,19.4732177522231
0.00484560762637816,19.4774030859248
0.00511850758038887,19.4817760114698
0.00541914461980139,19.4863685103997
0.00575330639044643,19.4912157215128
0.00612846434826345,19.4963572236474
0.00652892396541768,19.5015130833045
0.00695059245864256,19.5065913017784
0.00739768942722994,19.5116033169414
0.00787347741621726,19.5165394331166
0.00838320858791783,19.5214045726216
0.00893285872306963,19.526202718944
0.00952920142427774,19.5309373003292
0.0101796696292694,19.5356095812293
0.0108997559796772,19.5402642518986
0.0117103185607065,19.5449506370586
0.0126287478882691,19.5496697976376
0.0136803924037378,19.5544434110912
0.0149028905776593,19.5593183870375
0.0163637149043454,19.5644103538238
0.0182305885356617,19.5700692985262
0.02065245952836,19.5764828856835
0.0221875088726597,19.5802417175112
0.0237498334283985,19.584000549339
0.0251102104340894,19.5873776348098
0.0262574190760928,19.5904907794417
0.0272003524370633,19.5935029652849
0.0278846046882402,19.5963712689761
0.0283043156856311,19.5991771132528
0.0284450717394163,19.6020529519702
0.0282468668026428,19.6052124269553
0.0274412766372859,19.6093985683951
0.0265833358156183,19.6122503934079
0.0255252879741955,19.6151022184207
0.024454854121452,19.6176390759972
0.0233871118660318,19.6199844824945
0.022319114862926,19.6222270905201
0.0212525368732114,19.624412497194
0.0201907395613279,19.6265677672349
0.0191373616576215,19.6287112148222
0.0180959065576055,19.6308563962551
0.0170696300126301,19.6330140256199
0.0160615107871645,19.6351930358877
0.0150742539372012,19.637401213167
0.0141103001267088,19.6396456143684
0.0131718351836701,19.641932863538
0.0122608038815699,19.6442693639996
0.0113789169724761,19.6466614811383
0.0105276598667536,19.6491156959988
0.00970830731183314,19.6516387274915
0.00892192415741701,19.6542376914175
0.008152639599701,19.6569823590422
0.00739732580422303,19.6599131031444
0.00665970340850781,19.6630520461989
0.00594363089335693,19.666425058621
0.00525316598904397,19.6700621073328
0.00459252419939814,19.6739980307682
0.00396599424588413,19.6782736300115
0.00337779984928793,19.6829373398673
0.00283189181913528,19.6880480981819
0.00233166572228916,19.6936806830942
0.00187974895565505,19.6999341980162
0.00148274959152817,19.7068501088494
0.00115053206379476,19.7143050631232
0.00087644792282474,19.7224095725384
0.000719495222074387,19.7288957376509
0.000560738558236101,19.7379012989638
0.000445154649246052,19.7472845016181
0.000360992176118783,19.7572845016181
0.000306286156241913,19.7672845016181
0.000273169959781045,19.7772845016181
0.00025600963320463,19.7872845016181
0.000250825759611297,19.7972845016181
0.00025497994530929,19.8072845016181
0.00026690293939077,19.8172845016181
0.000285865052068794,19.8272845016181
0.000311825322365261,19.8372845016181
0.000345376708543601,19.8472845016181
0.000387793446289701,19.8572845016181
0.00044109764328561,19.8672675402939
0.000502935826381411,19.8764836425798
0.000573913375126933,19.884966934035
0.000655062455868675,19.8927774741355
0.000747671732196822,19.899971253855
0.00085325272890493,19.9065996027048
0.000973540713446473,19.9127096744002
0.00111051289026624,19.9183448796145
0.00126641553186822,19.9235452391555
0.00144379778855711,19.9283476844935
0.00164555108819064,19.9327863354734
0.00187495849425736,19.9368927588394
0.0021357533077562,19.940696202296
0.00243219120767934,19.9442238103751
0.00276914198354441,19.9475008429565
0.00315220596628363,19.9505509006903
0.0035878683188332,19.9533961559075
0.00408370685973858,19.9560576111603
0.00464868356807545,19.9585554106585
0.00529357041331594,19.9609092358777
0.00601948699711161,19.9631054456796
0.0068224990236094,19.9651336644991
0.00771393579183873,19.9670293156183
0.00871108553969969,19.9688285310957
0.0098420871206293,19.9705722677645
0.0111605116494853,19.9723193931074
0.012858572476062,19.9742554470578
0.0146953251071281,19.9760851902005
0.0162862705212234,19.9775301258553
0.0179615012372123,19.9789750615101
0.019456882646923,19.9802477586736
0.0207909514445262,19.9814147497568
0.0219855829021069,19.9825358443362
0.0230368825882516,19.9836520389372
0.0239239502923897,19.9848031600713
0.024605802691576,19.9860444313298
0.0249972202372256,19.9874885425013
0.0247808041867316,19.9896172069895
0.0240969998596073,19.9911524734268
0.0230677204444704,19.9926877398641
0.021893566859288,19.9941038719226
0.0205788916947719,19.9955173025097
0.0191322395651864,19.9969798358544
0.0176021709537706,19.9984899179272
0.0166021775495518,19.9994780355717
0.0160808962505261,20
