ecg,time
0.00028228401950674,15.0040166687545
0.000229619935779742,15.0140166687545
0.000194470087060188,15.0240166687545
0.000171511015800319,15.0340166687545
0.000157045392349709,15.0440166687545
0.000148557430822185,15.0540166687545
0.000144349104237501,15.0640166687545
0.000143275992862428,15.0740166687545
0.000144570324701867,15.0840166687545
0.000147726084998899,15.0940166687545
0.000152423890532726,15.1040166687545
0.000158480907042968,15.1140166687545
0.000165817369942592,15.1240166687545
0.000174434971086221,15.1340166687545
0.000184404282442563,15.1440166687545
0.000195859458753467,15.1540166687545
0.00020899925788815,15.1640166687545
0.000224094172621359,15.1740166687545
0.000241500284178669,15.1840166687545
0.000261681435720538,15.1940166687545
0.000285242669667341,15.2040166687545
0.000312979900765752,15.2140166687545
0.000345954078829564,15.2240166687545
0.000385603682196364,15.2340166687545
0.000433919299497683,15.2440166687545
0.000490491346050666,15.2535227025968
0.000555021830651098,15.2623056395488
0.000628488439695262,15.2704110214308
0.000712095890013452,15.2778912980718
0.000807228144157426,15.2847955530859
0.000915456804868629,15.2911693846405
0.00103856182588857,15.2970551559624
0.00117855805099013,15.3024922294476
0.00133772678349301,15.3075171741615
0.00151865093039217,15.3121639651642
0.00172425751309482,15.3164641774748
0.00195786669975248,15.320447173341
0.00222325239142979,15.3241402785337
0.00252471491910734,15.3275689583387
0.00286717350849445,15.3307570004364
0.00325628438590544,15.3337267052279
0.00369859504289637,15.3364990894823
0.00420175394681957,15.3390941208387
0.00477480338972814,15.341531002362
0.00542860555257719,15.3438285407579
0.00616252979454851,15.3459685305217
0.00697361282850038,15.347945092791
0.00787303577234581,15.3497922794754
0.00887769373933606,15.3515445412488
0.010014787844685,15.3532404961191
0.0113351596632651,15.3549344309977
0.0130259095977095,15.3568020264174
0.0149847079240098,15.3586844559325
0.0166192543509089,15.3601093950154
0.0183444080939212,15.3615343340984
0.0198882869376064,15.3627896183143
0.0212654041515144,15.3639376887397
0.0225001901239368,15.3650389102982
0.0235898986247898,15.3661341493104
0.0245141919458731,15.367262540946
0.0252326587770805,15.3684777110318
0.0256617879209588,15.3698875499318
0.0255027535259299,15.3719346448432
0.0248400061673941,15.3734603086124
0.0238116168065657,15.3749859723816
0.022630763747222,15.3763862691121
0.0213029083875861,15.3777821286399
0.0198364521439339,15.3792265605929
0.0182403920113556,15.3807571733049
0.0172270343201306,15.381728695415
0.0162364756780741,15.3827002175251
0.0149446290588574,15.3840350602859
0.0124558730241547,15.3868846823764
0.0102776657854469,15.3897882734358
0.00856804010410088,15.3924536657304
0.00719478584450408,15.3949433686585
0.00600248470623693,15.3974551745138
0.00495682556529959,15.4000280860754
0.00403765490035467,15.4026859750616
0.00326571065334164,15.4053160893329
0.0026417475565985,15.4078079560288
0.00212799850795158,15.4101922107409
0.00169509202940397,15.4125107666248
0.00131974504503547,15.414820453704
0.000980878296554362,15.4172148819904
0.000649458074701807,15.4199247251741
0.00040621016659019,15.4222102894652
0.00019095854158441,15.4244958537564
2.8320934901392e-05,15.4264209148886
-0.000103802305419637,15.4281323324825
-0.000221763427940331,15.4297880544053
-0.00033407264221404,15.4314905818786
-0.000448144392854818,15.4333609170311
-0.00057651552483744,15.4356567778334
-0.000797885800978913,15.4401670034413
-0.000978162455601672,15.4444604138182
-0.00111242153848819,15.4481010059675
-0.00123826973100775,15.4519351992785
-0.00137853891890452,15.4568506840464
-0.00150379368868187,15.462288486797
-0.00157766243435349,15.4670721401449
-0.00159912402354138,15.4713980675857
-0.00156108751065973,15.475287956739
-0.00145669342685469,15.4787904456131
-0.00127910439884587,15.4819648728215
-0.00102078324452172,15.4848735878189
-0.000671975238928367,15.4875808531766
-0.000218016798327224,15.490154577494
0.000366109778004771,15.4926742031369
0.00112684803982829,15.4952456026607
0.00217455647073354,15.4980755812297
0.00357350367606507,15.5011566356218
0.00532352778858327,15.5043781476319
0.00661505300776638,15.5064514983126
0.00806080128516481,15.5085248489933
0.00954860728009217,15.5104166813122
0.0111153501584125,15.5121745979721
0.0127439131999364,15.5137791061328
0.0145343516617944,15.5153215134083
0.0164973340022812,15.5167923050912
0.0186737776789986,15.5182054272046
0.0211013935932881,15.5195673413446
0.0238052122804953,15.5208755557685
0.0268295074639875,15.5221363306572
0.0302140618015999,15.5233513398031
0.0340016995214029,15.5245220991308
0.0382494065795084,15.5256527922747
0.0430189588616658,15.5267464141266
0.0483828353886901,15.5278061932812
0.0544249236097986,15.5288352534417
0.0612497990656584,15.5298376472005
0.0689816108482346,15.5308173015656
0.0777722803159338,15.5317784918481
0.0878108432591725,15.5327260067961
0.0993367989478821,15.5336653526916
0.112662033406525,15.534603191811
0.128205703601442,15.5355479602791
0.146555020061236,15.5365109682464
0.168267936421014,15.5374953451582
0.193425821554286,15.5384842197225
0.222703527212292,15.5394886018862
0.257018088643582,15.540524454813
0.297772380971297,15.5416192090054
0.334580549463631,15.5425247818719
0.373373019890295,15.5434303547384
0.407448647824812,15.5442135551974
0.437078635285156,15.5449119746967
0.462987951894144,15.5455656405991
0.485303769116209,15.5462009435711
0.503724125777892,15.5468399780483
0.51748429121805,15.5475072592597
0.525014242673778,15.5482390282908
0.523244630912761,15.5490440027299
0.510114309362976,15.549868262691
0.484302918371027,15.5507281971407
0.444076129278749,15.5516358589319
0.38749591894021,15.5525998143575
0.342848958801655,15.5532379514257
0.293382976612062,15.5538760884939
0.249348306027514,15.5544095449453
0.211650426455013,15.5548547965651
0.178557193125697,15.5552461774511
0.148926671642829,15.555604193793
0.12207304580379,15.5559413614559
0.0975287815291562,15.5562666442172
0.0749171849264342,15.5565878890415
0.0538541382515511,15.5569140757739
0.033763517888578,15.5572602213268
0.012935429774457,15.5576731165615
0.0013564207026406,15.5579377718386
-0.00602848457147795,15.5581249051643
-0.0127778233068867,15.55831203849
-0.0186478130931012,15.5584904368757
-0.024653818548156,15.5586920047469
-0.0305158060419594,15.5589126449689
-0.0360471862615468,15.5591496026227
-0.0411434334445695,15.559401744155
-0.045749028219248,15.5596689939482
-0.0498377343214023,15.5599520094406
-0.0533964923786818,15.5602520198183
-0.0565069805013646,15.5605814023521
-0.0589652247392819,15.5609189518312
-0.0609175384117337,15.5612799351207
-0.0623795183605613,15.5616679425193
-0.0633652112723969,15.5620872068406
-0.0638869154041922,15.5625429888798
-0.0639535832860262,15.5630419182336
-0.0635688677342517,15.563592514159
-0.0627265425409833,15.5642071539818
-0.0614062428109232,15.5649022477527
-0.0595656936482755,15.5657016091857
-0.0571188856037321,15.5666444674962
-0.05386462445492,15.567810867297
-0.0497782878952524,15.5692238913248
-0.0458072885968616,15.5705873068347
-0.0420085860229331,15.5719084444386
-0.0384109364941985,15.5731903377702
-0.035029043038206,15.5744342072504
-0.0318697224320327,15.5756403546395
-0.0289345991577766,15.5768086310958
-0.0262215025156593,15.5779386834904
-0.0237253462106322,15.5790300825154
-0.0214387853018338,15.5800823852275
-0.0193527645955641,15.5810951592293
-0.0174570005556867,15.5820679829934
-0.0157404100209947,15.5830004302788
-0.0141540577272325,15.5839142640888
-0.0126259363851288,15.5848513842136
-0.0111608084446599,15.585813187367
-0.00976264497568568,15.5868017192555
-0.0084352325681081,15.5878193744307
-0.00718211905155136,15.5888689850577
-0.00600656192938111,15.5899539335498
-0.00491147442729995,15.5910783036109
-0.00389936912681562,15.5922470873449
-0.002972298728005,15.5934664768083
-0.00213179282980441,15.5947442874132
-0.00137878846144014,15.5960905962436
-0.000713549946954704,15.5975187495715
-0.000135569320951706,15.5990470477477
0.000348190019550154,15.600669645204
0.000728921042640291,15.6023358353157
0.00102345315980424,15.6040639275461
0.00124658968827856,15.6058742383868
0.00141219795935179,15.6077937086826
0.00153361097695117,15.6098601086693
0.00162422332759662,15.6121306861443
0.00169858954695794,15.6147026443888
0.00177532838542043,15.617776064421
0.00187661166591968,15.6215093440384
0.00200559231331653,15.6254305145791
0.00215893003177175,15.6293572107572
0.0023260519755618,15.6331710727288
0.00250364666415854,15.6369543220783
0.00268955847172994,15.6407628857799
0.00288293945597945,15.6446383649995
0.00308414692240611,15.6486154687637
0.00329453891287449,15.6527258025044
0.00351626954046202,15.6570001195798
0.00375212771391422,15.6614699026586
0.00400546837450626,15.6661687430467
0.00428030544450876,15.6711338031954
0.0045816320782565,15.6764070921319
0.00491331738781558,15.6819908815324
0.00524874553733638,15.6873791575143
0.00559883125041726,15.6927153870941
0.00596271775142458,15.6979393664698
0.00634512242145084,15.7030752959606
0.00674977332887879,15.7081276427281
0.00718116162724303,15.713106610204
0.0076438868789779,15.7180181416081
0.008142901855145,15.7228661956153
0.00868355323708163,15.7276523183354
0.00927171207067533,15.7323762359324
0.00991388413267922,15.7370362489373
0.010618398089318,15.7416364256148
0.0114108621090978,15.7462688231997
0.012305485916816,15.7509222466615
0.0133248495637333,15.7556131504917
0.0145006372292802,15.7603736590012
0.0158853955333639,15.7652815082192
0.0175903423902599,15.7705456425389
0.020025888973666,15.7770474517022
0.0216938737315011,15.7810695298323
0.0234322517452302,15.7850916079624
0.0249407635300509,15.7886053250084
0.0262113984335249,15.7917531146219
0.0272740793267519,15.7947377640274
0.0280998609771372,15.7976093000433
0.0286577505205044,15.8003704898191
0.0289445123857613,15.8031404556072
0.0289257210421296,15.8060782937801
0.0284756380338764,15.809549273002
0.0276899019621629,15.8127307066942
0.0266051435671316,15.8159121403864
0.0255214608214796,15.8185649998811
0.024451118397837,15.820935973203
0.0233804271268721,15.8231707521364
0.02230847225786,15.8253316431297
0.0212382173432809,15.8274517981737
0.0201733608415199,15.8295523718378
0.0191175651893203,15.8316484396388
0.0180742590358787,15.8337515862653
0.0170465891586727,15.8358712500797
0.0160374167043432,15.8380155058758
0.0150493289430024,15.8401915566026
0.014084650408861,15.8424060754437
0.013145457088591,15.8446654503516
0.0122335893161351,15.8469759752869
0.0113506576037082,15.84934402664
0.0104980592271077,15.8517761955325
0.00967698292698107,15.8542794451818
0.00888156808564639,15.8568845509872
0.00809708102312005,15.8596627609334
0.00732730086130407,15.8626339689238
0.0065760285251551,15.8658219714068
0.00584731109818008,15.8692543066706
0.00514541329329842,15.8729629683668
0.00447476690720389,15.8769852844423
0.00383987957344104,15.8813651088054
0.00324517163718234,15.8861547394111
0.00269471754538329,15.8914184380968
0.00219192732482148,15.8972388661931
0.00173930869698124,15.9037275910265
0.00135452392151458,15.9107089924652
0.00104015793398871,15.9182456131545
0.000803797704244912,15.9261798215401
0.000627204965339265,15.9342341252001
0.000475893640518616,15.9436163996496
0.000362123519297214,15.9536163996496
0.000283764653536683,15.9636163996496
0.000230560140186638,15.9736163996496
0.000195028706694114,15.9836163996496
0.000171805451455456,15.9936163996496
0.000157155931474387,16.0036163996496
0.0001485369454668,16.0136163996496
0.000144232305214332,16.0236163996496
0.000143085931382276,16.0336163996496
0.00014432233021011,16.0436163996496
0.000147430071059873,16.0536163996496
0.000152085777415846,16.0636163996496
0.000158103561857453,16.0736163996496
0.000165401233335643,16.0836163996496
0.000173978439220024,16.0936163996496
0.000183903880546249,16.1036163996496
0.000195309828959582,16.1136163996496
0.00020839296901477,16.1236163996496
0.000223421338738951,16.1336163996496
0.000240747951568571,16.1436163996496
0.000260832661229495,16.1536163996496
0.000284275160002914,16.1636163996496
0.000311863997858672,16.1736163996496
0.000344649735430701,16.1836163996496
0.000384055826335158,16.1936163996496
0.000432050541866084,16.2036163996496
0.000488384148684626,16.2131486423713
0.000552651825256713,16.2219567289762
0.000625820771794142,16.2300852857618
0.00070908970360318,16.2375868755841
0.000803836754085015,16.2445107226054
0.000911627244662231,16.2509025549402
0.00103423410919927,16.256804855273
0.00117366426403885,16.2622570963086
0.00133219003180783,16.2672959491685
0.00151238416088301,16.2719554830865
0.00171716207302134,16.276267359752
0.00194983066543709,16.2802610211264
0.00221414853983035,16.2839638661514
0.00251439817133733,16.2874014267056
0.00285547777889656,16.2905975503711
0.00324301843351778,16.2935745907081
0.00368353701715069,16.2963536103676
0.0041846439232331,16.2989546145383
0.00475533273830942,16.3013968338414
0.00540640122982805,16.3036990894294
0.00613803478408481,16.3058453683534
0.00694655670274692,16.3078271271141
0.00784300842200425,16.309678430679
0.00884407739280021,16.3114337192254
0.00997654188404622,16.3131314054541
0.0112901788216935,16.3148250411828
0.0129651713711733,16.3166844846836
0.0149514023992162,16.3186000003391
0.0165858667794856,16.320027543066
0.0183120136134879,16.3214550857929
0.019858392035161,16.3227131468496
0.0212373834336654,16.3238627185659
0.0224739366918989,16.3249646573456
0.0235656358115991,16.3260599932292
0.0244924160204998,16.327187780887
0.0252142931532439,16.328401227047
0.0256489376217816,16.3298065946345
0.0255073859793441,16.3318307362328
0.0248545345503281,16.3333629862604
0.0238303722759831,16.3348952362879
0.0226534580459088,16.336297052064
0.0213295391438048,16.3376924374453
0.0198668593596985,16.3391353107627
0.0182744866132903,16.3406633728749
0.0172623864001511,16.3416337503074
0.0162718229526115,16.34260412774
0.0150925954656095,16.3438171763198
0.0126193649758018,16.3466236698081
0.0104067001987136,16.3495424052188
0.00867012277997713,16.3522223344161
0.00727797506673258,16.3547216045578
0.00607518668557276,16.3572307138562
0.00502070843592922,16.359798994204
0.00409386931775957,16.362450757029
0.00331265415868944,16.3650840263139
0.00268136458150509,16.3675787898383
0.00216186777482839,16.3699650915834
0.00172443718514437,16.3722844648527
0.00134551664123051,16.3745932518666
0.0010038171424497,16.3769842494622
0.000670275481212441,16.3796848402204
0.000423813417413092,16.3819787839896
0.000205900038356612,16.3842727277588
4.17386324767008e-05,16.3862004310118
-9.14221040166179e-05,16.3879123713662
-0.000210210880478275,16.3895678199348
-0.00032322302009822,16.3912693730794
-0.000437905708213113,16.3931376199283
-0.000566765525541109,16.3954282230849
-0.000786494461834359,16.3998765093308
-0.000964115695116445,16.4040741527824
-0.00109601987938809,16.4076169443728
-0.00121993278745334,16.4113486354912
-0.00135717117700341,16.4160806788957
-0.00148783337069266,16.4216083393996
-0.00156607768349123,16.4264345816957
-0.00159262491642727,16.4308054948697
-0.00156042029558602,16.4347342617088
-0.00146260819773385,16.4382724096366
-0.00129245870637147,16.4414753631247
-0.00104252426566946,16.4444066986856
-0.000703296655487628,16.447130648113
-0.000260657780921379,16.4497146647592
0.000309431929984426,16.4522376588843
0.00105042194011429,16.4548004566883
0.00206357261818836,16.4575959623375
0.0034298784293183,16.460663167936
0.00514702760294789,16.4638778469153
0.0064434822265032,16.4659917867906
0.00789613619588464,16.468105726666
0.00937851655539365,16.4700179779238
0.0109362392800771,16.4717918092713
0.01254901247828,16.4734053108608
0.0143197199904945,16.4749551742218
0.0162594449527418,16.4764325064092
0.0184096257296179,16.4778520517256
0.0208066164331684,16.4792196737427
0.0234766529612491,16.4805336844787
0.026462794839806,16.4817999403438
0.0298029599098373,16.4830196358767
0.0335418546560927,16.4841951976655
0.037734339473065,16.4853303279679
0.0424410404315776,16.4864279915447
0.0477324273599153,16.4874912747619
0.0536918874051519,16.4885235212068
0.060421423491458,16.4895286691025
0.0680423707794924,16.490510602411
0.0767030081398735,16.4914735469951
0.0865874639985732,16.4924222200769
0.0979279323323521,16.493361983625
0.11102712005594,16.4942993994025
0.126288853650251,16.4952426194555
0.14427579089302,16.4962025096269
0.165632024744291,16.4971867265973
0.190366548864455,16.4981743417851
0.219132926282202,16.4991759436351
0.252812243934314,16.5002067064759
0.292725115884452,16.5012920047674
0.33894669075255,16.5024302306338
0.379034665917687,16.5033614701733
0.412498903398461,16.504130976113
0.44153462899568,16.5048200827622
0.466896120456785,16.5054690552876
0.488642908251125,16.5061032382466
0.506409152862538,16.5067446896123
0.519337794276571,16.5074189883452
0.525659351516587,16.5081658394155
0.522200233472375,16.5089724437824
0.507203533292698,16.5098011281132
0.479275937696448,16.5106677241937
0.436632778912735,16.51158359562
0.377320018880245,16.51255729474
0.333571466354132,16.5131666667561
0.285630519559982,16.5137760387723
0.242869700938056,16.51429052108
0.206028434957944,16.5147248927443
0.173551902149749,16.515109694989
0.144404457030995,16.5154635646963
0.117948449566321,16.5157982070477
0.0937377427456691,16.5161222645
0.0714012541317049,16.5164435953349
0.0505411809863523,16.516771680439
0.0305084841155563,16.5171236495843
0.0090046266775568,16.5175625103976
-0.000178807605716918,16.5177782370717
-0.00848925600487124,16.5179939637459
-0.0149564565900802,16.5181790970572
-0.0209282294405691,16.5183670984364
-0.0269099956313742,16.5185763198228
-0.0326643056255817,16.5188033185056
-0.0380408798762686,16.5190460482725
-0.0429568072053251,16.5193038291291
-0.0473694090989198,16.5195768903707
-0.0512602336936743,16.5198661183652
-0.054712592459033,16.5201828491278
-0.0574953257948069,16.520506982962
-0.0597635287366934,16.5208527331158
-0.0615323198172456,16.5212232681065
-0.0628160641686805,16.5216222952546
-0.0636283327953674,16.5220543967367
-0.0639803830021467,16.5225252948152
-0.0638794572105131,16.5230422476804
-0.063326377379862,16.5236148450175
-0.0623098830635364,16.5242571139011
-0.0608029577610653,16.5249875311919
-0.0587508251491817,16.5258342985627
-0.0560386579829722,16.526846841484
-0.0523642471853341,16.5281409799993
-0.0483128719311956,16.5295336353637
-0.044400125147715,16.5308810265022
-0.0406724943363054,16.5321875658106
-0.0371524961938772,16.5334554636681
-0.0338514856218893,16.5346855269346
-0.0307741590428182,16.5358778517812
-0.0279206260846568,16.5370321931182
-0.0252875623100839,16.538148158879
-0.0228689858186735,16.5392253096528
-0.0206568663347233,16.5402632048337
-0.0186416463192853,16.5412614167907
-0.0168127026574779,16.542219524664
-0.0151587568825123,16.5431370941619
-0.0135930141621811,16.5440593101783
-0.0120873929465601,16.5450052179488
-0.0106462317549149,16.5459765196471
-0.00927344100410835,16.5469753790261
-0.00797272596707758,16.5480043391555
-0.0067475346254942,16.5490664181857
-0.00560100522196638,16.5501652344175
-0.00453591144859055,16.5513051753118
-0.00355460511084302,16.5524916313561
-0.00265895561117989,16.5537313288362
-0.00185028479533248,16.5550328193364
-0.00112929426330188,16.5564072293192
-0.000495979497233373,16.5578694665275
5.04806396307033e-05,16.5594402886741
0.000494580078594207,16.5610766894922
0.000842124652519281,16.5627633990668
0.00110899373173605,16.5645188152015
0.00130961138202824,16.5663653410461
0.0014575957111312,16.5683332170196
0.00156621752167454,16.5704659399568
0.00164911955979892,16.572831846636
0.00172180716440909,16.5755537726127
0.00180634695929293,16.578914578042
0.00191499861239238,16.5826687427199
0.0020582396401555,16.586734713372
0.00221729695322614,16.590609482813
0.00238868761103106,16.5944040886517
0.00256956539337207,16.5981912428679
0.00275826697909612,16.6020203153948
0.00295441996968553,16.6059297386956
0.00315878385736575,16.6099527507697
0.0033730369114875,16.6141204187549
0.00359958492998524,16.6184636082444
0.0038414263552394,16.6230144166269
0.00410213655700784,16.6278075963633
0.00438603581033573,16.6328819632756
0.00469862132753588,16.6382816866416
0.00503125474258784,16.6437936226579
0.00537180761625796,16.6491681869858
0.00572634512346671,16.6544630180318
0.00609637678175453,16.6596550240132
0.00648618259725205,16.6647599011097
0.00689982716689951,16.6697852829524
0.00734181747083666,16.6747396435133
0.0078168744826901,16.6796282933485
0.00833007466362807,16.684454254891
0.00888693757351304,16.6892183828437
0.00949354572415934,16.6939198372313
0.0101566594347969,16.6985565422549
0.0108909993414161,16.7031685425933
0.0117178308248964,16.7078073471443
0.0126541554329952,16.7124719676598
0.013725081954875,16.7171824919611
0.0149678335205802,16.7219829216136
0.0164486413418551,16.7269814548012
0.0183284742210695,16.7324986566587
0.0207996250734514,16.7388215914363
0.0223837610828941,16.7425540687306
0.0240032197935558,16.7462865460249
0.0254172400328691,16.749631620832
0.0266125528528806,16.7527025069093
0.0276012088233148,16.7556641179855
0.0283301996446018,16.7584832033173
0.0287924837540604,16.7612328866494
0.0289761850550706,16.7640403095128
0.0288271340375522,16.7671027702323
0.0281170660024248,16.7710465353662
0.0272795819966327,16.773906913479
0.0262223004798086,16.7767672915918
0.025150670113872,16.7792849285826
0.0240812451031095,16.7815975758892
0.0230099353918877,16.7838018048151
0.0219381737459818,16.7859456649345
0.0208693653734607,16.7880570464897
0.01980723929552,16.7901545751512
0.0187553885381398,16.7922519122202
0.0177171461281712,16.7943597864874
0.016695559893962,16.7964870944287
0.0156933946939398,16.7986415642018
0.0147131452088537,16.8008301840917
0.0137570496398364,16.8030595022762
0.0128270997426777,16.8053358583132
0.0119250566165898,16.8076655544063
0.0110524562558643,16.8100550246255
0.0102106205410585,16.8125109794949
0.00940067248390469,16.8150405343277
0.00860862360700008,16.8177034787327
0.00782881267457931,16.8205459960825
0.00706499481657837,16.8235893629725
0.00632105786002018,16.826858600584
0.00560112995433558,16.8303826937931
0.00490953885855714,16.8341953816271
0.00425075627708649,16.8383360904504
0.00362928474012243,16.8428513078887
0.00304945571630622,16.8477969794595
0.00251515347259116,16.8532427822751
0.00202948635977038,16.8592800397211
0.00159961601826358,16.8659466770063
0.00123720296726265,16.8731073252992
0.000945384991557034,16.8809723665825
0.000755114110987516,16.8880531683513
0.00057516588010141,16.8969897993164
0.000440377501504958,16.9062498544562
0.000337583587681866,16.9162498544562
0.000267036767054885,16.9262498544562
0.000219348524785122,16.9362498544562
0.00018767091930405,16.9462498544562
0.00016713074416602,16.9562498544562
0.000154361175762099,16.9662498544562
0.000147078900813112,16.9762498544562
0.000143744944325944,16.9862498544562
0.000143323218279649,16.9962498544562
0.000145120750626094,17.0062498544562
0.000148684319362913,17.0162498544562
0.000153732713374159,17.0262498544562
0.000160111488600139,17.0362498544562
0.000167762852633519,17.0462498544562
0.000176706540869059,17.0562498544562
0.000187029189075107,17.0662498544562
0.000198880668379508,17.0762498544562
0.00021247661285945,17.0862498544562
0.000228107127249729,17.0962498544562
0.000246152507517033,17.1062498544562
0.000267107861720319,17.1162498544562
0.000291619995614684,17.1262498544562
0.000320542198463291,17.1362498544562
0.000355016291040175,17.1462498544562
0.000396597710087483,17.1562498544562
0.000447450897791169,17.1662498544562
0.00050598146511373,17.1755733092867
0.000572677494279614,17.1841805638911
0.000648595968105684,17.1921236329325
0.000734988494334461,17.1994542821639
0.000833285648926174,17.2062207020572
0.000945109769701733,17.2124676563042
0.00107229767177205,17.2182367345167
0.00121692854497989,17.2235665793529
0.00138135665374298,17.2284930902348
0.00156824776366023,17.2330496215318
0.00178062362632109,17.2372671754361
0.00202191332434006,17.2411745864442
0.00229601661885164,17.2447986963324
0.00260738135945532,17.2481645316072
0.00296110119000966,17.2512954884964
0.00336304210321388,17.2542135254346
0.00382000850607821,17.256939372907
0.00433997056011671,17.259492778745
0.00493238532378547,17.2618928096169
0.00560866892969918,17.2641582500965
0.00636146008594344,17.2662536579654
0.00719380892948172,17.2681942277102
0.00811817420147319,17.2700141272634
0.00915344010531511,17.2717482853345
0.0103309787429837,17.2734377570864
0.0117175016840554,17.2751505752812
0.013564426996541,17.2771128853221
0.0153196375711054,17.2787538508926
0.0172365651659071,17.2803948164631
0.0189377712469119,17.281785796332
0.0204162249686695,17.2829937756398
0.0217390714909391,17.2841190326884
0.0229209279885264,17.2852137784652
0.0239520601415225,17.2863165659718
0.024805628191059,17.2874696416118
0.0254299112084488,17.288739160971
0.0257052051465963,17.2902857483517
0.0253650227886067,17.2921025486636
0.0244108625335165,17.2939193489754
0.0232963497008806,17.2953894781759
0.0220463651153893,17.2967814360353
0.0206544925073469,17.2981945675691
0.0191286686154276,17.299673440798
0.0174759313015329,17.3012558367041
0.0160638461553856,17.3026412348884
0.014735655400909,17.3040266330726
0.0122336754993207,17.3069281592319
0.0101025221507589,17.3098107722864
0.00842915681100537,17.3124568241694
0.00707744639996482,17.3149417031756
0.00589980852187136,17.3174579570115
0.00486662310322035,17.32003778062
0.00395831337952632,17.3227047136551
0.00320271350897651,17.3253183105392
0.00259086350156354,17.3277965059621
0.00208591159861663,17.3301712285343
0.00165923210186824,17.3324855885623
0.00128795116921942,17.3347988524789
0.000950755614068073,17.3372121893457
0.000615581545847264,17.3399939731364
0.000385144695085462,17.3421899382753
0.000180169175266889,17.3443859034142
2.12678597820845e-05,17.3462770168471
-0.000109541728901095,17.3479785474981
-0.000227056105263161,17.3496343502853
-0.000339493736473327,17.3513455289571
-0.000454411461220861,17.3532381645003
-0.000585447838300194,17.3555957579778
-0.000804545559597962,17.3600889653395
-0.000977267508819211,17.364216024541
-0.00110707967736904,17.3677315717386
-0.00123098261731094,17.3714912727939
-0.00136932413705971,17.3763060437615
-0.00149705793233958,17.3817871368489
-0.00157286487211267,17.3865897448757
-0.00159656926566879,17.3909359068993
-0.00156110145615902,17.3948421091285
-0.00145957452279844,17.3983608776712
-0.00128527349545357,17.4015471423394
-0.00103065725486443,17.4044654251212
-0.000685955053831454,17.4071806360976
-0.000236569791289957,17.4097606294443
0.000342583698885856,17.4122857500976
0.001095902232338,17.4148558699208
0.00213040587225851,17.4176739003208
0.00351639965079363,17.4207494791253
0.00525356700368187,17.4239686326464
0.00655026520659994,17.4260628754617
0.00800259296724214,17.4281571182769
0.00948236166829769,17.4300488184854
0.0110438448876548,17.4318110454483
0.0126635225981051,17.4334168383565
0.0144431702318344,17.4349601980745
0.0163985429095676,17.4364353713946
0.0185638770269737,17.4378510260612
0.0209786412804647,17.4392152344932
0.0236684430846448,17.4405258571266
0.0266768925676041,17.4417888983253
0.0300431122372273,17.4430058786615
0.0338105500555445,17.4441786299965
0.0380353527724834,17.4453111584401
0.0427788199500737,17.4464064489685
0.0481128203829948,17.4474677148075
0.0541206050729488,17.4484980848162
0.0609058993451168,17.4495016110874
0.068591669032813,17.4504822009246
0.0773283152551288,17.4514441089682
0.0873028233575732,17.4523920940552
0.0987515867254792,17.4533315982728
0.111982735539062,17.4542692488323
0.127408952771144,17.455213359033
0.145607111627891,17.4561750515424
0.167171572215439,17.4571593485042
0.192153170388187,17.4581476838842
0.221217810046224,17.4591508898886
0.255267302662997,17.4601845937878
0.29566929164156,17.4612753427265
0.342211284234805,17.4624154275874
0.381719472013195,17.4633314254524
0.414783257937627,17.4640928255333
0.443515559366156,17.4647778958025
0.468596778883021,17.4654250818774
0.490049678082226,17.4660591865222
0.507476125990488,17.4667022937567
0.519970686540169,17.4673805675036
0.525655659107227,17.4681355953092
0.521336740632545,17.4689433844691
0.505390911327935,17.4697745751076
0.47638999793809,17.4706446853319
0.432528523563318,17.4715647265899
0.371846965681932,17.4725433685609
0.32859582964411,17.4731385095051
0.281454365921388,17.4737336504492
0.239361173318675,17.4742386584023
0.202976875891846,17.4746675376697
0.170834607111274,17.4750490043664
0.14195138673911,17.4754007858585
0.115713825999443,17.4757341893895
0.0916865801080459,17.4760577055613
0.0695008816352477,17.4763792219264
0.0487497614882625,17.4767085439512
0.0287359669273426,17.4770641925496
0.00669502484630676,17.4775220370935
-0.00158172207420317,17.4777203870661
-0.00912582310202832,17.4779187370386
-0.015477273071455,17.4781021147563
-0.021461591842425,17.4782922031839
-0.0274311842818773,17.4785031651201
-0.0331561590618842,17.478731650193
-0.0384937650837999,17.4789757594961
-0.0433656009654983,17.4792349094431
-0.0477316814644532,17.479509395804
-0.051575194103364,17.4798001564511
-0.0550673507463316,17.4801281293121
-0.0577883131370571,17.4804549053331
-0.0599951932990086,17.4808035069159
-0.0617044033753293,17.4811773007324
-0.0629303040610699,17.4815800906944
-0.0636862674983214,17.4820165806923
-0.0639831606981356,17.4824926541472
-0.0638276063506517,17.4830157907189
-0.0632192438209119,17.4835960705422
-0.0621452078449057,17.4842479120106
-0.0605759833156394,17.4849906648996
-0.0584519590900979,17.4858542352093
-0.0556463362539203,17.4868922935981
-0.0518078696001122,17.4882380356826
-0.0477713491753996,17.489624095543
-0.0438817515519746,17.4909657502468
-0.040181251364582,17.4922669732758
-0.0366904291304644,17.4935297251987
-0.033419556951406,17.494754685659
-0.0303726192876488,17.4959418883433
-0.0275492055779946,17.4970910597613
-0.0249455914285596,17.4982017972062
-0.0225554845317674,17.4992736593459
-0.0203706188786556,17.5003062070885
-0.018381266847206,17.5012990144731
-0.0165766937058627,17.5022516602857
-0.014945561059497,17.5031637062715
-0.0133874742374256,17.5040890242356
-0.0118901881156577,17.5050381903322
-0.0104578907605297,17.5060130189324
-0.00909446890702267,17.5070157191084
-0.00780359660623526,17.5080488910094
-0.00658868379515798,17.5091156244706
-0.00545282352977054,17.5102196290259
-0.00439873685797575,17.5113654101095
-0.00342871511237544,17.5125585137153
-0.00254455888559809,17.5138058759478
-0.00174751208597531,17.5151163397255
-0.00103818790825381,17.5165014507665
-0.000416480536544277,17.5179767483462
0.000118550057919648,17.5195640003453
0.000548587491396551,17.5212060082637
0.000884381193498967,17.5229008695743
0.00114150119753508,17.5246671119124
0.00133424232343975,17.5265279959535
0.00147614559311725,17.5285151474305
0.00158048114988887,17.5306745221103
0.00166102672588767,17.5330793856568
0.00173375852856278,17.5358646628469
0.00182260062158119,17.5393575163912
0.00193491999183904,17.5431310853388
0.00208030578930371,17.5471599258296
0.00224117156221168,17.5510180294795
0.00241396612081585,17.5548080568801
0.00259596651213162,17.558598298833
0.00278568242797454,17.5624361348364
0.00298290205661761,17.5663590387573
0.00318851894222648,17.5703998107742
0.00340431878011484,17.5745893908868
0.00363279353052335,17.5789587340128
0.00387701806275713,17.5835402090037
0.0041406558704773,17.5883690412023
0.00442815640796574,17.5934846854608
0.00474523190258969,17.5989321385751
0.00507830081341186,17.604414926147
0.00542094640450301,17.6097828037519
0.00577739475942305,17.615061575535
0.00615000863174619,17.6202411786568
0.00654290947456357,17.6253342319464
0.0069602736719473,17.630349243236
0.00740662275554411,17.6352940791769
0.00788672761629095,17.6401737760022
0.008405719900321,17.6449910169051
0.00896919258871525,17.6497463995819
0.00958331684052604,17.6544388795243
0.0102549589835498,17.6590662569345
0.011001524761797,17.6636829289146
0.0118424984613587,17.6683245300949
0.0127960590002709,17.6729941312416
0.0138884945236852,17.6777137520812
0.0151596821182582,17.6825331716981
0.0166828884609952,17.6875763103861
0.0186485782909738,17.6932299538375
0.0205956235083857,17.6981899641893
0.0222172366459172,17.7020306122147
0.0238831819058085,17.7058712602401
0.0253179649080776,17.709252099435
0.0265292550528962,17.7123376716089
0.0275339205208663,17.7153028402001
0.0282836892674884,17.7181318594601
0.0287667328656543,17.7208826904608
0.0289731795525195,17.7236801862303
0.0288538176027209,17.726711404343
0.0282109421788861,17.7305238987555
0.0273854543442458,17.7334501911891
0.0263241256669513,17.7363764836228
0.0252505128729314,17.7389246054354
0.0241810259155333,17.7412513957205
0.0231098641206786,17.7434632198011
0.0220379987712804,17.745611309284
0.0209687455581888,17.7477248152085
0.0199058311383127,17.7498229894254
0.0188528689249104,17.7519198478375
0.0178132179780288,17.7540263356568
0.016789952434592,17.7561514873551
0.0157858634053068,17.7583031178712
0.0148034696379473,17.7604882708793
0.0138450330671074,17.7627135238511
0.0129125682667929,17.7649852261886
0.0120078558100539,17.7673096801013
0.0111324535189204,17.7696932974182
0.0102877028599287,17.7721427559283
0.00947474416833944,17.7746651286703
0.00868174498399756,17.7773123487991
0.00790062938916403,17.7801373783647
0.00713515960747755,17.7831611136099
0.00638919973245126,17.7864082429793
0.00566685673831047,17.7899073548894
0.00497244313036097,17.7936917049097
0.0043104204147418,17.7978001456374
0.00368529447087422,17.8022784360929
0.0031014243406874,17.8071814956904
0.00256274934556019,17.8125774650667
0.00207246107064097,17.81855521159
0.00163603993422096,17.8251810227918
0.00126774554444489,17.8322929533519
0.000972518362759028,17.8399870612758
0.000763925526013095,17.8475408031691
0.000587125107304465,17.8561654369196
0.000448267030336928,17.8654758912489
0.00034301900595524,17.8754758912489
0.000270726938253317,17.8854758912489
0.000221807025797783,17.8954758912489
0.000189268649640404,17.9054758912489
0.000168128416979875,17.9154758912489
0.000154937523430279,17.9254758912489
0.000147354828316647,17.9354758912489
0.000143801913298049,17.9454758912489
0.000143215933516728,17.9554758912489
0.000144885470760087,17.9654758912489
0.000148344258809698,17.9754758912489
0.000153301608763828,17.9854758912489
0.000159595976453472,17.9954758912489
0.000167164020434777,18.0054758912489
0.000176020860176805,18.0154758912489
0.000186248957482944,18.0254758912489
0.000197994032696773,18.0354758912489
0.000211467197691193,18.0454758912489
0.00022695324237005,18.0554758912489
0.000244825847352851,18.0654758912489
0.000265571530519359,18.0754758912489
0.000289825574406622,18.0854758912489
0.000318425383059563,18.0954758912489
0.000352490316557871,18.1054758912489
0.000393543227684187,18.1154758912489
0.00044369996679107,18.1254758912489
0.000501701474572135,18.1348491198544
0.000567813008712774,18.1435042353737
0.000643069569814616,18.1514914948103
0.000728710064929091,18.1588628567006
0.000826152449473877,18.1656667601696
0.000937005318837909,18.1719482007075
0.00106309009484442,18.1777489825017
0.0012064685478559,18.1831079476123
0.00136947521134731,18.1880611806477
0.00155475342092915,18.1926422073772
0.00176529931109139,18.1968821880147
0.00200451247044814,18.2008101025785
0.00227625859828017,18.2044529261876
0.00258494558629286,18.2078358061517
0.00293561978735142,18.2109822464755
0.00333409028846019,18.2139142997853
0.00378709168563403,18.2166527754772
0.00430250658359075,18.2192174821043
0.00488967891861747,18.2216275242436
0.00555987328607299,18.2239016930449
0.00630755692452691,18.2260090729841
0.00713413937303404,18.2279593198854
0.00805172690573773,18.2297865678458
0.00907864534828373,18.2315255974556
0.0102450780023102,18.233216756998
0.0116102852916738,18.234920825331
0.0134108975573685,18.2368548094336
0.0152142195245152,18.2385543805018
0.0171935149877834,18.2402539515699
0.0189074434537252,18.2416563225692
0.0203893374544206,18.242866972247
0.0217145365956459,18.2439932828963
0.0228987422515007,18.2450883273953
0.0239325513716177,18.2461907409737
0.0247894497046932,18.247342573686
0.025418340976486,18.2486092478481
0.0257017857510188,18.2501480105804
0.0253716738789537,18.2519701463885
0.0244220587928199,18.2537922821966
0.0233095132655203,18.2552646571149
0.0220616088435935,18.2566568239736
0.0206717591822675,18.2580693761421
0.019147863613549,18.2595471376031
0.0174970269623703,18.2611278508313
0.0161143498054741,18.2624825072103
0.0148115670083157,18.2638371635893
0.0123156362340833,18.2667181724164
0.0101673703902542,18.2696082793966
0.00848068224086922,18.2722614251881
0.00712216086659692,18.2747458265999
0.00593898604436708,18.2772603054736
0.00490105446568297,18.2798374912029
0.00398861026454343,18.2825009749785
0.00322768063296555,18.2851176210016
0.00261170844412981,18.2875984252377
0.00210359920243007,18.2899749485437
0.0016745108262968,18.2922900143361
0.00130142531856347,18.2946023888404
0.000962980371232592,18.2970120040005
0.000627505916255687,18.2997809256186
0.000394495086204306,18.3019895634689
0.000187410702632745,18.3041982013191
2.74813813274233e-05,18.3060942514616
-0.000103896694015141,18.3077971678207
-0.000221791725841339,18.3094528000765
-0.000334487253506533,18.3111624034561
-0.000449531010068101,18.3130511675035
-0.000580390258248858,18.315398039911
-0.000800475852280703,18.3198984957552
-0.000974869801369868,18.3240583081346
-0.00110562776879262,18.3275979683374
-0.0012299973155127,18.3313738690623
-0.00136880128462131,18.3362129074266
-0.00149583722056731,18.3416829273887
-0.00157106033006272,18.3464806964076
-0.00159412027045005,18.3508219164909
-0.00155796988002763,18.3547242291268
-0.00145574079557561,18.3582393245806
-0.00128070855442864,18.3614227990717
-0.00102532967839007,18.3643388273478
-0.000679836845380695,18.3670521069899
-0.000229613410295062,18.3696305079487
0.000350552180790198,18.3721547335028
0.00110556122896187,18.3747258605326
0.00214338904985061,18.3775480357754
0.00353232263783152,18.3806253710936
0.00527244329406754,18.3838457143699
0.00656703345386963,18.3859340980398
0.00801679197282224,18.3880224817098
0.00949748976293006,18.3899134562154
0.0110605744371702,18.3916754277097
0.0126818335004247,18.3932806287631
0.0144635784789246,18.3948235448312
0.0164206493219328,18.3962977206775
0.0185884293586707,18.397712723842
0.0210060822926937,18.3990763376024
0.0236991041015434,18.4003863526951
0.0267112270953446,18.4016488172967
0.0300817368791385,18.4028652930321
0.0338539099415241,18.4040375298403
0.0380840918632698,18.4051695786357
0.042833689643028,18.4062644270374
0.0481747385807371,18.4073252972607
0.0541905713666365,18.4083553047535
0.0609851400091879,18.4093585086143
0.0686816671732764,18.4103388188385
0.0774308874244821,18.4113004936214
0.0874202303902564,18.4122482969674
0.0988867549871045,18.4131876830994
0.11213937623896,18.4141252837482
0.127592105683012,18.4150694338537
0.145823882214457,18.4160312881261
0.167422269464442,18.4170155058029
0.192443913908135,18.4180038466931
0.221556500185688,18.4190071723911
0.255664783204411,18.4200411673264
0.29614310463998,18.4211325365022
0.342744024307867,18.422272857043
0.382178478075889,18.4231866081586
0.415189539933733,18.4239467181665
0.443881428785734,18.4246310772381
0.468924995899926,18.4252778889126
0.49033789416698,18.4259118839078
0.507717177019385,18.4265551571293
0.520149811113019,18.427233974613
0.52574033641562,18.4279902525233
0.521291888154408,18.4287981552185
0.505201238622106,18.4296296814646
0.476034489849013,18.4305003071041
0.431982236294935,18.431420995412
0.371083052660434,18.4324004367023
0.327896568004606,18.4329935344089
0.280862637428973,18.4335866321155
0.238859974826926,18.4340902662893
0.202537818609268,18.4345183354673
0.170441113195974,18.434899300909
0.141593968989743,18.4352507622894
0.115386246436074,18.4355839707644
0.091383998279726,18.4359073960996
0.0692186298207533,18.4362289322076
0.0484815459962934,18.4365584377252
0.0284673751357938,18.4369146632852
0.00632699092299205,18.4373758045594
-0.00182570976480879,18.4375718092201
-0.00926377327445898,18.4377678138809
-0.0155935468657118,18.4379508772218
-0.0215806201431031,18.4381413978118
-0.0275476962355356,18.4383527158263
-0.0332665446289359,18.4385815029182
-0.0385959916529122,18.4388258915466
-0.0434585790660033,18.439085318602
-0.0478148854061036,18.4393600939977
-0.0516484420258614,18.4396511665976
-0.0551469715452834,18.4399813388276
-0.0578552084765527,18.440308649983
-0.0600494628994866,18.4406578325757
-0.0617463908542467,18.4410322931201
-0.0629603506106039,18.4414358560416
-0.0637046714016947,18.4418732512194
-0.0639901366092164,18.4423503966256
-0.0638232357878417,18.4428748196127
-0.0632033510019386,18.4434567055178
-0.062117271868439,18.444110558987
-0.0605349324629961,18.4448559217955
-0.058395639584403,18.4457230802899
-0.0555698469600333,18.4467666764071
-0.0516944114787826,18.4481241128107
-0.0476609538462681,18.449508819595
-0.0437761952346346,18.4508492692689
-0.0400813460799778,18.4521493764191
-0.0365965905824254,18.4534110497541
-0.0333319782056246,18.454634942093
-0.0302913464705018,18.4558210738255
-0.0274741774393984,18.4569691653144
-0.0248766643395051,18.4580788114454
-0.0224924511584985,18.4591495703225
-0.0203132237420459,18.4601810030238
-0.0183292199669029,18.4611726838014
-0.0165296827136342,18.4621241912376
-0.0149032618772381,18.4630350861227
-0.0133467606931323,18.463961048572
-0.0118512000841921,18.4649108921636
-0.0104207372247755,18.4658864545409
-0.00905925382427144,18.4668899543057
-0.0077704173507431,18.4679240036179
-0.00655762974390716,18.468991707414
-0.00542397458157903,18.4700967944721
-0.00437216188624939,18.4712437951476
-0.00340447033883701,18.4724382883416
-0.00252268614484965,18.4736872546533
-0.00172803691907672,18.4749995989414
-0.00102111736517561,18.476386956351
-0.000401800449758432,18.4778650014268
0.000130878831658088,18.4794557196309
0.000558041727528714,18.481098927566
0.000891435897194929,18.4827955228381
0.00114656966703232,18.4845640667244
0.00133771174107643,18.4864280046546
0.00147838814516948,18.4884192629277
0.00158187046654899,18.4905843350705
0.00166196774284873,18.4929975781299
0.00173476382450338,18.4957966529742
0.00182462432129895,18.4993192590376
0.00193777758604883,18.503097725624
0.00208365317599504,18.5071197162402
0.00224491399206916,18.510974771233
0.00241800345284946,18.5147640540129
0.00260022888295945,18.5185550363049
0.00279013875596264,18.5223947244797
0.00298755632231534,18.5263204128049
0.00319340371112888,18.5303648207325
0.00340948881936608,18.5345588674112
0.0036383206758224,18.5389335290592
0.00388298868267781,18.5435212325311
0.00414717289325855,18.5483573018553
0.00443534741758204,18.5534813231069
0.00475326637105602,18.5589384626345
0.00508637476587255,18.5644159105287
0.00542937641783092,18.5697827636373
0.00578614088875409,18.5750587160879
0.00615919438648844,18.5802361856549
0.00655262666911393,18.5853272031597
0.00697063423445408,18.5903404412606
0.00741774009599467,18.5952836540506
0.00789872314128052,18.6001618275042
0.00841872391764371,18.604977583425
0.00898334763125177,18.6097314738988
0.00959878045767874,18.6144224191607
0.0102719069099473,18.6190481991706
0.0110206016023354,18.6236656747488
0.0118640407830232,18.6283077751717
0.0128206097919843,18.6329782690191
0.0139168110524385,18.6376995399822
0.0151930089923834,18.6425224327451
0.0167237959882482,18.6475738328637
0.0187055208050433,18.6532537398402
0.0206358659675956,18.6581588466462
0.0222539967164564,18.6619869785751
0.0239146618146883,18.6658151105039
0.0253444066189477,18.669187442398
0.026551489048147,18.6722690869032
0.0275519351440115,18.6752332461215
0.0282962153398768,18.6780595700809
0.0287737869354337,18.6808100252546
0.0289742579580484,18.6836100369929
0.0288471522434547,18.6866492416987
0.0281873256925958,18.6904943080665
0.0273587284346275,18.6934030542269
0.0262985666984837,18.6963118003873
0.0252255099552484,18.6988519538504
0.0241560457322578,18.7011750989753
0.0230848433568616,18.7033849746282
0.0220129985440676,18.7055319779514
0.0209438511784609,18.7076449339357
0.0198811288356816,18.7097429338373
0.0188284399246455,18.711839902859
0.0177891370260745,18.7139467309259
0.0167662875577206,18.7160724175844
0.0157626761896223,18.7182247553476
0.0147808154704636,18.7204107741107
0.0138229614388566,18.7226370437298
0.0128911231472486,18.7249099105447
0.0119870756708388,18.7272356782539
0.0111123718851452,18.7296207629507
0.0102683482932078,18.7320718507505
0.009456140672463,18.7345960259893
0.00866337531007536,18.737247183482
0.00788258234191995,18.7400765919397
0.00711752231874999,18.7431052423739
0.00637206524201766,18.7463579067535
0.00565032333205128,18.7498632732718
0.00495661337254052,18.7536547164415
0.00429539927988991,18.7577712333632
0.00367118626060846,18.7622587646603
0.00308832669810625,18.7671724844167
0.00255074637965105,18.7725809135092
0.00206161610489543,18.7785735276857
0.00162684434420681,18.785209511948
0.00126003064210771,18.7923335814389
0.000966528584983154,18.8000424184467
0.000763516209760472,18.8074318327801
0.000585137176331359,18.8161505130588
0.000447233823482939,18.8254313375984
0.000342311406856302,18.8354313375984
0.000270253125381945,18.8454313375984
0.000221499639452772,18.8554313375984
0.000189078158941049,18.8654313375984
0.000168019609391688,18.8754313375984
0.000154886189229144,18.8854313375984
0.000147344633335578,18.8954313375984
0.000143821897609804,18.9054313375984
0.000143258759107285,18.9154313375984
0.00014494628185142,18.9254313375984
0.000148419953327012,18.9354313375984
0.000153390364658863,18.9454313375984
0.000159696938762765,18.9554313375984
0.000167277098639584,18.9654313375984
0.000176146608552121,18.9754313375984
0.000186388522591725,18.9854313375984
0.000198149159355342,18.9954313375984
0.000211640291182474,19.0054313375984
0.000227147491813003,19.0154313375984
0.000245045423876349,19.0254313375984
0.000265821885707763,19.0354313375984
0.000290113882044177,19.0454313375984
0.000318761195243046,19.0554313375984
0.000352886552411238,19.0654313375984
0.000394017695601674,19.0754313375984
0.000444277771913364,19.0854313375984
0.000502356195929333,19.0947968092955
0.00056855257857433,19.1034444757594
0.000643905250189435,19.1114248659526
0.000729655001753173,19.1187899063127
0.000827221643914065,19.1255879955058
0.000938215785018387,19.1318640914858
0.00106446109866029,19.1376599638231
0.00120802190114171,19.1430144225158
0.0013712356075541,19.147963522477
0.00155674882505559,19.1525407620494
0.00176756142133138,19.1567772761958
0.0020070772766522,19.1607020216959
0.00227916704017909,19.1643419523693
0.00258824440249908,19.1677221961979
0.00293936256724708,19.1708662398774
0.00333833885118005,19.1737961207968
0.00379191792609481,19.1765326354062
0.00430799500391886,19.1790955819905
0.00489593026739437,19.1815040581557
0.00556701000886437,19.1837768525364
0.00631543551649067,19.1858823858901
0.00714285306914513,19.1878311240876
0.00806141825797001,19.1896572025833
0.00908953404593052,19.1913954177391
0.0102575467643697,19.1930862095166
0.0116257632577611,19.1947913804308
0.0134327462455205,19.1967290664614
0.0152292059367088,19.1984201097824
0.017199580923326,19.2001111531035
0.0189118967641842,19.2015119339047
0.020393476284447,19.2027222073173
0.0217184950679589,19.2038483440539
0.0229025166320742,19.2049433035983
0.0239360999347285,19.2060457099329
0.0247926932875231,19.2071976341901
0.0254211283405872,19.2084645804868
0.0257037067146071,19.2100041754375
0.0253724832380251,19.21182561585
0.0244223688767996,19.2136470562624
0.0233095889131573,19.2151191243466
0.0220614182663749,19.2165112286342
0.0206712930949678,19.2179238139161
0.0191471172275709,19.2194016744344
0.0174959872201846,19.2209825578272
0.0161103746308936,19.2223401958257
0.0148050449573158,19.2236978338242
0.0123083581016539,19.2265808565146
0.0101615786600435,19.2294703178975
0.00847606785737242,19.2321228270849
0.00711814996522913,19.2346072583641
0.00593546606235826,19.2371218821873
0.00489795548212966,19.2396992890585
0.00398587801580536,19.2423630653074
0.00322511885939784,19.2449805583797
0.00260934739187462,19.2474620235401
0.00210145630037593,19.2498390020667
0.00167259809909352,19.2521542897146
0.00129976802248749,19.2544665189925
0.000961660038985913,19.2568751121904
0.000626876906561227,19.259639418849
0.00039332550684954,19.2618540680486
0.000185821072515924,19.2640687172483
2.58293384108515e-05,19.2659671551872
-0.00010548814446913,19.2676708192873
-0.000223282832844566,19.2693264822344
-0.000335848405420414,19.2710354879712
-0.000450714638502409,19.2729226521517
-0.000581255263951829,19.2752649811226
-0.000801435716487365,19.2797689684286
-0.000976373509230761,19.2839437466478
-0.00110745551175012,19.2874946920492
-0.00123197963052773,19.291278358246
-0.00137098431585701,19.2961290702286
-0.00149772258191689,19.3015937491283
-0.00157271899240307,19.3063890435516
-0.00159550532946051,19.3107275840415
-0.00155902199416633,19.3146276314218
-0.00145639780511685,19.3181404844712
-0.00128089542870225,19.3213222125121
-0.00102496243266297,19.324236897973
-0.00067881909406058,19.3269492031992
-0.000227831839405952,19.329526953829
0.000353250854890016,19.332050851896
0.00110953530241399,19.3346224064252
0.00214938934548593,19.337446163419
0.00354036566759143,19.3405241966379
0.00528251679253699,19.343744725501
0.00657677108417332,19.3458304355171
0.00802604664206307,19.3479161455332
0.00950769177474086,19.3498065850824
0.0110719553139614,19.3515681792829
0.0126945072629745,19.353173021305
0.0144777786849664,19.354715629289
0.0164362912979762,19.3561893059856
0.0186058220330672,19.35760392133
0.0210254780728274,19.3589671826113
0.0237206950112943,19.3602768398515
0.0267352866340307,19.3615389677647
0.0301086440625325,19.3627551527942
0.0338839519857392,19.3639270968978
0.0381176829294876,19.3650588771417
0.0428713189573473,19.3661534828594
0.048216994608365,19.3672141393725
0.0542381334742327,19.3682439597103
0.0610388345289175,19.3692470054977
0.0687425036964108,19.3702271892706
0.0775001174367492,19.3711887728046
0.0874994334278754,19.3721365253097
0.0989780025365812,19.3730759113014
0.11224536078217,19.3740135700423
0.127716571271155,19.3749578571991
0.145972274699813,19.3759199600248
0.167593899984708,19.3769042201339
0.192643208242852,19.3778926815878
0.221789360604078,19.3788962371552
0.255939641418163,19.3799306293843
0.296474246285479,19.3810227130041
0.333473472143059,19.3819347672889
0.372520022507617,19.3828468215737
0.406743387431254,19.383632992779
0.436479127199321,19.3843328100666
0.462482915777823,19.3849870787906
0.484895381703169,19.3856224238133
0.50342481015803,19.3862609658713
0.517320255205196,19.3869270835456
0.525039805425328,19.3876565621177
0.523534785324599,19.3884611920968
0.510693267500836,19.3892847011576
0.485205743183562,19.3901435718556
0.445344890420511,19.3910499745535
0.389173599155156,19.3920124977087
0.344370040231919,19.392655397293
0.294641448048446,19.3932982968774
0.250389300499525,19.3938348506219
0.212546488692238,19.3942818411153
0.179349770945087,19.3946742515569
0.149638597865851,19.3950329051824
0.122718744896679,19.3953704540376
0.0981188665361431,19.3956959171724
0.0754610094654272,19.3960171454333
0.054362580077423,19.3963430535428
0.0342566795697253,19.396688383391
0.0135005274276691,19.3970980624339
0.00140490096708429,19.3973736551151
-0.00598628754354989,19.3975608094063
-0.0127414218139534,19.3977479636974
-0.0186165419606022,19.3979263839626
-0.024623245698373,19.3981278150075
-0.030487168389298,19.3983483333736
-0.036021279936055,19.3985851785433
-0.0411206818341576,19.3988372096732
-0.0457296306116324,19.3991043461385
-0.0498217548024797,19.3993872416422
-0.0533840297727998,19.3996871222109
-0.0565027187924045,19.4000169107444
-0.0589634773959668,19.4003543461059
-0.0609181591384999,19.4007151940413
-0.0623824184831504,19.401103048436
-0.0633703087849102,19.4015221382658
-0.0638941408430225,19.4019777192654
-0.0639628867231891,19.4024764142614
-0.0635802276474245,19.4030267330789
-0.0627399937883079,19.4036410316559
-0.0614218867856932,19.4043357015824
-0.0595837499213435,19.4051345141799
-0.057139829426775,19.4060766058552
-0.0538897295660574,19.4072417324175
-0.0498027542659299,19.4086550316812
-0.0458308320765846,19.4100186616905
-0.0420310321153489,19.4113400010275
-0.0384321948458714,19.4126220923062
-0.0350490686720029,19.4138661602372
-0.0318884997270053,19.4150725085366
-0.028952134031283,19.4162409891119
-0.0262378177080319,19.4173712489722
-0.0237404778011433,19.4184628586618
-0.0214527797783379,19.4195153749911
-0.0193656762179035,19.4205283653339
-0.0174688889634266,19.4215014080289
-0.0157513380746359,19.4224340768523
-0.0141646681008679,19.4233477841412
-0.0126362000890871,19.4242847719118
-0.0111707030133889,19.4252464322621
-0.00977214879347085,19.4262348091653
-0.00844432518564131,19.4272522949982
-0.00719078146793082,19.4283017192112
-0.0060147768867917,19.4293864607861
-0.00491922671782595,19.4305105990242
-0.00390664591229606,19.431679120279
-0.00297908987732795,19.4328982089328
-0.00213809128241315,19.4341756698835
-0.00138459063364432,19.4355215653353
-0.000718856214160624,19.4369492196209
-0.000140384643090132,19.4384768989786
0.00034399966383596,19.4400993030869
0.000725255483830686,19.4417652006039
0.00102022785431649,19.4434929025118
0.00124372608417138,19.445302696264
0.00140962164737479,19.4472214775707
0.00153124904005212,19.4492869396256
0.00162200014879994,19.4515561847693
0.0016964179475563,19.4541260942168
0.00177308151478773,19.4571957981678
0.00187428453043324,19.4609290960358
0.00200306331413462,19.4648480973338
0.00215633501961675,19.4687761951873
0.00232339594894943,19.4725906329256
0.00250093001187129,19.4763739037733
0.00268677635905036,19.4801821030814
0.0028800811682073,19.4840569126384
0.00308119610000923,19.4880330799563
0.00329147394293562,19.492142226187
0.0035130637984455,19.4964151051361
0.00374874947548322,19.5008831887751
0.00400187985056673,19.5055800460619
0.00427646039062049,19.5105428061005
0.00457747113705478,19.5158134340789
0.00490907999250551,19.5213994530144
0.00524432025382289,19.5267884391961
0.00559422779887132,19.5321260812072
0.00595788525835782,19.5373512009261
0.00634002025220873,19.5424882274417
0.00674435078684184,19.5475415446644
0.0071753660723575,19.5525214064916
0.00763766063082922,19.5574337758346
0.00813618190014368,19.5622826396806
0.00867626972869247,19.5670695661627
0.00926378715750382,19.5717943006729
0.0099052306515559,19.5764551578025
0.0106087073889092,19.5810549105982
0.0113999789610701,19.5856870966854
0.0122931586215291,19.5903401518848
0.0133107460636034,19.595030430639
0.0144842526434593,19.5997896924337
0.0158658200427973,19.604694776329
0.0175653356393485,19.6099516431674
0.0199833068911945,19.6164193889723
0.0216573759018406,19.6204620080667
0.0234039461195751,19.6245046271612
0.0249174990396179,19.6280280980966
0.0261917920881355,19.6311801605095
0.0272579371422473,19.6341663144881
0.0280882847338605,19.6370407132866
0.028650614401845,19.6398028227833
0.028942061183071,19.6425715418129
0.0289289545451537,19.6455046743481
0.0284885885592783,19.6489599711267
0.0277051043370159,19.6521575235232
0.0266185211532709,19.6553550759196
0.0255340997845044,19.6580139214145
0.0244636772487351,19.6603871976731
0.0233930068530576,19.6626231329764
0.0223210523444382,19.664784667883
0.0212507558606387,19.6669051647204
0.0201858135761183,19.6690058745482
0.0191298899893184,19.6711019257798
0.018086416935965,19.6732049348362
0.0170585445491023,19.6753243601544
0.0160491372799878,19.677468289413
0.0150607855463266,19.6796439337665
0.0140958168461222,19.6818579713562
0.0131563100771808,19.6841167923822
0.0122441081903797,19.6864266914293
0.0113608242765987,19.6887940435911
0.010507858254852,19.6912254365737
0.00968640104665134,19.6937278295571
0.00889087824424163,19.6963310062085
0.00810623907044153,19.6991070725248
0.00733626345436616,19.7020758767645
0.00658474931537283,19.7052611751077
0.00585574091516547,19.7086904582415
0.00515350075027237,19.7123956622351
0.00448245900099785,19.7164140466479
0.00384712314896031,19.7207893799154
0.00325191591641485,19.7255738445263
0.0027009175339009,19.7308315327814
0.00219754782637103,19.7366448352327
0.00174432526319873,19.7431249069393
0.00135874430587365,19.7501001897251
0.0010434786142922,19.7576294928827
0.000810184208837259,19.7654136249232
0.000631234071737512,19.7735045605713
0.000479157740849356,19.7828588066614
0.000364389406177181,19.7928588066614
0.000285328029943111,19.8028588066614
0.000231630821862986,19.8128588066614
0.000195756075252604,19.8228588066614
0.000172294090174545,19.8328588066614
0.000157477748626604,19.8428588066614
0.000148740847380956,19.8528588066614
0.000144351409568437,19.8628588066614
0.000143142579310337,19.8728588066614
0.000144331428966118,19.8828588066614
0.000147401303063079,19.8928588066615
0.00015202507417687,19.9028588066615
0.00015801409450904,19.9128588066615
0.000165284069346283,19.9228588066615
0.000173832955623921,19.9328588066615
0.000183727990355072,19.9428588066615
0.000195100055282247,19.9528588066615
0.000208144383404286,19.9628588066615
0.000223127363013028,19.9728588066615
0.000240400003456652,19.9828588066615
0.000257453224628619,19.9914294033307
0.000276843217555147,20
