ecg,time
0.00554921908002548,15.001329671027
0.00454331595347651,15.0039329893728
0.003657231833174,15.0066294469534
0.00287606279611223,15.0094425115057
0.00222301264662372,15.0122302408892
0.00169829845304714,15.0148653580549
0.001265904182421,15.0173919174727
0.000900065943720841,15.0198570110485
0.000583816275380814,15.022296937496
0.000306014192391462,15.0247359856093
5.68158246487554e-05,15.0272125123438
-0.000178371987456521,15.0298510902018
-0.000444096404759897,15.0332511669892
-0.000580886659232335,15.0351999301017
-0.000708357598803706,15.0371486932141
-0.000817650234768642,15.0389264690101
-0.000916148248087594,15.04061552594
-0.00101112714580517,15.0423229294567
-0.00110888263925348,15.0441603547088
-0.0012191507127751,15.046328061476
-0.00137863025293895,15.0496316832949
-0.00154372736730506,15.0532436783363
-0.00167754519324982,15.0563015430725
-0.0018081764439196,15.0593921755734
-0.00195405066416402,15.062970767343
-0.00213103901016614,15.0675420966918
-0.00232561552756062,15.0731422561913
-0.00245513679419716,15.0779946480026
-0.00251442208246397,15.0823545617204
-0.00249206781744693,15.0862531728931
-0.0023804098357978,15.0897792805413
-0.00217268513788719,15.093015203405
-0.00186249317406803,15.0960233502618
-0.00144390889827547,15.0988483085587
-0.000907597488488026,15.1015417321348
-0.000232038794254986,15.1041820315225
0.00063519889014749,15.1069023161492
0.00182909924906327,15.1099689819105
0.00333911714976352,15.1132283799446
0.00519589312534787,15.1166916098961
0.00647090936838567,15.1188171956078
0.00787324736641156,15.1209427813195
0.00926184812219061,15.1228353179378
0.0107075071889507,15.1245934289652
0.0122355904382659,15.1262378677207
0.0139066881525692,15.1278171268028
0.0157405366008481,15.1293288979346
0.017778315167093,15.1307871549004
0.0200416436160396,15.1321881739558
0.0225682783087483,15.1335381281316
0.0253884416389778,15.1348369185475
0.0285394919725824,15.1360870005468
0.0320656762845333,15.1372918036946
0.0360151769432437,15.1384540504156
0.0404417215777697,15.1395762469323
0.0454133447458712,15.140662404308
0.0510077918136162,15.1417160337128
0.0573172978882029,15.1427407769152
0.0644527743052921,15.1437405075509
0.0725485266714377,15.144719325148
0.0817717710388749,15.1456819194286
0.0923327920848909,15.1466335934168
0.104502203497649,15.1475805964839
0.118639183780939,15.1485306931185
0.135239533431248,15.1494941013349
0.155027961471897,15.150485397866
0.178020581657975,15.1514819020978
0.204735180091206,15.1524895478489
0.235966167706506,15.1535225345961
0.272860721867502,15.1546031164121
0.316153147013615,15.1557436068132
0.358124495119976,15.1567718070601
0.392966407862326,15.1576033049674
0.422992430692753,15.1583319840829
0.449247320478264,15.1590074165758
0.471944725170237,15.1596579314691
0.490862337360961,15.160305603907
0.505365318445948,15.1609730670707
0.51417752933581,15.1616905309698
0.514626870425353,15.1625030802885
0.504110050341832,15.1633284980162
0.481448219116478,15.1641832403076
0.445066931892118,15.1650797770745
0.39316659585611,15.1660270955887
0.34871697170356,15.1666970040079
0.298741928416833,15.1673669124272
0.254162332889711,15.1679222598224
0.216140527103694,15.16838095501
0.18284300608907,15.1687812768542
0.153063254385216,15.1691456617516
0.126091000588599,15.1694874618721
0.101452153495961,15.1698159785518
0.0787748169847449,15.1701390606989
0.0576966636665222,15.1704652131719
0.0377177631576311,15.1708075292371
0.0175868298561452,15.1712007456957
0.00908668989380953,15.1713873512504
0.00124713012269598,15.1715739568051
-0.00687935911943471,15.1717858351889
-0.0134498056304351,15.1719744673375
-0.0193534488767645,15.1721606979352
-0.0253085866692016,15.1723689580054
-0.031065325613018,15.1725955645961
-0.0364618948124635,15.1728381984887
-0.0414086398149266,15.1730960114254
-0.0458588882326508,15.1733691244549
-0.0497914897863704,15.1736583463415
-0.0534422843565926,15.1739907869812
-0.0562442373627736,15.1743158596705
-0.0585314607821327,15.1746622308548
-0.060320831143028,15.175033234577
-0.0616265657494802,15.1754325252137
-0.0624621993624566,15.1758646106453
-0.0628391066858579,15.1763351097963
-0.062764850618205,15.1768511319228
-0.0622409670340701,15.1774219714971
-0.06125737749,15.1780613514811
-0.0597891040866252,15.1787871114035
-0.057785428675061,15.1796261940796
-0.0551413217189933,15.1806249203127
-0.051590912102782,15.1818871438322
-0.0475668732677537,15.183280825137
-0.0436782431099976,15.1846281191691
-0.0399732442054972,15.1859338806826
-0.0364750377923464,15.1872005636219
-0.0331951910540227,15.1884291166524
-0.030138430482703,15.1896197228746
-0.0273048189850836,15.1907721932813
-0.0246909579466779,15.1918861736396
-0.0222907887163581,15.1929612508939
-0.020096214096957,15.1939970030271
-0.0180976255401343,15.1949930152906
-0.016284366965785,15.1959488751346
-0.0146451449577374,15.1968641525965
-0.0130875502416604,15.1977877788235
-0.0115904219334033,15.1987351589639
-0.0101580389445724,15.1997080445859
-0.00879430798140001,15.2007086198491
-0.00750292795930035,15.2017394531833
-0.0062873385074392,15.2028035942997
-0.00515066776501601,15.2039047014039
-0.00409567792543577,15.2050472133102
-0.00312470838922042,15.2062365879492
-0.00223961592320969,15.2074796423354
-0.001441710460571,15.2087850537023
-0.000731683808028066,15.2101641288777
-0.000109525908019972,15.2116320465604
0.000425582196124662,15.2132099964866
0.000857129825927305,15.2148488753772
0.00119314521983014,15.2165391610837
0.00144932715555956,15.2182993055635
0.00163999435911376,15.2201520812356
0.00177866992085418,15.2221283220293
0.00187854116211382,15.2242725731924
0.00195318356676963,15.2266552593694
0.00201808074926224,15.2294042816656
0.0020955435921844,15.2328206192079
0.00219702026070213,15.2365825858331
0.00232375450166633,15.2403817671017
0.00247167304326887,15.2441548518949
0.00263719804588342,15.2479546030233
0.00281686497632458,15.2518221748706
0.00300838470831215,15.2557920548888
0.0032109241133766,15.2598956914818
0.00342503204503008,15.2641637766895
0.00365244283880948,15.268627811948
0.00389588873873231,15.2733214702122
0.00415903272314506,15.278282036664
0.00444662401313522,15.2835517276581
0.0047649990857269,15.2891791171637
0.00508804067790388,15.2946371030431
0.00542409636584793,15.3000306955681
0.00577295773185603,15.305309022631
0.00613892175433703,15.3104933401731
0.00652561695745909,15.3155901602928
0.00693727870372179,15.3206104886397
0.00737822984823536,15.3255612514256
0.00785308694719193,15.3304471722008
0.00836681815073057,15.3352705267153
0.00892487473123676,15.340031731112
0.00953329772310111,15.3447296502315
0.0101988252103688,15.3493619991041
0.0109367932693124,15.3539721419109
0.0117680920959301,15.3586078877806
0.0127100186133352,15.363269096997
0.0137879943531821,15.3679762004656
0.0150399427524594,15.3727744903248
0.0165339075161487,15.3777757445698
0.0184380576945307,15.3833153028838
0.0209154475745808,15.3896031169985
0.022496042258014,15.3933042391569
0.0241088707336709,15.3970053613153
0.0255162603676616,15.4003269778451
0.0267061558123028,15.4033836492991
0.0276891076950292,15.4063370406931
0.0284093648236562,15.4091437568314
0.028862802852058,15.4118859027578
0.0290365143929092,15.4146915667022
0.0288736468830661,15.4177632236298
0.0281278324478527,15.4217730348972
0.027285347529676,15.4245928219147
0.0262309398356446,15.4274126089322
0.0251610289151158,15.4299075875412
0.0240922009049639,15.4322062331577
0.023021221164508,15.4344000674226
0.0219497688666638,15.436535385863
0.0208813046928998,15.4386393360696
0.0198195628628419,15.4407301551744
0.0187681264014325,15.4428212728366
0.017730312878512,15.4449232691562
0.0167091525877954,15.4470449413079
0.0157073925385619,15.4491939496703
0.0147275091552331,15.4513772386387
0.0137717233147626,15.4536013292626
0.0128420097614352,15.4558725500589
0.0119401127178795,15.4581972085731
0.0110675537257202,15.4605817555854
0.0102256399780029,15.4630329384944
0.00941548250650711,15.4655579247003
0.0086215161828002,15.4682219318271
0.00783980372478615,15.471066031785
0.00707409350741163,15.4741117186249
0.00632829272198214,15.4773841961684
0.00560655289687859,15.4809126820373
0.004913228708884,15.4847312177147
0.00425282374052199,15.4888796165012
0.00362987633657403,15.4934048702875
0.00304875630388477,15.4983635959903
0.00251338333702133,15.5038264315508
0.00202689083907172,15.5098862193269
0.00159815780544754,15.5165532826344
0.0013277424064806,15.5217379722243
0.00111181006877753,15.5269226618142
0.000885059176302137,15.5340273580994
0.000687025096933438,15.542312912206
0.000528166462642623,15.5513715161787
0.000403921236207534,15.5613715161787
0.000318771235895873,15.5713715161787
0.000261391485150359,15.5813715161787
0.000223542274343312,15.5913715161787
0.000199334271517802,15.6013715161787
0.000184681965015483,15.6113715161787
0.000176814628647413,15.6213715161787
0.000173874972494968,15.6313715161787
0.000174627189977116,15.6413715161787
0.000178261813910125,15.6513715161787
0.000184270167976235,15.6613715161787
0.000192363925947394,15.6713715161787
0.000202423634693831,15.6813715161787
0.000214467176322841,15.6913715161787
0.000228633511343273,15.7013715161787
0.000245179520046755,15.7113715161787
0.000264489474283734,15.7213715161787
0.000287098389442996,15.7313715161787
0.000313732723422031,15.7413715161787
0.000345375143932875,15.7513715161787
0.000383365293240082,15.7613715161787
0.00042955739767595,15.7713715161787
0.000484744074759693,15.7810782571815
0.000547849245398292,15.7900514808217
0.000619799840089296,15.7983301945615
0.000701790259523568,15.805968231176
0.000795200558372943,15.8130161679318
0.000901599646511457,15.8195209375933
0.00102276412625109,15.8255260986842
0.00116070445625486,15.8310720940688
0.00131769633372518,15.8361964790235
0.00149631638860178,15.8409341326792
0.00169948418184798,15.8453174606076
0.00193051185142753,15.8493765901321
0.00219316449126548,15.8531395560506
0.00249173334512201,15.8566324834861
0.00283112887308286,15.8598797763765
0.00321699930215318,15.8629043154511
0.00365588688161949,15.8657276710835
0.00415543992741848,15.8683703478027
0.00472471010934374,15.8708520832001
0.00537458738180132,15.8731922380231
0.00610542144421333,15.8753748203475
0.00691394824933436,15.8773918848753
0.00781175314295587,15.8792787050164
0.00881655357773286,15.881071415481
0.00995739080083876,15.8828114232153
0.0112902086640803,15.8845593039535
0.0130241362060311,15.8865154598493
0.0148196330694607,15.8882897254477
0.0167964554193116,15.8900639910462
0.0184776296928798,15.8915001646176
0.0199252190341973,15.8927349217894
0.0212180286833855,15.893882412169
0.022371766618588,15.894997062187
0.0233771335011139,15.8961180308217
0.0242080350425424,15.8972875787529
0.0248143990887892,15.8985708223529
0.0250822764687528,15.9001218752555
0.0247490310181713,15.9019729855321
0.0238033618638131,15.9038240958087
0.0226990558328361,15.9053170860432
0.0214651579910932,15.9067238701609
0.0200947277004364,15.9081474960619
0.0185956545122401,15.9096331969987
0.0169753715957056,15.9112182812954
0.01526455791695,15.9129483413116
0.0139225898759454,15.9144071952988
0.011524847744024,15.9173154386103
0.00953965056039528,15.920122710635
0.00796601528073,15.9227160315576
0.00666220992374247,15.9252102516161
0.00552205666076681,15.9277459532457
0.00451952134061278,15.9303521702039
0.00363631494991588,15.9330521979538
0.00285761710833607,15.9358695448888
0.00221146423568411,15.9386392624252
0.0016912461852628,15.9412595616349
0.00126171511732602,15.9437744272712
0.000897619348518195,15.9462308368462
0.000582019459438156,15.9486675621902
0.000303334684287231,15.9511161447804
5.07417691517197e-05,15.9536306517102
-0.000193718874175815,15.9563867749384
-0.000389967686956985,15.9588693575452
-0.000567557955718843,15.961351940152
-0.000699884802577251,15.9633612881737
-0.000808622985739554,15.9651202917388
-0.000907896488324913,15.9668136974702
-0.0010048749106472,15.9685495451642
-0.00110626989232362,15.9704503084102
-0.00122422198617776,15.9727693940089
-0.00143125192802837,15.977102741884
-0.00160985240933836,15.9810879472867
-0.00175271523800875,15.9844272955333
-0.00189750812655369,15.9879485064707
-0.00206713529692741,15.9922816564122
-0.0022691622211084,15.997957528108
-0.00240953401832764,16.0029114442783
-0.0024823907682336,16.0073673669264
-0.00247566127604777,16.0113547507473
-0.00238121157327719,16.0149470810593
-0.00219233783517636,16.0182311059964
-0.00190237019259128,16.0212769450555
-0.00150525317618293,16.0241317564499
-0.000992725866455128,16.0268444696529
-0.00034567644415054,16.0294898698313
0.000482702090168786,16.0321930317727
0.0016239329040775,16.0352263003497
0.00307359108559576,16.0384443344757
0.00487042309225151,16.0418741291626
0.00613595437920549,16.0440306490166
0.00752754328768379,16.0461871688706
0.00894577446008678,16.0481647002619
0.0103729450652323,16.0499416120348
0.0118871200319597,16.0516128589706
0.0135336911819058,16.0532110113059
0.0153332925254857,16.0547365786898
0.0173291813092466,16.056206870317
0.0195441706587016,16.0576193629079
0.0220156547024104,16.0589803911921
0.0247710262415359,16.0602887393572
0.027851229971547,16.0615489156192
0.0312973453377757,16.062763247556
0.0351548165120857,16.0639339907203
0.0394779841793288,16.0650643081138
0.044332169246702,16.0661579640688
0.0497923058635954,16.0672183770651
0.0559473754045445,16.0682491521905
0.0629038787135155,16.0692540768458
0.0707907989424936,16.070237200934
0.0797687330173102,16.071203182933
0.0900380399995566,16.0721571572244
0.101855611148581,16.0731051612999
0.115560305686888,16.0740546245553
0.131615981584603,16.0750152072341
0.150692992090393,16.0760004941466
0.173001555335707,16.0769968004727
0.19889939429295,16.0780021065481
0.229134416946518,16.0790296807945
0.26476458894808,16.0800997095707
0.3072065784317,16.0812413370362
0.34166123374557,16.082100980944
0.377401231978847,16.0829606248519
0.409232796705413,16.0837254445362
0.437106350375404,16.0844217517711
0.461399096484401,16.0850816435884
0.482061799792498,16.085728811997
0.498659355369378,16.086384878843
0.510259766485305,16.0870753689943
0.514982834251534,16.0878398401394
0.509765065136112,16.088657554684
0.49302673890704,16.0894969791301
0.463371278426007,16.0903726184593
0.41908531978997,16.0912947550798
0.372472667547672,16.0920633419746
0.317946509423718,16.0928319288695
0.279754541596695,16.0933226557281
0.23976541562822,16.0938133825867
0.20380938572484,16.0942460048655
0.17189738028203,16.0946317134142
0.1431957873875,16.0949870318632
0.117111980587665,16.0953233453852
0.093221104225654,16.0956491972046
0.0711663087057027,16.0959723966903
0.0505622119165174,16.0963023839806
0.0307778848680639,16.0966561831387
0.0095967401079799,16.0970957281018
0.00039758322850952,16.0973153685694
-0.00791985727761271,16.097535009037
-0.0143566476500841,16.0977225869763
-0.0202894344995438,16.097912794732
-0.026225441327284,16.098124302578
-0.0319311076877166,16.0983536712524
-0.0372587466240752,16.09859885907
-0.0421270825735762,16.0988591968374
-0.0464944254414527,16.099134927681
-0.0503413870765033,16.0994269537168
-0.0539065169633691,16.0997635888853
-0.0566229894680231,16.1000921678166
-0.058826977811926,16.1004424823389
-0.0605355604855762,16.1008179779625
-0.0617629384802137,16.1012224350244
-0.0625223869236588,16.1016605217276
-0.0628247708069917,16.1021380682852
-0.0626768479863827,16.1026624727671
-0.0620786256323401,16.1032436754621
-0.0610179571197326,16.103895894341
-0.0594667157313109,16.1046380812578
-0.057368191847478,16.10549931668
-0.0546029206440835,16.10653110307
-0.0508493302057064,16.1078572492399
-0.0468457358859081,16.1092418621439
-0.0429883867139317,16.1105813738451
-0.0393200071544036,16.1118799212809
-0.0358611458014402,16.1131396185404
-0.032621908067158,16.1143612428096
-0.0296060607972064,16.1155448933079
-0.0268129673459103,16.1166903430863
-0.0242386928566636,16.1177972237979
-0.0218767639729567,16.1188651198776
-0.0197187700328363,16.1198936112758
-0.0177548777487634,16.1208822852692
-0.0159742851614155,16.1218307284555
-0.0143656224801928,16.1227385050027
-0.0128182555733971,16.1236663435851
-0.0113322649523905,16.124618150998
-0.00991172854713191,16.1255958307752
-0.00856052027284689,16.1266016293529
-0.00728229604166581,16.1276381936225
-0.00608044319729567,16.1287086719226
-0.00495802788633092,16.129816848124
-0.00391774016836351,16.1309673237637
-0.00296183665438454,16.1321657716303
-0.00209207995817237,16.133419299246
-0.00130967339675711,16.1347369882664
-0.00061518783331288,16.1361307294396
-8.47457996725289e-06,16.1376165848004
0.000511448132273137,16.1392171651629
0.000924468626470173,16.1408638873495
0.00124505527830537,16.1425655018683
0.00148850890083275,16.1443406812395
0.00166898055888169,16.1462134050246
0.00179989871272805,16.1482164713571
0.00189446374924584,16.1503979408987
0.00196645892603292,16.1528353771989
0.00203206978593871,16.1556746026997
0.00211645704544478,16.1592859152047
0.00222416194929358,16.1630800427504
0.00235582964237118,16.1668617093015
0.00250845600503508,16.1706404596852
0.0026783585777425,16.1744636761
0.00286221967223596,16.1783692350944
0.00305799560779529,16.1823900810702
0.00326512020869845,16.1865571310862
0.00348440396150897,16.1909012509315
0.00371783303959647,16.1954546635743
0.00396840724570239,16.2002523518567
0.00424012857461162,16.2053334623484
0.0045382583071254,16.210742653211
0.00485935382714207,16.2163481383727
0.00518569415908176,16.2217830307757
0.00552528127239961,16.2271425221252
0.00587877264219804,16.2323896736566
0.00625054457797077,16.2375456161566
0.00664436729286838,16.2426178477037
0.00706450344320829,16.2476163421544
0.00751533269439243,16.2525471685342
0.00800155011438801,16.2574141761732
0.00852824379593225,16.2622189664814
0.00910102333942634,16.2669614219997
0.00972612241471124,16.2716399920452
0.0104105093978089,16.2762521509111
0.0111754432756794,16.2808720991529
0.0120379535020659,16.2855139257719
0.0130179434219015,16.2901862064552
0.0141435949600845,16.2949141313842
0.0154591377989487,16.299756756674
0.0170500287224808,16.3048646667462
0.0191648053425425,16.3107529486183
0.020991532483068,16.3152916721757
0.0229401625778091,16.319830395733
0.0245565776235947,16.3235498570537
0.0258982563286323,16.3267778278598
0.0270258588750998,16.329788658629
0.0279361761595262,16.3327093215297
0.0285752977538589,16.3354846129991
0.0289463854419576,16.3382311422792
0.0290270547160042,16.341089209967
0.0287339169570064,16.3443209705519
0.0277543130263217,16.3486277933674
0.0268713313409213,16.3512670729309
0.0258205298308747,16.3539063524944
0.0247534592291573,16.3563070078725
0.0236839839402246,16.3585579014554
0.022612477365716,16.3607253348084
0.0215417152842126,16.3628461168017
0.0204753608130247,16.3649432540575
0.0194171157987934,16.3670328273837
0.0183704685331093,16.3691270132324
0.0173386274505401,16.3712356170133
0.0163245133186778,16.3733669443291
0.0153307687741436,16.3755283431505
0.0143597701746363,16.377726572231
0.0134136439171492,16.3799680582479
0.0124942752151979,16.3822591081808
0.0116033205243062,16.3846060774594
0.0107422205268209,16.3870155157906
0.0099122050141076,16.3894943277429
0.00911248311243953,16.392055972063
0.00832268053152207,16.3947862678349
0.00754658530086893,16.397704269307
0.00678794525786746,16.4008330144962
0.00605076255121486,16.4041991563968
0.00533927185963653,16.4078336449359
0.00465789455950559,16.4117725832335
0.00401116202085243,16.4160583318952
0.00340358168140291,16.4207411485454
0.00283938506160538,16.4258823475401
0.00232222986864845,16.4315598165301
0.0018548980744622,16.4378778356466
0.00145263965416853,16.4447229614242
0.00112396713718517,16.4520968691585
0.000859915545203211,16.4604174458453
0.000680945927125477,16.4681170611978
0.000520922508840601,16.477391255194
0.000399222957822086,16.487391255194
0.00031581498580207,16.497391255194
0.000259642870253103,16.507391255194
0.000222639919516982,16.517391255194
0.000199029013886711,16.527391255194
0.000184800088978266,16.537391255194
0.000177234820035372,16.547391255194
0.000174512804176129,16.557391255194
0.000175424181247693,16.567391255194
0.000179177666552213,16.577391255194
0.000185277366549281,16.587391255194
0.000193444083931878,16.597391255194
0.00020356510192102,16.607391255194
0.000215663555571402,16.617391255194
0.000229882857146192,16.627391255194
0.000246484098686565,16.637391255194
0.000265856053618927,16.647391255194
0.000288539115026318,16.657391255194
0.000315266744682564,16.6673912551941
0.000347031311970361,16.6773912551941
0.00038518651196938,16.6873912551941
0.000431607670906093,16.6973912551941
0.000486871694331905,16.707060098042
0.000550051930024742,16.7159975254317
0.000622086825627328,16.7242437610232
0.000704174904119721,16.7318523537796
0.000797699065379847,16.7388735777829
0.0009042307595201,16.7453540954466
0.00102554921449442,16.7513372239658
0.00116366770615769,16.7568631891791
0.00132086497104103,16.7619693501199
0.00149972084584598,16.766690408026
0.00170315835077711,16.7710586066982
0.00193449326728076,16.7751039256909
0.00219749457922387,16.7788542642222
0.00249645766773178,16.7823356227219
0.00283629735637019,16.785572289996
0.00322266649360032,16.7885870396334
0.00366211207555645,16.7914013413699
0.00416228717198941,16.7940356039244
0.00473224789245857,16.7965094715996
0.00538288756035761,16.7988422112058
0.00611431993694966,16.801017240805
0.00692340471944494,16.8030272256873
0.00782167893266768,16.8049072401982
0.00882675398293836,16.8066931496435
0.00996742830344259,16.8084259354518
0.0112989515622568,16.8101652351123
0.0130276636753908,16.8121080516424
0.0148436015897734,16.8138941602827
0.0168457807339579,16.8156802689229
0.0185361770802781,16.8171146669286
0.0199898007667024,16.818346082899
0.0212880360407643,16.8194903249473
0.0224468841499322,16.8206018493608
0.0234570828710595,16.8217197489301
0.0242925173210545,16.8228862181716
0.0249030416292219,16.8241663018317
0.0251744844673869,16.8257140682232
0.024843078361151,16.8275614279714
0.0238971534900217,16.8294087877196
0.0227915508053903,16.8308988178117
0.0215554684295596,16.8323032664997
0.0201819727175548,16.8337249984748
0.0186789409938287,16.8352092220613
0.0170537586136428,16.8367933071815
0.0153362966376455,16.8385230060452
0.0140109144205428,16.8399567878145
0.0115935133529901,16.8428728812331
0.00959188250219918,16.8456888224791
0.0080073976929536,16.8482874844361
0.00669815931643408,16.8507803663597
0.00555362734895691,16.8533136687647
0.00454739156679263,16.8559167383387
0.00366101694917206,16.8586128850726
0.0028795911365023,16.8614255733057
0.0022220025228475,16.8642329510863
0.00169429469321155,16.8668863311783
0.0012598607758017,16.8694304441721
0.000892521440329587,16.8719134156834
0.000575225895979574,16.8743711232519
0.000297007050145254,16.8768250927187
4.82906858192306e-05,16.8793088656268
-0.000184914176769731,16.8819367591405
-0.000440979719279316,16.8852175655511
-0.000581160333332839,16.8872137242627
-0.000711590315563718,16.8892098829743
-0.000822614201286792,16.8910195899446
-0.000921605036554833,16.892721117877
-0.00101628397929787,16.8944266589056
-0.00111286184120395,16.8962443748697
-0.00122011908257562,16.8983528710217
-0.00136571304876796,16.9013578985448
-0.00154097457402585,16.905173720848
-0.00168028681441108,16.9083466914302
-0.00181123903650823,16.9114342941067
-0.00195535889522162,16.9149532516543
-0.00212836270623597,16.9193882009933
-0.00232589029408401,16.9249927491924
-0.00246044860987073,16.9298926970503
-0.00252485358088049,16.934290906569
-0.0025075619185619,16.938223653251
-0.00240074043319446,16.9417796357905
-0.00219753493792639,16.9450428576962
-0.00189161987151775,16.9480753807949
-0.00147749733974849,16.9509201577227
-0.00094683140626437,16.953626415843
-0.000279797810414121,16.956269955693
0.0005711389725989,16.9589745214711
0.00174848216625393,16.9620339028147
0.0032342185043794,16.9652695863742
0.00506610202161317,16.968709468918
0.00635264446365539,16.9708666828813
0.00776845334666105,16.9730238968446
0.00916043241989407,16.9749312044569
0.0106131178488949,16.9767083647729
0.0121377122481153,16.9783597978327
0.0138037389471889,16.9799458487912
0.0156287686636476,16.9814624177508
0.0176552138433657,16.9829250061621
0.0199047734623671,16.9843300315787
0.0224152841532059,16.9856838449531
0.0252159332516761,16.9869859295558
0.0283457871992824,16.9882396152822
0.0318479246128985,16.9894478731296
0.0357701345240012,16.9906133918415
0.040165550824784,16.9917386267064
0.0451020676352453,16.9928276962834
0.0506565668864172,16.9938840577479
0.0569204298353224,16.9949113484496
0.0640035222156237,16.9959134401731
0.0720384497292478,16.9968943847847
0.0811913075860718,16.997858942507
0.091669950331392,16.998812381224
0.103742023668041,16.9997609382776
0.117762641303225,17.0007123610383
0.13422165584894,17.00167683283
0.153835179273422,17.0026688982096
0.176644024168393,17.003666948201
0.203144053109942,17.0046759565635
0.234122647359525,17.005710104252
0.270714865601501,17.0067915261927
0.31367918879054,17.0079331050832
0.355721056988617,17.0089707733238
0.390628826431443,17.0098090053198
0.420701942651122,17.0105424543022
0.446999922868247,17.011221424834
0.469745927995307,17.0118744994166
0.488728092187935,17.0125237658299
0.503328766377882,17.0131916249834
0.512309138005016,17.0139075496584
0.513064622285858,17.014721495096
0.502911306259199,17.0155473584603
0.480689867250878,17.0164015915405
0.444849018615845,17.01729671527
0.393610574078948,17.0182417807948
0.349235907176271,17.0189160021183
0.299239036678241,17.0195902234419
0.254618151019611,17.0201485858834
0.216576294240036,17.0206091484687
0.183269498012622,17.021010732239
0.153484368974949,17.0213760357718
0.126508386599833,17.0217185239919
0.10186718406824,17.0220475445241
0.079189830566846,17.0223709494764
0.0581169102404036,17.0226971889356
0.0381575586758347,17.0230391361662
0.0181080045532139,17.0234302911873
0.00958895919645689,17.0236168982448
0.00172893148606442,17.0238035053023
-0.00659659907117133,17.0240201608338
-0.0132092265460255,17.0242098491822
-0.0190975183606504,17.0243954134946
-0.025048660487201,17.0246032091318
-0.030809441350381,17.024829498674
-0.03621477563647,17.0250718891934
-0.0411730496965512,17.0253294862946
-0.0456364318022204,17.025602380993
-0.0495829773948119,17.0258913602627
-0.0532513691372196,17.0262237088283
-0.0560673090581986,17.0265484481351
-0.058368476542841,17.0268944058989
-0.0601717101371708,17.0272648989548
-0.061491192065946,17.02766355586
-0.0623404755425583,17.0280948510488
-0.0627310115231104,17.0285643586023
-0.0626705100413264,17.0290791254097
-0.0621608071103399,17.0296483125728
-0.0611922734570176,17.0302855303966
-0.0597406431466568,17.0310083725381
-0.0577565714349065,17.031843310819
-0.0551382762467175,17.0328355458146
-0.0516315581670218,17.0340848633521
-0.047608049967762,17.0354799423851
-0.0437180999387521,17.0368282189831
-0.0400108690338835,17.0381347650568
-0.0365099796921995,17.0394021239245
-0.0332272287141313,17.0406312924038
-0.0301674726375241,17.0418224802692
-0.0273308565164633,17.0429755135715
-0.0247140377217923,17.0440900467096
-0.0223109973535591,17.0451656716587
-0.0201136666185346,17.0462019694337
-0.0181124566983596,17.0471985272639
-0.0162967242553008,17.0481549341102
-0.0146551828289117,17.0490707614342
-0.0130967342690236,17.049994099832
-0.0115986823956707,17.0509411762061
-0.0101653208725326,17.0519137314196
-0.0088005586820413,17.0529139454227
-0.00750809761241058,17.0539443812858
-0.00629138069170494,17.0550080819428
-0.00515354000497733,17.0561086969342
-0.00409734224997525,17.0572506538356
-0.00312513189308227,17.0584393957345
-0.00223877132637618,17.059681719595
-0.00143957666448752,17.0609862747936
-0.000728246452569415,17.062364328064
-0.000104777949094327,17.0638309977258
0.000431639831782386,17.0654073770004
0.000864759360656947,17.0670457321986
0.00120213248440378,17.0687352491335
0.00145949151701088,17.0704943685942
0.00165117213031713,17.0723457815115
0.00179071093940288,17.0743201901697
0.00189130425948082,17.0764619063187
0.001966529003821,17.0788408874996
0.0020318505618322,17.0815838939188
0.00210946990309322,17.08498776718
0.00221121950073814,17.0887479743887
0.00233802618755769,17.092540000552
0.00248638390515577,17.0963140193214
0.00265276189983548,17.1001206953106
0.00283366815386887,17.1040000054693
0.00302676704750236,17.1079858785711
0.00323119015350219,17.1121095550986
0.00344747576240023,17.1164017513713
0.00367737719956864,17.120894175195
0.00392368074949815,17.1256208955094
0.00419014930810676,17.1306197746145
0.0044817011128061,17.1359337843438
0.00480315518456098,17.1415812001338
0.00512723797811951,17.1470191326273
0.00546517979540175,17.1524020072383
0.00581606496971257,17.1576665803533
0.00618457163493169,17.1628395296317
0.00657427965659908,17.1679260696421
0.00698947911639577,17.1729373107851
0.00743451308663401,17.1778797174308
0.00791404019742172,17.1827577168429
0.00843308175907405,17.1875733082913
0.00899715788001405,17.1923266953263
0.00961239123871348,17.1970165708868
0.0102856159212554,17.2016405442769
0.0110345712663137,17.2062547236872
0.0118785645096387,17.2108928671275
0.0128359440265888,17.2155584255706
0.0139332004946796,17.2202736025066
0.01521066883428,17.2250889286071
0.0167428427432367,17.2301305421863
0.0187254503761442,17.2357953924375
0.0206620954602371,17.2406992808393
0.0222842375969559,17.2445217686014
0.0239496727900652,17.2483442563635
0.0253838809870666,17.2517109627985
0.0265950441791355,17.2547866204584
0.0275994285087375,17.2577443787457
0.0283474621890262,17.2605639779676
0.028828712852469,17.2633072970288
0.0290329957562651,17.2660992147031
0.0289103057202645,17.2691279252971
0.02825839185286,17.2729518576231
0.0274323315357596,17.2758589944482
0.0263730609810794,17.2787661312732
0.0253007086284796,17.2813022404594
0.0242318735187015,17.2836202261129
0.0231611243746288,17.2858245027169
0.0220895376533843,17.2879656420292
0.0210204575651135,17.2900725089584
0.0199576177859968,17.2921641984283
0.0189046306937571,17.2942546279491
0.0178648508371315,17.2963546754947
0.0168413456638831,17.298473328194
0.0158368988871207,17.3006183662282
0.0148540211080832,17.3027968090835
0.0138949658404805,17.3050152189293
0.0129617398274097,17.30727993687
0.0120561153190608,17.3095972672773
0.0111796434935654,17.3119736307204
0.0103336590135944,17.3144157270421
0.00951929740538763,17.3169306616625
0.00872401262457746,17.3195726460083
0.00794048452422846,17.3223922453859
0.00717247069871509,17.3254104192179
0.00642384502982472,17.3286518994723
0.0056987283991415,17.3321453445862
0.0050014532631586,17.3359241125369
0.00433650839751002,17.3400272016836
0.00370843564061527,17.34450057232
0.00312164282158571,17.3493993845884
0.00258012652345765,17.3547920918459
0.00208713771793188,17.3607680263436
0.00164919748282595,17.3673778664733
0.00127958049909991,17.3744710404413
0.00105348691978514,17.3802553568086
0.000821496270162769,17.3881106033315
0.000635091881706483,17.3966523517997
0.000487850487427761,17.405917083294
0.000376052185000283,17.415917083294
0.000299750776266455,17.425917083294
0.000248608797907665,17.435917083294
0.000215110626475884,17.445917083294
0.000193928014817748,17.455917083294
0.000181393473505068,17.465917083294
0.000175031177032735,17.475917083294
0.000173185016180367,17.485917083294
0.000174755897164129,17.495917083294
0.00017902907514815,17.505917083294
0.000185563565580057,17.515917083294
0.000194121190282511,17.525917083294
0.00020462134730111,17.535917083294
0.000217113977308332,17.545917083294
0.000231766903957926,17.555917083294
0.000248865861718351,17.565917083294
0.000268827150945896,17.575917083294
0.000292224634439906,17.585917083294
0.000319835175224608,17.595917083294
0.000352710197822103,17.605917083294
0.00039228688757802,17.615917083294
0.000440562667900416,17.625917083294
0.0004973558854595,17.6354557932096
0.000562239222537703,17.6442676075851
0.000636207688456213,17.65239745658
0.000720496332416525,17.6598984759744
0.000816524586274419,17.666820366971
0.000925903755148023,17.6732092518893
0.0010504579556857,17.6791079438946
0.00119225141017021,17.6845561975001
0.00135362087547164,17.6895909305702
0.00153721219224224,17.6942464331516
0.00174602412577083,17.698554567929
0.0019834596026929,17.7025449630949
0.00225338885981523,17.7062451960316
0.00256022607284538,17.7096809765037
0.00290902705979285,17.7128763366006
0.00330561488856168,17.7158538305215
0.00375674567586833,17.7186347520152
0.00427033566198698,17.721239387665
0.00485578202341615,17.723687330254
0.00552443627133975,17.7259978947576
0.00627109579985573,17.7281403503534
0.00709746645839519,17.7301247917267
0.00801621648215704,17.7319865652688
0.00904677730855377,17.73376222355
0.0102218568807244,17.7354953872113
0.0116080101555309,17.7372550096765
0.0134821573382473,17.7392996829991
0.0151428922507829,17.7408996250677
0.0169448640388767,17.7424995671362
0.018589545283994,17.7438994460097
0.0200270982003541,17.7451245132538
0.0213130730911713,17.7462676998233
0.0224598842687866,17.7473806721997
0.0234571417305091,17.7485023005995
0.0242776475902545,17.7496755080885
0.0248691948053745,17.7509679177312
0.0251101075607452,17.7525452049872
0.0247444630119405,17.7543751702847
0.023785504164402,17.7562051355822
0.0226752350641688,17.7576895213693
0.0214344965503867,17.7590949569828
0.0200571811891936,17.7605199357747
0.0185513474943225,17.7620087845718
0.0169242210306017,17.76359892198
0.015208636549268,17.7653366940006
0.0137379725421292,17.7669454776255
0.0113682888827879,17.7698502499534
0.00941720695074635,17.7726391255306
0.00786752343145059,17.7752195700269
0.0065762918951372,17.7777153908085
0.00544652393035445,17.7802550512729
0.00445295729483606,17.7828668855734
0.00357759878253362,17.7855741370843
0.00280581500315089,17.7884003935417
0.00216966948231273,17.7911600419957
0.00165685270001502,17.7937722956797
0.00123272677071612,17.7962820907918
0.000872711445236927,17.798735747802
0.000560433043500015,17.8011703063656
0.000284708081760473,17.8036151758902
3.48608612812806e-05,17.8061235350391
-0.000206986402284232,17.8088710913329
-0.000401582174439638,17.8113496051215
-0.000577799146818516,17.8138281189101
-0.000709099930947895,17.8158328092755
-0.000817046242082648,17.8175875672612
-0.000915648327028761,17.8192769049666
-0.00101202180119538,17.8210086493781
-0.0011128363257533,17.8229049533371
-0.00123018189766172,17.8252186843318
-0.00143631657087637,17.8295421701233
-0.00161448242708313,17.8335222906948
-0.00175714549887298,17.8368584636107
-0.00190181873418926,17.840375997639
-0.00207153293298315,17.8447066863549
-0.00227420756840409,17.8503860715174
-0.00241550069198362,17.8553453279274
-0.00248938555824951,17.85980432208
-0.00248379608822868,17.8637932938345
-0.00239058397953199,17.8673871649038
-0.0022030009508166,17.8706729803162
-0.00191434573914561,17.8737207160146
-0.00151867714896329,17.8765764502135
-0.00100792508097556,17.8792886099758
-0.000363093569157324,17.8819323148678
0.000462376880751098,17.8846325976654
0.00159983308627759,17.8876624992381
0.00304567637522372,17.8908788585552
0.00484086137561529,17.894313601039
0.00610746130391234,17.8964780200132
0.00749971824542933,17.8986424389874
0.00891608450244575,17.9006243251251
0.0103385016193358,17.9024021353264
0.0118479332390452,17.9040750207235
0.013488372595106,17.9056740707532
0.0152817620979098,17.9072010842148
0.0172705292341255,17.9086726646493
0.0194779479632415,17.9100866250729
0.0219410787643871,17.9114490952864
0.0246870526756671,17.912758754073
0.0277568905526913,17.9140202135195
0.0311913746789819,17.9152357316058
0.0350355089692214,17.9164074902714
0.0393437480131913,17.9175387667416
0.0441809145734897,17.9186332672733
0.0496215273789234,17.9196944034747
0.0557540529209231,17.9207257735969
0.0626842353048923,17.9217311417233
0.0705403521876384,17.9227145672861
0.079481755184055,17.9236806767332
0.0897071600305627,17.9246345717777
0.101471079659365,17.9255822406701
0.115108734196696,17.9265310337416
0.131078170246318,17.9274904853193
0.150039373684487,17.9284739457975
0.17224198858986,17.9294696190812
0.198011707298023,17.9304738145231
0.228087437727492,17.9314995757903
0.263509814913711,17.9325666320127
0.305860935777307,17.9337082716567
0.340486877408144,17.9345727930402
0.376461803010843,17.9354373144237
0.408491807537121,17.9362050108356
0.43652920018345,17.9369025798989
0.460977145022474,17.9375627466484
0.481803020499819,17.9382094321772
0.498587108249655,17.9388642570423
0.510419984316996,17.9395525225847
0.515468987195065,17.9403130957084
0.510666874154373,17.941129935131
0.494380055192012,17.9419679952957
0.465224272038099,17.9428419613668
0.421489843185971,17.9437622698909
0.37458791339956,17.9445407919513
0.331331758996823,17.9451607603009
0.283714512686097,17.9457807286505
0.241577551270875,17.9462986101242
0.205237045726141,17.9467355944229
0.173150252348219,17.9471228569789
0.144318269993817,17.9474790411548
0.118126753050213,17.9478158363152
0.0941448852800027,17.948141864574
0.072014160822967,17.9484649293296
0.0513521832617818,17.9487943451231
0.0315454659995464,17.9491466046619
0.0105300593191769,17.949579307274
0.000871152762632396,17.9498080727926
-0.00782800916148507,17.9500368383112
-0.0142947119058385,17.9502249323259
-0.0202281066875721,17.9504148081849
-0.0261675197598032,17.950626009472
-0.0318787560089962,17.9508550986286
-0.0372131297563417,17.9511000163146
-0.0420887580375081,17.9513600812348
-0.0464635884807306,17.9516355279364
-0.0503182015215633,17.9519272517095
-0.0538901418719801,17.9522633675895
-0.0566142420383661,17.9525915751394
-0.0588255818998329,17.9529414811374
-0.0605412239107716,17.9533165208668
-0.0617753797685968,17.9537204646333
-0.0625413536947561,17.9541579680156
-0.0628500580221799,17.9546348447789
-0.0627083188760678,17.9551584707745
-0.0621162687099573,17.9557387349864
-0.0610619184775462,17.9563898188124
-0.0595173753464967,17.9571305899205
-0.0574263701548799,17.9579899666047
-0.054670514901207,17.9590190527108
-0.050932622592367,17.9603400542536
-0.0469262907145645,17.9617255003491
-0.0430652548549413,17.963065782184
-0.0393927261253173,17.9643650733882
-0.0359294765837593,17.9656255104721
-0.0326857438364569,17.9668478812619
-0.0296653865207973,17.9680322894615
-0.0268678378561669,17.9691785094617
-0.0242892180967206,17.9702861727206
-0.0219230972176309,17.9713548628443
-0.0197610975798198,17.9723841588574
-0.0177934095888758,17.9733736473573
-0.0160092465426395,17.9743229147485
-0.0143972463942795,17.9752315256765
-0.0128487920079422,17.9761588913193
-0.0113616146533206,17.9771102016892
-0.0099398143821229,17.9780873433631
-0.00858726887614477,17.9790925557069
-0.00730763898829043,17.9801284767138
-0.00610431807895672,17.9811982435372
-0.00498037944114603,17.9823056257896
-0.00393852146767993,17.9834552065278
-0.00298101036127291,17.9846526341056
-0.00210961968740618,17.9859049829459
-0.00132556523317557,17.987221288515
-0.000629432115782352,17.9886133746621
-2.10881589069447e-05,17.9900972018025
0.000500428731543775,17.9916952163572
0.000915396433469626,17.9933410340762
0.00123758512857855,17.9950413513349
0.00148233688397312,17.9968148109503
0.00166381923124051,17.9986852526454
0.00179546812986069,18.0006852454803
0.00189047794465375,18.0028624368598
0.00196260079989819,18.0052935404606
0.00202792596027632,18.008122196584
0.00211122367885454,18.0117098089696
0.00221793921131309,18.0154996708313
0.00234886407140745,18.0192850983451
0.00250063600659467,18.0230613861191
0.00266957346554001,18.0268773435932
0.00285235167003776,18.0307716702088
0.0030469115911113,18.0347776891777
0.00325266314376187,18.0389264311871
0.00347038358567264,18.0432486897544
0.00370201516835995,18.0477764617499
0.00395049634875978,18.0525443374314
0.00421973676796487,18.0575909214108
0.00451484767538343,18.0629601640269
0.00483591898526387,18.0685842832989
0.00516114206721357,18.0740211366712
0.00549986960213163,18.0793908389922
0.00585210296675963,18.0846455851127
0.00622234336718791,18.089808864198
0.00661428243751618,18.0948872910887
0.00703219098236499,18.0998913148362
0.00748043097823203,18.1048271830619
0.00796367890810909,18.1096989875415
0.00848699153797664,18.1145084973999
0.00905593769775394,18.1192557316059
0.00967670135198204,18.1239392435891
0.0103561910181734,18.1285565625979
0.0111141164851409,18.1331740126187
0.0119685036610132,18.1378142102614
0.0129385699711855,18.1424834971099
0.0140517367660797,18.1472056994956
0.0153504697804991,18.1520360062182
0.0169151781836664,18.1571137448092
0.0189690991031716,18.1628973963892
0.0208409390510305,18.1675870529659
0.0228486039925569,18.1722767095426
0.0244866589053609,18.1760431727949
0.0258397310235453,18.1792875578554
0.0269771141107219,18.1823047807579
0.0279004360844936,18.1852354504019
0.0285518700338864,18.1880150268576
0.0289355323762032,18.1907601207722
0.0290306711907495,18.193608979872
0.0287587086536556,18.1968125550213
0.0277989328436655,18.2011338539106
0.0269204368180629,18.2037904020982
0.0258698304465091,18.2064469502857
0.0248026448976557,18.2088573431255
0.0237332767101499,18.2111133709264
0.0226618166634065,18.2132836679351
0.0215909462995418,18.2154059992254
0.0205243128536255,18.2175038105529
0.0194656242730711,18.2195934172086
0.0184183809030144,18.2216871335354
0.0173858043969142,18.2237948507224
0.0163708288144279,18.2259249283012
0.0153761091941414,18.2280847484149
0.0144040339366842,18.2302810890702
0.0134567409375953,18.2325203852061
0.0125361258650812,18.2348089444235
0.0116438562197767,18.2371531122706
0.0107813817510148,18.2395594251101
0.00994994219031941,18.2420347631743
0.00914983894789322,18.2445889460474
0.00835948426964716,18.2473109505684
0.00758266832070353,18.2502196587497
0.00682312668411153,18.2533379540433
0.00608485024415596,18.256692304445
0.00537206370165451,18.2603134400231
0.00468918135153173,18.2642371980616
0.00404073156654682,18.268505615716
0.00343122789249062,18.2731685224683
0.00286492090194557,18.2782866162518
0.00234550358032761,18.2839368148734
0.0018758015094195,18.2902218882405
0.00147032011525104,18.2970441541418
0.00113766597234365,18.3043907763113
0.000894914979289624,18.3118240204017
0.000702007107099759,18.3197609284337
0.000538026985191449,18.3288933226398
0.000410920766117342,18.3388933226398
0.000323701640296909,18.3488933226398
0.00026484803916543,18.3588933226398
0.000225968859802508,18.3688933226398
0.000201046514382916,18.3788933226399
0.000185894746871066,18.3888933226399
0.000177670595667828,18.3988933226399
0.000174467766196648,18.4088933226399
0.000175017523483487,18.4188933226399
0.000178487665955233,18.4288933226399
0.000184353108029468,18.4388933226399
0.000192313093365467,18.4488933226399
0.000202238234513478,18.4588933226399
0.000214137908539178,18.4688933226399
0.000228143120728286,18.4788933226399
0.000244502532945847,18.4888933226399
0.000263591093037783,18.4988933226399
0.000285932399102068,18.5088933226399
0.000312238100056117,18.5188933226399
0.000343470799451981,18.5288933226399
0.000380941972912384,18.5388933226399
0.000426465014781272,18.5488933226399
0.000481055773627094,18.5586417362344
0.000543494069401664,18.5676554462075
0.000614688080886333,18.5759719008272
0.000695818655312042,18.5836450121223
0.00078825194493307,18.5907254965916
0.000893541568567082,18.5972604231686
0.0010134468332623,18.6032934808671
0.00114995852119098,18.6088652372333
0.00130532986536196,18.6140133664971
0.00148211188296117,18.6187728603328
0.00168319468711145,18.6231762297232
0.00191185648307196,18.6272536996707
0.0021718228433873,18.6310333944995
0.0024673386281437,18.6345415197054
0.0028032591428361,18.6378025489261
0.00318516598799521,18.6408394200649
0.00361951952878531,18.6436737453775
0.00411386499889109,18.6463260514194
0.00467712054564671,18.6488160707412
0.00531999697312901,18.6511631199267
0.00604489782767824,18.6533569919268
0.00684667814190767,18.6553825979544
0.00773647305757969,18.6572750580884
0.00873128796767671,18.659070205417
0.00985866750073549,18.660808390527
0.0111706139437285,18.6625469311564
0.0128519791567391,18.664464276695
0.0147297741386367,18.666331595956
0.0163281953743398,18.6677774275572
0.0180130481289769,18.6692232591584
0.0195181974030415,18.6704964604318
0.0208602356877022,18.6716621725749
0.0220620073101591,18.6727808902302
0.023120091175712,18.6738937599369
0.0240138833471642,18.6750403795205
0.0247028134597709,18.6762751776732
0.0251029553533549,18.6777080118696
0.0249107560148753,18.6797937059536
0.0242372815541393,18.6813325794779
0.0232088065877676,18.6828714530022
0.0220335078980551,18.6842851631059
0.0207164063618892,18.6856932564891
0.0192659391791005,18.687148413034
0.0176911799448123,18.6886879893767
0.0167060786405955,18.6896511828349
0.0157459150021954,18.690614376293
0.0131785020617126,18.6934287328273
0.0108130390016156,18.696436535784
0.00897204721292757,18.6991771746492
0.00750767105936037,18.7017141407539
0.00626249575954079,18.7042180991333
0.00517097273665497,18.7067744452948
0.00421046132125553,18.7094092155748
0.00336401199640052,18.7121455564587
0.00261765738621916,18.7150074309144
0.00201536644494474,18.7177429269065
0.00152740970198115,18.7203400395643
0.0011212822761762,18.7228471090699
0.000774629315852129,18.7253088566821
0.00047296391473346,18.7277569857376
0.000206152176918178,18.7302169673559
-3.68255586465222e-05,18.7327503253718
-0.000276068519422338,18.735571526997
-0.000454752438563955,18.7379243856425
-0.000617813471073892,18.7402772442879
-0.000744163367358105,18.7422459208941
-0.000849806255579989,18.7439939959035
-0.000947006235077714,18.7456861918901
-0.00104259111141723,18.7474288843265
-0.0011433220009543,18.7493486785333
-0.00126222728327834,18.7517212435198
-0.00148039799814621,18.7563498451789
-0.00167010559474035,18.7606358915751
-0.00182285271985902,18.7642493698735
-0.00197840273590875,18.7680837567865
-0.00216554508710981,18.7729759407576
-0.00234993269470314,18.7784493819275
-0.00246838443880283,18.783219380417
-0.0025141105117618,18.7875013287185
-0.00247638530178771,18.791337255122
-0.00234782789590322,18.7948141647787
-0.00212163685138239,18.798014575318
-0.001791736206418,18.8009943326996
-0.00135235869810297,18.8037967736724
-0.000793386606355443,18.8064760482734
-9.0030918774492e-05,18.8091178040015
0.000823051325979086,18.8118821237561
0.00206447284506026,18.8149731832969
0.00362991116939176,18.8182639319108
0.0054899471351244,18.8216531923527
0.00673852568685971,18.8236886143311
0.00811210096546078,18.8257240363095
0.0095438698120321,18.8276292892453
0.0109927494829504,18.8293460315812
0.0125558055004823,18.8309834179361
0.0142695173033278,18.8325576088764
0.0161436371286452,18.8340578149609
0.0182275701988702,18.8355052373334
0.0205415505087801,18.8368951363142
0.0231251497475194,18.8382344702369
0.0260116517762348,18.8395242185325
0.0292350587004052,18.8407649208867
0.0328430211141671,18.8419610432743
0.0368853230406154,18.8431153605658
0.04141977612798,18.8442309353757
0.0465124605652215,18.8453107221445
0.0522458074066314,18.8463587529996
0.0587157359382781,18.8473787286368
0.0660378135669928,18.848374585696
0.0743532013535379,18.8493506008819
0.0838362812497827,18.8503114615362
0.0947093176961171,18.8512627277364
0.107259749542867,18.8522109663145
0.121872418390405,18.8531644448394
0.139085326715235,18.8541342498528
0.159567177968061,18.855130595844
0.183291894372558,18.8561301415998
0.210892702237777,18.8571438470233
0.243226877090468,18.8581873819176
0.28157414854422,18.859286423421
0.325665548912907,18.860429692476
0.365533007764422,18.8614012390942
0.399011052432453,18.8622045133265
0.428063052470732,18.8629199492109
0.453451196863304,18.8635895447354
0.475268215560922,18.8642392879093
0.493203883970971,18.8648908114662
0.50651188558543,18.8655675884927
0.513707145268502,18.8663027697219
0.511882984734426,18.8671177503853
0.498902167075821,18.8679489998236
0.473500551144355,18.8688121634354
0.434049917451898,18.8697187336405
0.378741609556118,18.8706776136278
0.335580977963401,18.8713058434355
0.287832589243818,18.8719340732431
0.245129679395699,18.872462201393
0.208364036354898,18.8729056771121
0.17596612344091,18.8732970262932
0.146889317035794,18.8736558775375
0.120495737377409,18.873994376736
0.0963444116637476,18.8743213281672
0.0740751334955108,18.8746445222792
0.0533149509756934,18.8749729660546
0.03349504769769,18.8753218741537
0.0128945357967224,18.8757393215442
0.00170718223173598,18.8760005011279
-0.00561970640423415,18.8761899346638
-0.0123135443243776,18.8763793681996
-0.0181539756243208,18.8765606423211
-0.024113724893022,18.8767650593248
-0.0299195460572269,18.8769885488458
-0.03539042563676,18.8772284031232
-0.0404253154715684,18.8774835281007
-0.0449707989494029,18.8777538816045
-0.0490018853598884,18.8780401514966
-0.0526284712149194,18.8783559782682
-0.0555496964876767,18.8786763575623
-0.0579553222605676,18.8790175997661
-0.0598601282359803,18.8793827215293
-0.0612782167635985,18.8797751975547
-0.0622233900678826,18.8801993103782
-0.0627076603461403,18.8806603828321
-0.0627396571412475,18.8811651208676
-0.0623226857297402,18.881722140543
-0.0614498846428722,18.8823440927753
-0.0601004730693891,18.8830475066868
-0.0582316191136756,18.8838565395223
-0.0557562705836449,18.8848111144001
-0.0524697124617672,18.8859932878244
-0.0484259269166302,18.8873998093705
-0.0445030805816995,18.8887570672491
-0.0407559714795677,18.8900717919929
-0.0372116492354645,18.8913469887825
-0.0338837565590041,18.8925838855691
-0.0307783201091334,18.8937828070189
-0.027896319256383,18.8949436331175
-0.025235044400606,18.8960660403347
-0.022788965298175,18.8971496267584
-0.0205503845245351,18.8981939727084
-0.0185099828565139,18.8991986634948
-0.0166572964455352,18.900163288573
-0.0149811388217175,18.9010874248948
-0.0134111409872019,18.9020060884486
-0.0119005006975569,18.9029482590949
-0.0104537424890839,18.9039155079531
-0.00907480997130707,18.9049099479158
-0.00776745095249139,18.9059340576381
-0.00653516471879621,18.9069907741881
-0.00538115032461775,18.9080836126033
-0.00430825260313688,18.9092168268952
-0.0033189058306694,18.9103956319455
-0.00241507456301042,18.9116265177576
-0.00159819046737481,18.9129177091167
-0.000869082770451324,18.9142798646593
-0.000227897662660635,18.9157271923699
0.000326002671235643,18.9172793413232
0.000780781328020179,18.9189096215847
0.00113627943621804,18.9205872757725
0.00140872450884708,18.9223306219111
0.00161265722713777,18.9241611251008
0.00176174472865878,18.9261075281881
0.00186920665525787,18.9282107048071
0.00194846066059142,18.9305338431054
0.00201438366764365,18.9331876089386
0.00208696025812393,18.9364137583803
0.00218376032982427,18.9401536550727
0.00230581383125504,18.9439555900285
0.00244998403254832,18.9477289280692
0.00261301699479426,18.9515268354864
0.00279128039091571,18.9553908946036
0.00298214397931017,18.9593558074421
0.0031844235528656,18.9634531168224
0.00339837339925258,18.9677135081286
0.00362551027878844,18.9721684236606
0.00386841947382778,18.9768514157704
0.00413066589583257,18.9817995895567
0.0044169167956414,18.9870549141616
0.00473340598310281,18.992665663167
0.00505613733932118,18.998140053641
0.0053910509498834,19.0035402264498
0.00573868080736357,19.0088279157037
0.006103025109303,19.0140198062505
0.00648777415677007,19.0191236920854
0.00689711908225957,19.0241504064775
0.00733536445890445,19.0291071607447
0.00780709063135703,19.033998825949
0.00831722336934636,19.0388278379701
0.00887116198520004,19.0435947457001
0.00947488758426153,19.0482985290327
0.0101350688165122,19.052936977163
0.0108653305842782,19.0575441566437
0.0116877111697355,19.0621782299628
0.012618763018872,19.0668364398826
0.0136831883381481,19.0715380843142
0.0149173078019902,19.0763249913789
0.0163850186067953,19.0812997146434
0.0182380147128137,19.0867607658177
0.0207144324591533,19.0931119492367
0.0223113933111264,19.0968707133665
0.0239491992937161,19.1006294774963
0.0253816887816501,19.1039920888071
0.0265930159039044,19.1070677782479
0.0275976573213318,19.1100255880778
0.0283460441668675,19.1128453745991
0.0288276510433913,19.1155887336459
0.0290323263385506,19.1183805056401
0.0289101478358772,19.1214087160763
0.0282593674432408,19.1252305415425
0.027433528048008,19.1281388543039
0.0263741981207285,19.1310471670653
0.0253018231596335,19.1335838256779
0.0242329979357111,19.1359020783067
0.0231622608414289,19.1381065125663
0.0220906806918137,19.1402477549764
0.0210215999568103,19.1423546929143
0.0199587523562627,19.1444464323012
0.018905750539304,19.1465368973832
0.0178659492077193,19.1486369710453
0.0168424165447851,19.1507556429655
0.0158379359907974,19.1529006972659
0.0148550188457047,19.1550791549839
0.0138959187541922,19.1572975808797
0.0129626417799898,19.159562320708
0.0120569625688225,19.1618796760993
0.011180430656165,19.1642560751711
0.0103343808833396,19.1666982215523
0.00951994986652015,19.1692132223054
0.00872466490247486,19.1718550383552
0.00794113143967463,19.1746744522375
0.0071731073923868,19.1776924183294
0.00642446630248083,19.1809336650995
0.00569932927035462,19.1844268440676
0.00500202670633129,19.188205317247
0.0043370479693894,19.1923080743467
0.00370893469337622,19.1967810704597
0.00312209480591506,19.2016794583671
0.00258052536847785,19.2070716797306
0.00208747821071353,19.2130470468528
0.0016494596845266,19.2196564905942
0.0012797700169239,19.2267491819689
0.00105734651678044,19.2324331032959
0.000824800969416369,19.2402759859271
0.000637783145724829,19.2488081932595
0.000489999169078485,19.2580625051711
0.000377633537604756,19.2680625051711
0.000300941348045392,19.2780625051711
0.000249532839747683,19.2880625051711
0.000215854266682043,19.2980625051711
0.000194550166856465,19.3080625051711
0.000181934163292436,19.3180625051711
0.000175517532113349,19.3280625051711
0.000173635360689504,19.3380625051711
0.000175182486793627,19.3480625051711
0.000179439928673357,19.3580625051711
0.000185963710434531,19.3680625051711
0.000194513521285401,19.3780625051711
0.00020500722103745,19.3880625051711
0.000217493621126294,19.3980625051711
0.000232139693665058,19.4080625051711
0.000249230506382644,19.4180625051711
0.000269181812412138,19.4280625051711
0.000292567001806432,19.4380625051711
0.00032016251031194,19.4480625051711
0.000353019366951824,19.4580625051711
0.000392574399080527,19.4680625051711
0.000440824747102099,19.4780625051711
0.000497567615079213,19.4875977725154
0.000562391361723003,19.4964064687964
0.000636291250004066,19.5045336076791
0.000720501607211397,19.5120322715152
0.000816440840404789,19.5189521108752
0.00092571899804753,19.5253392043042
0.00105015871320288,19.5312363269296
0.00119182247547885,19.5366831999311
0.00135304501565393,19.5417167118038
0.00153646980279896,19.5463711265503
0.00174509281373467,19.5506782835418
0.00198231367877091,19.5546677898315
0.00225199870109805,19.5583672033919
0.0025585573273767,19.5618022158759
0.00290703960258161,19.5649968420537
0.00330326143395838,19.5679736190059
0.00375396987345768,19.5707538228609
0.00426706938275374,19.5733577210858
0.00485194134376046,19.5758048843524
0.00551991523901569,19.5781146001545
0.00626598444605997,19.5802566683118
0.00709164867856048,19.5822404951984
0.00800950439450443,19.5841013581863
0.00903885656697408,19.5858756953121
0.0102121303132393,19.5876068579113
0.0115945798504736,19.5893624516055
0.0134586465821342,19.5913971772736
0.0151308639573084,19.593008043644
0.0169473185771023,19.5946189100143
0.0185970971702448,19.5960205677545
0.0200375525790261,19.5972454741103
0.0213260119327659,19.5983880520393
0.0224752231741794,19.5995001798451
0.0234749188885034,19.6006207313123
0.0242980125515035,19.6017925341601
0.0248925052572201,19.6030829114047
0.0251375068518785,19.6046562282427
0.02477595095053,19.6064870227105
0.0238185081293936,19.6083178171784
0.0227085423306124,19.609802140649
0.0214678775381261,19.6112069542282
0.0200903447376572,19.6126311527147
0.0185839849185453,19.6141191509591
0.0169560326135212,19.6157083739407
0.0152388056695874,19.6174451323348
0.0137942146908719,19.6190214331726
0.0114142306758743,19.6219289314572
0.00945281106158827,19.6247232512403
0.00789603528376172,19.6273073175866
0.00660114279549791,19.6298024131697
0.00546838079091242,19.6323406495674
0.00447225328489424,19.6349505626519
0.00359467604490461,19.6376554062417
0.00282095801401481,19.6404787398877
0.00217920792480626,19.643254076033
0.00166258789380998,19.645880072904
0.00123588255252428,19.6484018108229
0.000874089204962537,19.6508660700935
0.000560723524988378,19.6533089774204
0.000284779543052682,19.6557564255682
3.60472532662374e-05,19.6582537670123
-0.000201672300217709,19.6609509661162
-0.000407371196988885,19.6635724466768
-0.000552664770751702,19.665606082339
-0.000687477628502809,19.6676397180013
-0.000799619646386133,19.6694448114827
-0.000899580634970097,19.6711434070416
-0.000995264920439227,19.6728493717628
-0.00109294846123389,19.6746714073468
-0.00120166566318205,19.676792733722
-0.00135087963574591,19.6798568024217
-0.00152373620791681,19.6836089679934
-0.00166159786694037,19.6867436367633
-0.00179226783712823,19.6898236219958
-0.00193632142802429,19.6933446909665
-0.00210929222599349,19.6977886744728
-0.00230694714794323,19.7034123454174
-0.00244124401213127,19.7083098610463
-0.00250615604621266,19.7127096166645
-0.00249004819777354,19.7166461751456
-0.00238508470884001,19.7202003089605
-0.00218444116375994,19.7234589100296
-0.0018817507226483,19.7264849004026
-0.00147124305539941,19.7293234378674
-0.000944316618923874,19.7320246805682
-0.000281131077962857,19.7346638873179
0.000570453623478263,19.7373784493412
0.00174551286275385,19.7404381889378
0.00323019145607221,19.7436777509444
0.00506192171030178,19.7471239959408
0.00634402625065171,19.7492780733989
0.00775480599286925,19.7514321508571
0.00914344865331574,19.7533388864297
0.010591206474083,19.7551135926634
0.0121127587685597,19.7567649189036
0.0137756532255503,19.7583508221805
0.0155979323942567,19.7598676173844
0.0176215906939641,19.761330439964
0.0198683371253885,19.7627357265505
0.0223758510509884,19.7640897625071
0.0251731648728191,19.7653919894328
0.0282994087005979,19.7666458062022
0.0317974925190292,19.7678541465219
0.0357150920651497,19.7690196965968
0.0401052207621866,19.7701449118124
0.0450356152547552,19.7712339085777
0.050582961816553,19.7722901398272
0.0568383871501895,19.7733172362075
0.063911416056764,19.7743190596093
0.0719341915423499,19.7752996482353
0.0810721320812954,19.7762637405269
0.0915321138734261,19.7772165745998
0.103580270863922,19.7781643419063
0.117569261455182,19.7791147169957
0.1339846763374,19.780077760576
0.153534459175772,19.7810677887515
0.176292949560172,19.7820647515866
0.202729472808015,19.7830722545899
0.233624160991534,19.7841042517897
0.270096825219747,19.7851824135444
0.313061137490193,19.7863233977118
0.355468970800412,19.7873681103123
0.390589690310657,19.7882087773004
0.420805197550064,19.7889426361311
0.447225395771353,19.7896212253885
0.470091264580451,19.7902734792891
0.489200853518759,19.7909215839133
0.503946228033311,19.7915879334405
0.51310310796723,19.792301901691
0.514086960951668,19.7931149714485
0.50416632663429,19.7939397995663
0.482187539342021,19.7947929616696
0.446599229047422,19.7956871152492
0.395616325809668,19.7966313396558
0.351016931552609,19.7973105626152
0.300677647758816,19.7979897855746
0.255777644565906,19.7985512756905
0.217549172505745,19.7990134674497
0.184108956119618,19.7994159249342
0.154219859756383,19.7997817052109
0.12715844168671,19.80012442419
0.102445044268182,19.8004534930767
0.0797062396230756,19.8007767795395
0.0585823780558237,19.8011026981478
0.0385868740159807,19.8014439599436
0.0185454596757195,19.8018331718294
0.00998652139829966,19.8020196740401
0.00208812915886139,19.8022061762508
-0.00640317701125804,19.8024260756789
-0.0130540424246449,19.8026160857232
-0.0189382476462173,19.8028007326159
-0.0248951837816555,19.8030077439716
-0.0306684078754311,19.8032333423139
-0.0360898325890322,19.8034750797365
-0.0410660461113502,19.8037320258437
-0.0455481486365206,19.8040042469414
-0.0495138805458075,19.8042925110397
-0.0531884408093158,19.8046225119533
-0.0560254552771535,19.8049462818769
-0.0583471769041682,19.8052911846858
-0.0601702295154606,19.8056604944299
-0.0615088031564368,19.8060578114837
-0.0623765154095893,19.8064875751122
-0.0627849356506543,19.8069553136457
-0.0627419534104098,19.8074680123083
-0.0622497300352487,19.8080346914957
-0.0612990808052745,19.8086688627614
-0.0598663701912591,19.8093878942189
-0.0579034093631443,19.8102178370552
-0.0553110707327805,19.8112029188031
-0.0518445113437528,19.8124395194169
-0.0478148257901795,19.813836901218
-0.0439161908635573,19.815187130129
-0.0401989253966913,19.8164955228593
-0.0366873071190022,19.8177646969671
-0.0333935026662381,19.8189956848958
-0.030322614877064,19.8201887126504
-0.0274749715429109,19.8213436125088
-0.0248473724576945,19.8224600400573
-0.022433910451146,19.8235375861575
-0.0202266023020457,19.8245758300089
-0.0182159213861217,19.8255743573237
-0.016391265493151,19.8265327565177
-0.014741370522905,19.8274505999811
-0.0131801359619252,19.8283727946984
-0.011679049102077,19.8293186709141
-0.0102424589304933,19.8302899282035
-0.00887428294908528,19.831288729932
-0.007578234279397,19.8323176183136
-0.00635776982439467,19.8333796101269
-0.00521603820002181,19.834478321667
-0.00415582540496056,19.8356181375724
-0.00317949811103519,19.8368044444046
-0.00228894400400641,19.8380439629653
-0.00148550786400261,19.83934523705
-0.000769920750888512,19.8407193817491
-0.000142217142344006,19.8421812875241
0.000398370386930489,19.8437516843187
0.000836629443613293,19.8453880101535
0.00117828776837245,19.8470745687365
0.00143919230226155,19.8488297596041
0.00163372585592427,19.8506759651014
0.00177545306701946,19.8526433911053
0.00187757042612189,19.8547754723369
0.00195360644386411,19.8571404209619
0.00201886109413969,19.8598607701989
0.00209490907800635,19.8632183110265
0.0021951251680787,19.8669722254449
0.00232056691386869,19.8707685004737
0.00246762538449045,19.8745420129069
0.00263281453994263,19.8783445689165
0.0028126027970431,19.8822168495856
0.00300458237780323,19.8861931207364
0.00320780564140671,19.8903047510168
0.00342273383180548,19.8945824401334
0.003651047458024,19.8990577724024
0.00389545880534395,19.9037645799013
0.00415964319246959,19.9087403801667
0.00444839567910917,19.9140276920514
0.00476813812357801,19.9196754598591
0.00509101751793413,19.9251263318311
0.00542736659846732,19.9305201548205
0.00577639657703326,19.93579588952
0.00614265235114008,19.940978658053
0.00652970287694516,19.9460740100216
0.00694180502919357,19.9510932157509
0.00738327151750978,19.9560430257632
0.00785871841984197,19.9609281045758
0.00837311363393793,19.9657506588264
0.00893191246407961,19.9705110668314
0.00954116240324839,19.9752081656264
0.0102076101714824,19.9798396519994
0.0109468419020957,19.9844502257053
0.0117795868501053,19.9890862286014
0.0127232528984729,19.9937478998871
0.0134253211194457,19.9968739499435
0.0141897233066642,20
