ecg,time
0.000150893756493723,15.0091689753868
0.000147284589604981,15.0191689753868
0.000146716725079633,15.0291689753868
0.000148461428047719,15.0391689753868
0.000152041592912694,15.0491689753868
0.000157160505144578,15.0591689753868
0.000163654351734824,15.0691689753868
0.000171460654978913,15.0791689753868
0.000180598250310302,15.0891689753868
0.000191156191249483,15.0991689753868
0.000203289990740334,15.1091689753868
0.000217224419084255,15.1191689753868
0.000233262885698749,15.1291689753868
0.000251804342605876,15.1391689753868
0.000273369797906821,15.1491689753868
0.000298642155732104,15.1591689753868
0.000328525624573731,15.1691689753868
0.000364235112107042,15.1791689753868
0.000407433265748317,15.1891689753868
0.000459887310388285,15.1990724129434
0.000519864904054714,15.2082381586521
0.000588189363555729,15.2166975590903
0.00066596841314719,15.2245044837302
0.000754490663386808,15.2317099051071
0.000855224677721586,15.2383611923241
0.000969834691424195,15.244502353533
0.0011002045359862,15.2501742831428
0.00124846656279564,15.2554149811261
0.00141703497646377,15.2602597537528
0.00160864369951611,15.2647414091667
0.00182639200563469,15.2688904476566
0.00207379822417569,15.2727352425857
0.00235486505783569,15.2763022143693
0.00267416101545013,15.2796160085099
0.00303692267115737,15.2826996812481
0.00344918794464635,15.2855748934899
0.00391797245736856,15.2882621256681
0.00445151181416476,15.2907809313923
0.0050596068017743,15.2931502528208
0.00575413575899804,15.295388845782
0.00652220010531881,15.2974482284461
0.00737184368412293,15.2993595602572
0.00831660918664549,15.3011571087381
0.00937714086899915,15.3028763112992
0.0105886480851347,15.3045605353717
0.0120420404595713,15.3063006033441
0.014046353455979,15.3083607832367
0.0157595385802694,15.3099186441561
0.0176085414224859,15.3114765050754
0.019254801086114,15.3128147386487
0.0207019342951971,15.3139997106793
0.0219993954454256,15.3151146673322
0.0231553161383712,15.3162069593258
0.024156618456462,15.3173146858737
0.0249727634842281,15.3184826062705
0.0255444909356373,15.3197860397962
0.0257219184638383,15.3214313416187
0.0252803018574093,15.3231683576678
0.0242968947786565,15.3249053737168
0.0231666275101011,15.3263511263721
0.0218969220128676,15.3277412495014
0.0204855254393758,15.3291602301498
0.018940974511991,15.330650075481
0.0172696440683422,15.3322490291406
0.0155051901699121,15.3340066117164
0.0137073031943651,15.3359599133097
0.0113185050553858,15.3389005520406
0.00938736079205652,15.3416801191671
0.00785634830913184,15.3442499977483
0.00657812848438695,15.3467433033016
0.00546065506361234,15.3492819098657
0.00447912711010447,15.3518936826144
0.00361578897478637,15.3546017748373
0.00290395895741017,15.3572368665264
0.00232838973260867,15.3597333322076
0.00185329596781087,15.3621262453779
0.00145131051112811,15.3644609357357
0.00110101891912481,15.3667966413678
0.000783384948012456,15.3692267988064
0.000472205500702819,15.3719783091887
0.000243532582699326,15.3742972114706
4.06499405667585e-05,15.3766161137526
-0.000112609621826702,15.3785626306382
-0.000237317217622164,15.3802899557222
-0.000348976976792499,15.3819597108389
-0.00045566179536992,15.3836757615843
-0.000564478951496103,15.3855600680087
-0.000687572114887228,15.387871353774
-0.00090101818484698,15.3923880412126
-0.00107589204045309,15.3966444208426
-0.00120742438528283,15.4002313446605
-0.00133270469411573,15.4040096238729
-0.00147386726854425,15.4088091693125
-0.00160784189468382,15.4142985242948
-0.0016899237830519,15.419101700785
-0.0017189646269455,15.4234441218298
-0.00168696030582005,15.4273453650772
-0.00158656957098574,15.4308559141316
-0.0014106277644694,15.4340398219392
-0.00115124940116891,15.436962866509
-0.000798280770569061,15.4396908779249
-0.000337006692267267,15.4422898326899
0.000257082278536403,15.4448358364009
0.00103053939878062,15.4474354330401
0.00209587383302972,15.4503008498054
0.00350854577173563,15.4534063205407
0.00526969551991769,15.4566514821964
0.00655868348060353,15.4587274535552
0.00799896953123629,15.4608034249141
0.0094812356271976,15.4627006623705
0.0110386344536293,15.4644617890784
0.0126601219889962,15.4660734054104
0.0144412289697528,15.4676223237148
0.0163906985893838,15.4690977227965
0.0185537580656778,15.4705170371457
0.0209643217952318,15.4718842054979
0.0236495029785118,15.4731980266756
0.0266519344898073,15.474464049909
0.0300097902348768,15.475683546371
0.0337681458159325,15.4768590084256
0.037982194076257,15.4779941485618
0.0427130996080498,15.4790919735246
0.0480322412182293,15.4801556501705
0.0540235293959876,15.481188484044
0.0607902392168078,15.4821944785564
0.0684552758275303,15.483177569906
0.07716909455927,15.4841420519991
0.0871189505589185,15.4850927370149
0.0985417699968431,15.4860351306839
0.111747515664716,15.4869760007336
0.127152126485601,15.4879238401545
0.145339857641314,15.4888901028847
0.166862097005463,15.4898778237053
0.191801806855277,15.4908701861597
0.220831615860874,15.4918783741529
0.254867471559856,15.4929186068303
0.295312230195472,15.4940186780737
0.331962678356587,15.4949316200412
0.370597683654811,15.4958445620086
0.40454533661646,15.496634134046
0.434075252651061,15.4973382142079
0.459895363920081,15.49799678212
0.482129154668053,15.4986362179151
0.500478575029759,15.4992785096897
0.514192390125161,15.4999477999157
0.521741569869571,15.5006791653659
0.520116815813683,15.5014868030362
0.507203153400882,15.5023126246482
0.481702706556388,15.5031728598606
0.441916023644684,15.5040794564811
0.385943955025211,15.5050410646809
0.341630763348349,15.5056791747076
0.292501851934604,15.5063172847342
0.248716782557808,15.5068510663391
0.211195607614568,15.5072968553953
0.17823570243404,15.5076888450302
0.148711850969521,15.5080474775188
0.121947057786071,15.5083852445267
0.097479121985741,15.5087110974934
0.0749353170252236,15.5090328688591
0.0539356827745464,15.5093595044006
0.033911980115248,15.5097059020682
0.0131938356350035,15.5101180204418
0.00141959081880851,15.5103881812572
-0.00595490615428415,15.5105759853548
-0.0126940392574583,15.5107637894523
-0.0185541483680444,15.5109428162539
-0.0245474704346263,15.511145028685
-0.0303954799748406,15.5113663364907
-0.035912493528659,15.5116039854814
-0.0409945624966777,15.5118568449561
-0.045586521307931,15.5121248431737
-0.049662340380772,15.512408642012
-0.053207865752066,15.5127094756001
-0.0562601785258244,15.513034300918
-0.058715012660253,15.5133723303675
-0.0606651583674861,15.5137338672314
-0.0621256036556188,15.5141224323395
-0.0631103446778981,15.5145422514625
-0.0636316525457384,15.5149985757781
-0.0636984797035314,15.51549801986
-0.0633145203199528,15.5160490789124
-0.0624736573041313,15.5166640926629
-0.0611557564162125,15.5173594013946
-0.0593190237042275,15.5181586803871
-0.0568785621362386,15.519100836363
-0.0536366285251807,15.5202648608397
-0.0495585118489868,15.5216773848477
-0.0455960025019163,15.523040065061
-0.0418060016648159,15.5243603052489
-0.0382171880352382,15.5256411837943
-0.0348441785713167,15.5268839493973
-0.0316937001005897,15.5280889231484
-0.0287672890878076,15.5292559702697
-0.0260626937393672,15.5303847483115
-0.0235747570736778,15.5314748362327
-0.0212960760168366,15.5325257974361
-0.0192175506838775,15.5335372041748
-0.0173288662988271,15.5345086379545
-0.0156189212016334,15.5354396739359
-0.0140350561525687,15.536354342617
-0.0125096123913431,15.5372923342903
-0.011047311036909,15.5382550756947
-0.00965211834744818,15.5392446240056
-0.00832781401326725,15.5402633880873
-0.00707793713983125,15.5413142179079
-0.00590573463505706,15.5424005183341
-0.00481410721768206,15.543526401838
-0.00380555300708754,15.5446968980681
-0.00288210822836293,15.5459182491691
-0.00204528389879792,15.5471983391763
-0.00129599618589498,15.5485473423267
-0.000634485939422922,15.5499787482337
-6.02184436068521e-05,15.5515110803525
0.000418960136460233,15.5531349592611
0.000795765729577707,15.5548030741764
0.00108692526577236,15.5565337278861
0.00130720169129501,15.5583474273119
0.00147043394317865,15.5602714096092
0.00158994380983001,15.5623439514069
0.00167914188199057,15.564623258761
0.00175265643793207,15.5672086653618
0.00182936471726245,15.5703065940965
0.00193067307614002,15.5740400319317
0.00206060609977761,15.5779755600073
0.00221178215727895,15.581836137092
0.0023781935674193,15.5856278052806
0.0025564297080576,15.5894179722263
0.00274414772424192,15.5932544683463
0.00294035943176053,15.5971750101841
0.00314534925178718,15.6012124986282
0.00336047286263355,15.6053979279912
0.00358794740082108,15.6097622611457
0.00383068938544907,15.6143378445383
0.0040922725612131,15.619159835431
0.00437707777275452,15.6242675950348
0.00469072441485288,15.6297060101021
0.00502191332121733,15.6352148108901
0.00536163331577615,15.6405967778864
0.00571497795136321,15.6458927811338
0.00608391417309117,15.6510867843979
0.00647263506488747,15.6561933157645
0.00688522586443633,15.6612205617345
0.00732615842517601,15.6661768484557
0.00780012208427078,15.6710674216148
0.00831215718908588,15.6758952109426
0.00886774939023234,15.6806610192465
0.00947294872982518,15.6853639791887
0.0101344820174052,15.6900019879719
0.0108664264252427,15.6946115351375
0.0116904997248557,15.6992480492232
0.0126234264246559,15.7039094920014
0.0136900497343063,15.7086154507194
0.0149269979427539,15.7134085272919
0.0163989552547445,15.718393256557
0.018260717532994,15.7238757675028
0.0207342540244296,15.7302191220509
0.0223262314725864,15.733970548889
0.0239570318649859,15.737721975727
0.0253824111072154,15.7410799740723
0.0265875328935135,15.7441554071891
0.0275860130826002,15.7471159326818
0.0283271255657174,15.7499369934142
0.0288015046558465,15.7526840566331
0.0289983868742737,15.7554828317295
0.0288663652953991,15.7585246670312
0.028194636758175,15.7623903174654
0.0273643129246924,15.7652829214609
0.0263054555312948,15.7681755254564
0.0252331557025166,15.770706824661
0.0241639763097904,15.7730244414524
0.023092944128549,15.7752301059095
0.0220212532036819,15.7773735485546
0.0209522649353714,15.7794833188395
0.0198897097081118,15.7815783627943
0.0188371927030455,15.7836725179714
0.0177980612423884,15.7857766161611
0.0167753771622204,15.7878996149887
0.0157719184820349,15.7900492775118
0.014790192103072,15.7922326093082
0.0138324476742951,15.7944561630453
0.0129006877869911,15.7967262728077
0.0119966838864994,15.7990492271493
0.0111219819505803,15.8014314391798
0.0102779135013298,15.8038795917908
0.00946561102243296,15.8064007658796
0.00867197608120335,15.8090512972591
0.00789029917097738,15.8118801655359
0.00712433552786334,15.8149084339095
0.00637796205297298,15.8181609223728
0.00565529953855516,15.8216663815091
0.00496067339906538,15.8254582772962
0.00429856078203075,15.82957571129
0.00367348133299816,15.8340647653216
0.00308980425147342,15.8389807931492
0.00255147222425399,15.8443925637221
0.00206166996314415,15.850389936462
0.00162687012747936,15.8570232330902
0.00126002968521555,15.8641442695973
0.000964893524438738,15.8719412494308
0.000770840553079542,15.8790100329226
0.000588184152895969,15.8878815907864
0.000450724957061243,15.8970980210058
0.000345304133319742,15.9070980210058
0.000272958963877765,15.9170980210058
0.000224058093019171,15.9270980210058
0.000191578252974364,15.9370980210058
0.000170521157699248,15.9470980210058
0.000157433119607263,15.9570980210058
0.00014997180267534,15.9670980210058
0.000146558587759321,15.9770980210058
0.000146130941632338,15.9870980210058
0.000147978499024727,15.9970980210058
0.000151637031183939,16.0070980210058
0.000156819011438374,16.0170980210058
0.000163367301713145,16.0270980210058
0.000171224398117939,16.0370980210058
0.000180412998780313,16.0470980210058
0.000191025354172047,16.0570980210058
0.000203219859555945,16.0670980210058
0.00021722415072248,16.0770980210058
0.000233344768424282,16.0870980210058
0.000251984369020664,16.0970980210058
0.000273668616607582,16.1070980210058
0.000299086537550877,16.1170980210058
0.000329150678162684,16.1270980210058
0.000365087647213642,16.1370980210058
0.000408576988255231,16.1470980210058
0.000461295392615897,16.1569823096474
0.000521568470556144,16.166129409492
0.000590227411340234,16.1745713911393
0.000668385847387396,16.1823620964208
0.000757338431967999,16.1895524406388
0.000858560342052304,16.1961897353715
0.000973723290445977,16.2023179326116
0.00110471960297789,16.2079778723521
0.0012536913147467,16.213207501917
0.00142306364279954,16.218042077141
0.0016155831331385,16.2225143584086
0.00183436354596479,16.2266548013532
0.00208294002554742,16.2304917379679
0.00236533487099725,16.2340515509367
0.00268613975358979,16.2373588523082
0.00305061897094436,16.2404366699001
0.00346484414856549,16.2433066421388
0.00393587278130975,16.2459892345113
0.0044719937862535,16.2485039956956
0.0050830779754851,16.2508698768436
0.00578109013333902,16.2531056365946
0.00655210318151822,16.2551604391402
0.00740514050135232,16.2570684158001
0.00835399786001394,16.2588639356754
0.0094197543921878,16.2605826702056
0.0106385993145429,16.2622687060384
0.0121070272865486,16.2640180993853
0.0141521525522797,16.2661087675233
0.0158611158570118,16.2676559946975
0.0177005247068253,16.2692032218716
0.0193301877770408,16.2705294666935
0.0207657670196082,16.2717092798333
0.0220532061947891,16.2728225873282
0.0231988888655204,16.2739155864356
0.0241887109585035,16.2750263756835
0.0249909118992391,16.2762006851556
0.0255435707245091,16.2775172691569
0.0256847232006653,16.279201311535
0.0252092290427264,16.2809180256655
0.0242131986609102,16.2826347397961
0.0230760257686679,16.2840746698466
0.0217992274174799,16.285465559647
0.020381388806259,16.286887890793
0.0188311191348658,16.2883829526214
0.0171545159425804,16.289989223031
0.0153882142862069,16.2917572302663
0.0126290483889635,16.2948609261974
0.0103807684079794,16.2978263200894
0.00864431852332481,16.3005097069503
0.00725489445250919,16.303007740626
0.00605361064716017,16.305517293116
0.00500030015750216,16.308086360394
0.00407436129280246,16.3107391892804
0.00327587476487176,16.3134394614208
0.00263463184231513,16.3159910577106
0.00211045464423449,16.3184223154748
0.00167209938018659,16.3207736738322
0.00129543532850833,16.3230973121471
0.000960361591585448,16.3254690421888
0.00064496826336277,16.3280389098499
0.000289727462882812,16.3314470197848
0.000115944295735466,16.3333675133254
-4.18611159880221e-05,16.3352880068659
-0.000173877972529917,16.3370437199559
-0.000290051084569087,16.3387162125771
-0.000399228800666182,16.3404095591453
-0.000508440180385827,16.3422340042231
-0.000627634934867595,16.3443901277605
-0.000792769508320259,16.3476955720837
-0.00095202980341205,16.3512808916997
-0.00107380227245753,16.3543223681867
-0.00118662640954593,16.3574035203159
-0.00130592251529143,16.3609794118443
-0.0014421386648701,16.3655667974437
-0.00158009073911499,16.3711362179146
-0.00166499081815656,16.3759711076378
-0.0016976400906934,16.3803489334881
-0.00167016940260644,16.3842812494867
-0.00157528388250957,16.3878211980569
-0.0014058838047491,16.3910289798538
-0.0011544735677878,16.3939673119641
-0.00081103177721183,16.3967050645299
-0.000360946110362508,16.399309967738
0.000217832481996495,16.4018505059607
0.000970811027006916,16.4044373561436
0.00200569790821323,16.4072776829234
0.00338861147314622,16.4103730470911
0.00512042232188249,16.4136157903756
0.00642576539756191,16.4157485498745
0.00788698747371283,16.4178813093734
0.00938282809075611,16.4198173468646
0.0108955755124676,16.4215474249081
0.0125226171059555,16.4231846210321
0.0142781731150386,16.424729641905
0.0162148148881381,16.4262132080386
0.0183584820577198,16.4276366685417
0.0207471840506338,16.429007635504
0.0234090071395912,16.4303255324848
0.0263850391289318,16.4315952735306
0.0297122562348481,16.432817883099
0.0334370328212809,16.4339965239402
0.03761295424435,16.4351345440783
0.0423003670039357,16.4362349418464
0.0475684298509968,16.437300638798
0.0535022220541554,16.4383354159704
0.0602024259677307,16.439343031975
0.0677898911546747,16.4403273873139
0.0764123938702011,16.4412927336271
0.08625347500296,16.4422438146535
0.0975448748466475,16.4431860413763
0.110589120720043,16.4441260513675
0.125790431324822,16.4450721073906
0.143713609426027,16.4460352719201
0.164980910048515,16.4470222865894
0.189616391946188,16.4480130185326
0.218275721298615,16.4490182747057
0.251845640828559,16.4500535795143
0.291661695282337,16.4511449709533
0.337557951070227,16.4522851526524
0.377308465739456,16.4532175041342
0.41057549088921,16.4539902943291
0.43946173422393,16.4546831027566
0.464687247900815,16.4553356526537
0.486301285454148,16.4559731446772
0.503935212258156,16.4566175262956
0.516734923698297,16.4572941230168
0.522950305318071,16.458041832907
0.519443651939831,16.4588507543975
0.504443569288869,16.4596810853256
0.476570185256538,16.4605484645335
0.434065046926826,16.4614641091806
0.375004773500338,16.4624366953763
0.331614623328451,16.4630432425464
0.284094505523407,16.4636497897166
0.241664520604232,16.4641626395965
0.205056236145769,16.4645963465336
0.172754452951304,16.4649809750083
0.143746752333606,16.4653349282995
0.117407170315841,16.4656698115324
0.0932959733384542,16.465994225215
0.0710458475546761,16.466316018478
0.0502609627936644,16.4666446998548
0.0302911825879025,16.4669975330755
0.00880849318609478,16.4674386356362
-0.000257208486927886,16.467652909608
-0.00846761688660875,16.4678671835798
-0.0149164246030251,16.4680527033658
-0.0208796594611919,16.4682413850337
-0.0268494295113781,16.4684512813122
-0.0325897272535958,16.4686789553573
-0.0379514666282183,16.4689223731521
-0.042852471956441,16.469180864573
-0.0472505061756163,16.4694546672231
-0.0511273767927047,16.4697446751237
-0.0546528881170881,16.4700714507648
-0.0574079210884934,16.4703971949404
-0.0596485417588926,16.4707445802465
-0.0613910149346734,16.4711169225352
-0.062649668703697,16.4715179656648
-0.0634379626103399,16.4719523357329
-0.0637669811407716,16.4724258116933
-0.063643726103646,16.4729457275639
-0.0630685925826881,16.473521850304
-0.0620297859472118,16.4741683270023
-0.0604995329126029,16.4749039133288
-0.0584216587704266,16.4757573409143
-0.0556779641166518,16.4767793160734
-0.0519527508825877,16.4780906629272
-0.0479142500726222,16.4794801252932
-0.044017841508286,16.4808245556271
-0.040308316029051,16.482128190126
-0.0368073359378376,16.4833931669746
-0.0335257445441791,16.4846202610265
-0.0304678770161554,16.4858095569099
-0.0276335629809966,16.4869608082668
-0.0250192535487463,16.4880736265871
-0.0226187877698752,16.4891475777842
-0.0204239969823556,16.4901822265053
-0.01842522271801,16.491177149105
-0.0166117752414901,16.492131926592
-0.0149723403349307,16.493046123755
-0.0134117671069887,16.4939702641988
-0.0119117380997419,16.4949181909265
-0.0104764997523808,16.4958916753648
-0.00910994874304582,16.4968929092547
-0.00781577194102785,16.4979244708304
-0.00659739474138473,16.4989894223241
-0.00545792845639439,16.5000914380599
-0.00440011535545518,16.5012349778579
-0.00342627115310037,16.5024255274864
-0.00253822425087317,16.5036699416607
-0.00173725019550975,16.5049769501004
-0.00102399831402424,16.5063579353107
-0.000398404592115246,16.5078281901509
0.000140421293949898,16.5094090871788
0.000575247650789742,16.5110489249688
0.000914953730272427,16.5127406326028
0.00117522397343555,16.5145026825495
0.00137040015329667,16.5163580004731
0.00151404977170437,16.5183376687276
0.00161943927322033,16.5204866744715
0.00170028836418496,16.5228763294497
0.00177237835599928,16.5256367132836
0.00185885771248615,16.5290767975199
0.00196920184665098,16.5328421541339
0.00210976322179292,16.5367919019841
0.0022676000141142,16.5406168317727
0.00243909260298785,16.5444013987505
0.0026212137412626,16.5482045444239
0.00281217167127478,16.5520693474539
0.00301151859721834,16.5560312149771
0.00321999921766956,16.5601220579012
0.00343933612266305,16.5643726704038
0.00367203336444779,16.5688143938616
0.00392125190515968,16.5734804827685
0.00419083529442639,16.5784075712932
0.00448555393967733,16.5836369728067
0.00481167266606749,16.5892160498658
0.00514350464160843,16.5946436746326
0.00548855883290883,16.6000078145478
0.00584679656401796,16.6052616791994
0.0062224598741269,16.6104236744276
0.00661928335209992,16.6154998424393
0.00704163523724004,16.6205005573327
0.00749401208735618,16.625432463871
0.00798122636970351,16.6303000562872
0.00850845835304893,16.6351053796153
0.00908138300114715,16.6398485794139
0.00970628022081918,16.6445282736541
0.0103901527619263,16.6491420607584
0.0111541516733331,16.6537635950013
0.0120153459602198,16.6584074853211
0.0129935698357445,16.66308220624
0.0141168941557138,16.6678128161177
0.0154292934079428,16.6726579525689
0.0170154881298712,16.6777668845846
0.0191203513247068,16.6836476577624
0.0209507721279515,16.6882101786167
0.0229044075840457,16.6927726994711
0.0245215385012527,16.6965025325218
0.0258628587611059,16.6997365723658
0.0269899965437187,16.7027519784688
0.0279004672853263,16.7056781029209
0.0285397144655589,16.7084579814342
0.0289109774018666,16.7112084174862
0.0289920152029343,16.7140697704575
0.0286998283409026,16.7173035663968
0.0277215092314534,16.7216150970813
0.0268382535007514,16.7242600323846
0.0257868834618634,16.7269049676879
0.0247193612870687,16.7293103338161
0.0236495971259517,16.7315653052085
0.0225779130629134,16.7337365102332
0.0215070633995995,16.7358609093392
0.0204407036092984,16.7379615884738
0.0193825336296471,16.7400546757562
0.0183360427206527,16.7421523777772
0.0173044417403761,16.7442645196886
0.0162906550228242,16.7463994187728
0.0152973290805334,16.748564428913
0.0143268446485304,16.7507663085219
0.0133813326009221,16.7530114779137
0.0124626822348726,16.7553062318852
0.0115725543940345,16.7576569047046
0.0107123929290621,16.7600700179346
0.00988343092290708,16.7625524351021
0.00908499196382457,16.7651172044929
0.00829655525122557,16.7678507484388
0.00752190942880086,16.7707720990868
0.00676479838667458,16.7739042742011
0.00602921806589604,16.7772738927905
0.00531939397777836,16.7809118514771
0.00463973438330432,16.7848541742869
0.00399475242816927,16.7891431095669
0.00338893030952132,16.7938287681572
0.00282646690048452,16.7989722789948
0.00231098233795506,16.8046512767984
0.0018452234173941,16.8109695936722
0.00144375868795642,16.8178246527316
0.00111132305312806,16.8252104003
0.000905750629290554,16.8314303658873
0.000697916292456955,16.8397326725463
0.00053223090038749,16.8487734564703
0.000401783107114786,16.8587734564703
0.000311672222748701,16.8687734564703
0.000250238550886669,16.8787734564703
0.000209007564888584,16.8887734564703
0.000181865315425375,16.8987734564704
0.000164524767044099,16.9087734564704
0.00015405280360385,16.9187734564704
0.000148466848517193,16.9287734564704
0.000146430620958143,16.9387734564704
0.000147045783262197,16.9487734564704
0.000149715958247065,16.9587734564704
0.000154058336066649,16.9687734564704
0.000159845164537295,16.9787734564704
0.000166964622057916,16.9887734564704
0.000175395217681478,16.9987734564704
0.000185190323565814,17.0087734564704
0.000196470755542449,17.0187734564704
0.000209424203997724,17.0287734564704
0.000224311113480086,17.0387734564704
0.000241477452630822,17.0487734564704
0.000261375816622443,17.0587734564704
0.000284597639779116,17.0687734564704
0.0003119212778138,17.0787734564704
0.00034438389710961,17.0887734564704
0.000383390489975512,17.0987734564704
0.000430882851870251,17.1087734564704
0.000486755878387583,17.1183291836606
0.000550517802474523,17.127160198403
0.000623125681059097,17.135310220934
0.000705771331438245,17.1428318314082
0.000799825696368444,17.1497743112268
0.000906846047660898,17.1561834493417
0.00102859610502577,17.1621017902176
0.00116707220410288,17.1675688683696
0.00132453448038362,17.1726214163889
0.00150354170602662,17.1772935636443
0.00170699311834597,17.1816170295313
0.001938176866877,17.1856213104374
0.00220082963174449,17.1893338561155
0.0024992080579443,17.1927802449026
0.00283817961654526,17.1959843653856
0.00322333817071296,17.1989686055964
0.00366115488825111,17.2017540546901
0.00415918270964139,17.2043607339296
0.00472634098391699,17.2068078758439
0.00537332829659819,17.2091142832296
0.00610150972138361,17.2112671761667
0.00690614770795409,17.2132540415749
0.00779804622582937,17.2151088830586
0.00879352955006125,17.2168660212325
0.00991863416985061,17.2185633959928
0.0112212716660225,17.2202531148578
0.0128704089933825,17.2220952266579
0.0153939667644179,17.2245029720157
0.0169797115042808,17.2258625699286
0.0186381411927605,17.2272221678414
0.0201478882350773,17.2284499109733
0.0215004110360109,17.2295856138221
0.0227117132477328,17.2306824823908
0.0237755261900197,17.2317798985897
0.0246685518155079,17.2329181559565
0.0253455240373147,17.2341559814828
0.0257086043653914,17.2356216281326
0.0253571010992685,17.2378647393608
0.0245990440926646,17.2393409299866
0.0235244452852317,17.2408171206124
0.0223023566555429,17.2422086447621
0.0209350979498917,17.2436132666995
0.0194317470200125,17.2450770963098
0.0178003026095254,17.2466374358037
0.0172249281660239,17.2471894188345
0.0166565528150731,17.2477414018654
0.0157291461998015,17.2486719365672
0.0132946536876853,17.2513331900524
0.0109294752532896,17.2543235979224
0.00907766069900912,17.2570667968408
0.00760639315270746,17.2596063359519
0.00636035668575839,17.2621055448237
0.0052696067651318,17.2646560025725
0.00431118535991976,17.2672839763397
0.0034680762965555,17.2700125581002
0.00278711389603375,17.2726121631369
0.00223420784475141,17.2750797982394
0.00177535380129581,17.2774535579399
0.00138467478191188,17.2797812194468
0.00104149699472019,17.2821275957079
0.00072613523310808,17.2846039207823
0.000404760712885935,17.2875354118325
0.000201446411305532,17.2896596515259
1.90711159023382e-05,17.2917838912192
-0.000126415854263282,17.2936530463499
-0.000248380671495145,17.2953572127707
-0.000359223156284074,17.2970280048366
-0.000466444472028697,17.2987669164755
-0.000577580890465955,17.3007098742947
-0.000707838452070997,17.3031885464675
-0.000916426677690135,17.3076686206692
-0.00107620504818051,17.3115922454639
-0.00120047851399203,17.3149869521101
-0.00132344674897021,17.3186917089117
-0.00146300254542522,17.3234280262185
-0.00159785564246717,17.3289387599046
-0.00168046114985768,17.3337496917075
-0.0017102287390758,17.3381015043926
-0.00167922166018462,17.3420090412355
-0.00158008672654774,17.3455278843275
-0.00140582722330225,17.3487161491845
-0.0011485371512686,17.3516423760502
-0.000797879074899991,17.354373841541
-0.000338833059344493,17.3569772567316
0.000253944147944628,17.3595309949984
0.00102485028905341,17.3621328427628
0.00208794281144763,17.3650019600263
0.00349639955073883,17.3681070291268
0.00525363557072722,17.3713533974902
0.00655129623499063,17.3734476178734
0.00800231143267335,17.3755418382567
0.00946954234901737,17.3774217712416
0.0110198642481213,17.3791777995885
0.0126357647403294,17.3807872133049
0.014408644641032,17.3823325207116
0.0163579217710689,17.3838111883313
0.0185170866016452,17.3852309877533
0.0209234836619457,17.3865986691335
0.0236044647012041,17.3879131499958
0.0266021787683978,17.3891797528057
0.0299545759890303,17.390399709929
0.0337070439705682,17.3915756627189
0.0379144068877325,17.3927112329785
0.0426376745558149,17.3938094275792
0.0479477395591591,17.3948733553208
0.0539288803768769,17.3959064397433
0.0606838162859356,17.3969126233236
0.0683350592756815,17.3978958341058
0.0770325493958429,17.398860356367
0.0869628322996549,17.3998109881432
0.098361755904315,17.4007532089515
0.111537834914563,17.4016937607598
0.126904577877425,17.4026410818353
0.14504213660552,17.403606534816
0.16651759758713,17.4045939570989
0.191401049400266,17.405585815853
0.22036153069764,17.4065932055832
0.254308637586012,17.4076321816585
0.294630295079192,17.4087301318454
0.340822839897399,17.4098724750588
0.379942748769064,17.410789173495
0.412771325384848,17.4115538198141
0.441321650478943,17.412242748851
0.466235713203691,17.4128937710622
0.487523710861847,17.4135315100332
0.504782885462468,17.4141779239187
0.517108814916369,17.4148589079011
0.522641529966804,17.4156151761267
0.518225107328199,17.4164255479896
0.502226322914338,17.4172586344756
0.473231073232583,17.4181297232277
0.429462789823161,17.4190496571829
0.368994690296233,17.4200272954177
0.326159061578935,17.4206186789813
0.279514217074846,17.4212100625448
0.237816258814379,17.4217128059641
0.201712240254916,17.4221406616807
0.169781335298115,17.4225217515246
0.141067754026998,17.4228735082737
0.114971823307956,17.4232071113715
0.0910656232755664,17.4235309994196
0.0689844842139133,17.423853055611
0.0483227491617032,17.4241831451239
0.0283777638858341,17.4245400632252
0.00630164912681241,17.4250023816257
-0.00180982633576046,17.4251984599734
-0.00921141841492036,17.425394538321
-0.0155276167515466,17.4255781708791
-0.0215039914279861,17.4257693754373
-0.0274576671994316,17.4259813863365
-0.0331617241678037,17.4262108792013
-0.0384759607056081,17.4264559937499
-0.0433235203881078,17.4267161737277
-0.0476653426038256,17.4269917355126
-0.0514846956059904,17.4272836343671
-0.0550062434217514,17.4276188672182
-0.05769497588986,17.4279474372013
-0.0598703627798017,17.428297924632
-0.0615495152467129,17.4286738075188
-0.0627467372688244,17.4290789323034
-0.0634752649584509,17.4295180551863
-0.0637457576874568,17.4299971274588
-0.0635645495504957,17.4305237200924
-0.0629307555849547,17.4311081264807
-0.0618308756709609,17.4317649145346
-0.0602344535579543,17.4325137810811
-0.0580800913754163,17.4333853079318
-0.0552364822088552,17.4344348694813
-0.0513325028351492,17.4358029926531
-0.0473112577322449,17.4371853892685
-0.0434410671700506,17.438523529224
-0.0397619344558409,17.4398213014729
-0.0362934831217921,17.4410805856231
-0.0330454036984376,17.4423020244327
-0.0300212655463869,17.4434856381155
-0.0272203354329943,17.4446311515028
-0.0246386308070754,17.4457381657437
-0.0222696544485519,17.4468062453587
-0.0201049831781614,17.4478349569644
-0.0181347760650786,17.4488238787626
-0.0163482250707686,17.4497725911564
-0.0147339543335286,17.4506806541651
-0.013181892210086,17.4516082373328
-0.0116911196372444,17.4525597827639
-0.0102657187120847,17.4535371860584
-0.00890955937835974,17.4545426899205
-0.0076262934455167,17.4555789367963
-0.00641930369100242,17.4566490696423
-0.00529165090193091,17.4577568656496
-0.00424601856640925,17.4589069178584
-0.00328465494498293,17.46010488797
-0.00240931173509447,17.4613578686243
-0.00162117762254039,17.4626749208417
-0.000920803369602076,17.4640679056168
-0.000308011880279712,17.4655528399333
0.000218220263716477,17.4671522618912
0.000637682928698539,17.4687985278447
0.000964558162765446,17.4704995151806
0.00121420303374332,17.4722738800921
0.00140082077925415,17.4741455382466
0.00153790004958648,17.4761471838774
0.00163871684040634,17.4783266909775
0.00171716146637719,17.4807612399483
0.0017895990646872,17.4835956698212
0.00188158405979626,17.4871962610632
0.00199646641337769,17.4909883311902
0.00213989145251825,17.4949074140737
0.00230014274769114,17.4987198956741
0.00247356617773338,17.5025039842112
0.00265729420499424,17.5063149354313
0.0028497484879354,17.5101940738013
0.00305068243011041,17.5141759642318
0.00326101255710187,17.5182921819509
0.00348260258452176,17.522573509029
0.00371807433030506,17.5270515164666
0.00397070269136592,17.5317599354395
0.00424447322441804,17.5367361201978
0.00454437400368113,17.542022334045
0.00487432253736683,17.5476216259536
0.00520767927368176,17.5530229380759
0.00555538765649047,17.5583710926343
0.00591659795721266,17.5636055402508
0.00629602457226691,17.5687510396435
0.00669736271867114,17.5738122125587
0.00712505902632418,17.5787994874765
0.00758365229941592,17.5837189289333
0.00807802394636217,17.5885746050854
0.00861344044503017,17.5933681680108
0.00919568503300433,17.5980994519107
0.00983116620065218,17.6027668383551
0.0105270403112951,17.6073678151747
0.0113084040274671,17.6119956176231
0.0121898100980716,17.6166438540777
0.0131928530762333,17.6213265903116
0.0143476467584916,17.6260726824916
0.0157030061180937,17.630951447043
0.0173581696694777,17.6361446230636
0.0196407503922853,17.6423459407991
0.0213713652961497,17.6465710048635
0.0231932668261847,17.650796068928
0.0247503316551079,17.6543995716817
0.0260551371504388,17.6575842425332
0.0271496924344119,17.6605805962566
0.0280169252801272,17.6634753189378
0.0286148941615786,17.6662425832675
0.0289435863141053,17.6689998150438
0.0289748912326684,17.6718956521566
0.0286068070092156,17.6752368477823
0.0278380813798212,17.6785731780781
0.0267304699159108,17.681909508374
0.025639612966947,17.6846093580067
0.0245687306755294,17.6869949522478
0.0234983900808712,17.68923547337
0.0224265967511198,17.6913983284927
0.0213561438337335,17.6935182200948
0.0202907133893072,17.6956169875278
0.0192339833375233,17.6977100726981
0.0181894052718854,17.6998092743144
0.0171601495080856,17.7019241614885
0.016149100012867,17.7040628884154
0.0151588653616204,17.7062327044289
0.0141917899735323,17.7084403059336
0.0132499694274463,17.7106920845349
0.0123352612355428,17.7129943271866
0.0114492933998206,17.7153533885175
0.0105934807832927,17.7177758244621
0.0097690271866769,17.7202685574948
0.00897181594861096,17.7228562724264
0.0081851340187007,17.7256153074534
0.00741276149522789,17.7285652308217
0.00665847927008068,17.7317295350064
0.00592631750333745,17.7351354043962
0.00522053072801322,17.7388144113433
0.00454554798165909,17.7428033906129
0.00390588863946968,17.7471455865518
0.00330600876147331,17.7518924680576
0.00275004880421705,17.757107064586
0.00224151833923533,17.7628700464691
0.00178302978032211,17.7692899806234
0.00139131294766876,17.7762162685137
0.00107020857870955,17.7836871193223
0.000840262675333807,17.7911150418455
0.000653179897640515,17.7992495423787
0.000496842541630233,17.8084987124677
0.000377224722361329,17.8184987124677
0.000294797363332663,17.8284987124677
0.000238786810068633,17.8384987124677
0.000201343607328681,17.8484987124677
0.000176833461508244,17.8584987124677
0.000161329012917596,17.8684987124677
0.000152153168168674,17.8784987124677
0.000147498747132731,17.8884987124677
0.000146148257872161,17.8984987124677
0.000147284731849144,17.9084987124677
0.000150368803398417,17.9184987124677
0.000155058600353267,17.9284987124677
0.000161156537625098,17.9384987124677
0.000168573800227583,17.9484987124677
0.000177307378783231,17.9584987124677
0.00018742663937443,17.9684987124677
0.000199067575637549,17.9784987124677
0.000212433734648672,17.9884987124677
0.000227803602697013,17.9984987124677
0.00024554510253162,18.0084987124677
0.000266138909155374,18.0184987124677
0.000290213737762965,18.0284987124677
0.000318598947869633,18.0384987124677
0.000352403369508158,18.0484987124677
0.000393135351667543,18.0584987124677
0.000442889910251993,18.0684987124677
0.000500526301702586,18.0778888076605
0.000566239319987521,18.0865603856658
0.000641056477186994,18.0945630533582
0.000726211901380473,18.1019487812037
0.000823118538352927,18.1087660492443
0.000933379330485214,18.1150598967376
0.00105880920014345,18.1208721725503
0.00120146241958578,18.1262417637147
0.00136366486005064,18.1312047997435
0.00154804987901667,18.1357948504296
0.00175760202391645,18.1400431182328
0.00199570738918321,18.1439786230695
0.00226621587276281,18.1476283773486
0.00257351665725543,18.1510175624587
0.00292263374548856,18.1541697124332
0.00331934907784117,18.1571069051216
0.00377036371861496,18.1598499692295
0.0042835179189852,18.1624187248181
0.00486810052687312,18.1648322773507
0.0055353019199862,18.1671094034982
0.00628045102463143,18.1692213714542
0.00710417203898306,18.1711751460877
0.00801838823282563,18.173004809527
0.00904113298750075,18.1747450256915
0.0102019698211027,18.176435729066
0.011557866005326,18.1781356608026
0.0133358142787126,18.180054074814
0.0151678477540337,18.1817858861258
0.0171842042702301,18.1835176974376
0.0189056242990733,18.1849248361028
0.0203898229550371,18.1861358159078
0.0217167542238652,18.18726186236
0.0229026252450744,18.1883564160996
0.0239381486645634,18.1894581304367
0.024796908023506,18.1906089801908
0.0254279875751457,18.1918741390258
0.0257146104461657,18.1934097719432
0.0253878943630312,18.1952330888128
0.0244393711789203,18.1970564056823
0.0233269861816843,18.1985289662876
0.0220791339708013,18.1999207647811
0.020689142796529,18.2013327849768
0.0191648867883468,18.202809930952
0.0175134736740033,18.2043899470088
0.0161412327788315,18.2057325204684
0.0148473719397482,18.2070750939279
0.0123515142789836,18.2099481745921
0.0101936510929987,18.212842419113
0.0084996703352922,18.2154991397327
0.00713726394271708,18.2179831924402
0.00595082982282402,18.2204966588834
0.00490999885715063,18.223072392161
0.0039949083616633,18.2257340085298
0.00321113831691194,18.2284248723505
0.00258115375522127,18.2309682790012
0.00206551618344895,18.2333934531122
0.00163352588092091,18.2357420548281
0.00126160432577228,18.2380668057838
0.000929902192997671,18.2404455428733
0.000616265623903429,18.2430355787925
0.000330768909685293,18.2457634937939
0.00014511443749245,18.2477746368079
-2.25952499245149e-05,18.2497857798219
-0.000158733916533609,18.2515761543377
-0.000276587778973652,18.253256265988
-0.000386080726499191,18.2549383856672
-0.000494266210806244,18.2567274904233
-0.000609940128587459,18.2587948117184
-0.000757924728471256,18.2616984483759
-0.000933459782669837,18.265568221494
-0.00106361557945636,18.2687779963015
-0.00117761994401169,18.271860464795
-0.00129585798349119,18.2753648932949
-0.00142955261729215,18.2797949281396
-0.00157363082874197,18.2854611900603
-0.0016636435190582,18.2903432639762
-0.0017022089921839,18.2947702940608
-0.00168131666854984,18.2987465649391
-0.00159366247142227,18.3023228512683
-0.0014321023559751,18.3055613847677
-0.00118913781166632,18.3085251851684
-0.000855263286994418,18.3112806064693
-0.000416610118897212,18.3138953256833
0.000148294722254832,18.3164395522103
0.000881375477688342,18.3190164636293
0.0018788449159712,18.3218135929285
0.00322802825304274,18.3248923663117
0.00492496279880016,18.3281235499798
0.00624791168727241,18.3303176020374
0.00773160937490456,18.332511654095
0.00921351990317535,18.334454205689
0.0107266484559284,18.3362082495751
0.01233812047949,18.3378527166467
0.0140783611449932,18.3394071517182
0.0159928078233997,18.340896518472
0.0181123623460631,18.3423265681478
0.0204715877330171,18.3437028216079
0.0231014899713093,18.3450265718861
0.0260413409870229,18.3463018708736
0.0293262559667771,18.3475292202175
0.0330046278719532,18.3487127750668
0.0371279390537425,18.3498553578216
0.0417554708980958,18.3509599317698
0.0469545227488154,18.3520292807427
0.0528098276603482,18.3530674318002
0.0594195697334151,18.3540780084258
0.0669020355668709,18.3550648785491
0.0754016748008106,18.3560322525729
0.0850968586826464,18.3569847471492
0.0962142925079076,18.3579277976865
0.109047206807662,18.3588678576008
0.123986493512136,18.3598129700369
0.141575535094327,18.3607738262229
0.162508816529152,18.3617611534123
0.186748963961799,18.3627512365436
0.214932972806846,18.3637545350605
0.24791693604167,18.3647859357765
0.286968834335976,18.3658698327807
0.33233651167358,18.3670078947515
0.372958866333388,18.3679651958287
0.406823410363189,18.3687515356868
0.436154173632644,18.3694513824747
0.461785849561992,18.3701074205233
0.483823291649761,18.3707457534143
0.501945101291809,18.3713883499477
0.515365862471442,18.3720597495486
0.522483519486871,18.3727963181589
0.520231524394314,18.3736040616377
0.506618377770271,18.3744311579008
0.480317086648592,18.3752936635918
0.439604908127878,18.3762032947528
0.382571025708065,18.3771686661409
0.338522215598799,18.377796289645
0.289888208778181,18.378423913149
0.246522904570217,18.3789507455848
0.209281264507156,18.3793925198737
0.176520702610562,18.3797820490031
0.147152261181094,18.3801390967335
0.120515116449937,18.380475860893
0.0961540711412018,18.3808011750418
0.0736980479250467,18.3811228708256
0.0527622494312128,18.3814500597246
0.0327542648476175,18.3817983311991
0.011826912734078,18.3822185032955
0.00112513545233149,18.3824658624801
-0.00621395346204204,18.3826532102179
-0.0129209694976979,18.3828405579556
-0.018795234205213,18.3830204891363
-0.024790000147405,18.3832234051585
-0.0306304296115354,18.383445266132
-0.0361346806990806,18.3836833951489
-0.0412010966036021,18.3839367106144
-0.0457758665993663,18.3842051729797
-0.0498337810754715,18.3844894675799
-0.0533609481655078,18.3847908478568
-0.0563857900107307,18.3851152215942
-0.0588243889163965,18.3854538675334
-0.0607587483150066,18.3858161332958
-0.0622037717257178,18.3862055508618
-0.0631734300565541,18.3866263763012
-0.0636799174064154,18.3870839007677
-0.0637320486126222,18.3875847932244
-0.0633333003295502,18.3881376259671
-0.0624771105147003,18.3887549066521
-0.061142779614528,18.3894531360671
-0.0592874762815232,18.3902563493157
-0.0568240238485996,18.3912042500793
-0.0535475439616082,18.3923783369964
-0.0494707647158473,18.3937891213005
-0.0455114815945952,18.3951505826303
-0.0417258348723529,18.3964697628969
-0.0381419449386984,18.3977496579349
-0.0347741446865449,18.398991474123
-0.031628991559391,18.4001955105456
-0.0287079067674604,18.4013616211822
-0.0260085537907565,18.402489458092
-0.0235257112135586,18.4035785977801
-0.0212519271705039,18.4046286026938
-0.0191780660314619,18.4056390447111
-0.0172937886202808,18.4066095049611
-0.0155879788168943,18.4075395578329
-0.0140054422618671,18.4084547752692
-0.0124814537200517,18.4093933420503
-0.0110207056348329,18.4103567050836
-0.00962716030954677,18.4113469291187
-0.00830459213315029,18.4123664325614
-0.00705653369954819,18.4134180773238
-0.00588622413926479,18.414505283405
-0.00479655506661773,18.41563218273
-0.00379001410532713,18.4168038304
-0.00286862551201503,18.4180265025861
-0.00203388674204434,18.4193081300274
-0.00128669860945943,18.4206589531975
-0.000627284472918169,18.4220925596217
-5.50893325905952e-05,18.4236276254878
0.000421443084821157,18.4252523623119
0.000796035750440689,18.426921772532
0.00108534857342425,18.428654155246
0.00130411825239999,18.4304701470693
0.00146616555429889,18.4323971877671
0.00158480560786505,18.4344739013688
0.00167346070284711,18.4367591540902
0.00174681034381368,18.4393537568886
0.00182391257103927,18.4424685859989
0.00192560654890801,18.446202318738
0.00205641615058096,18.4501477373193
0.00220803131831738,18.454007731911
0.00237472071672868,18.4577992593257
0.0025530989926357,18.4615897122442
0.0027408594320827,18.4654268167687
0.00293704915666881,18.4693482380571
0.00314198069213258,18.473386856645
0.00335702892636893,18.4775736620223
0.00358442186148361,18.4819396252687
0.00382707999153117,18.4865171119401
0.00408857646094184,18.4913413113479
0.00437328949268641,18.4964516277628
0.00468683672615524,18.5018930045293
0.00501780394429843,18.5074030371419
0.00535730075614117,18.5127864550101
0.00571038113931938,18.5180835177756
0.00607903105618608,18.5232785187764
0.00646743641439655,18.5283859567412
0.00687967993933795,18.5334140726406
0.00732022635878566,18.5383712003764
0.00779375727088965,18.5432625972637
0.00830530418313795,18.5480912019251
0.00886034338995073,18.5528578286725
0.00946491510933843,18.5575616228928
0.0101257355231958,18.5622004911043
0.0108566466641279,18.5668096390969
0.0116795253381725,18.57144593323
0.0126109944616098,18.5761069748442
0.0136758017885651,18.580812205443
0.0149103639318124,18.5856037710986
0.0163788234785913,18.5905850011547
0.0182338693121326,18.5960573055225
0.0207072552288638,18.6024092566187
0.0223013803473651,18.606168430942
0.0239354857847911,18.6099276052652
0.0253642478496717,18.6132912341716
0.0265722368124871,18.6163692956937
0.027573603223785,18.6193304773179
0.0283184679530833,18.6221533515352
0.0287965933112788,18.6249006457633
0.0289975751245945,18.6276976646674
0.0288708895800599,18.6307339428235
0.0282110771218983,18.6345764974119
0.0273829095451416,18.637481027215
0.0263233073054235,18.640385557018
0.0252506502932235,18.6429223443189
0.0241814641560541,18.645242501338
0.0231104633840362,18.647449534489
0.0220387584322046,18.649593747034
0.0209696945172769,18.6517039144885
0.0199070016152925,18.6537990949377
0.0188542884868999,18.6558931896291
0.0178149070363082,18.6579970694463
0.0167919237848826,18.6601197170888
0.015788121262039,18.6622689120105
0.0148060106833403,18.6644516703237
0.0138478457417397,18.6666745512224
0.0129156329033023,18.668943892137
0.0120111473681475,18.6712659823105
0.011135938581443,18.6736472336934
0.0102913415143019,18.6760943256782
0.0094784918182761,18.6786143341205
0.00868469621705984,18.6812621326925
0.00790279618005421,18.6840879629061
0.00713654836950402,18.6871128211284
0.00638982549686908,18.6903614695093
0.00566674453802056,18.6938625899798
0.00497162786958319,18.697649566206
0.00430895082563109,18.7017614002988
0.00368323340655671,18.7062440491592
0.00309884941355499,18.711152690757
0.00255975095145408,18.7165558310712
0.00206913725639816,18.7225429072792
0.0016331879450117,18.7291691473482
0.00126531418848387,18.7362817602282
0.000970400108299185,18.7440269071224
0.000774740241978487,18.751109834603
0.000591370017886031,18.7599647681011
0.000453325476217302,18.7691610304454
0.000347163657216268,18.7791610304454
0.000274298047671809,18.7891610304454
0.000225035523474882,18.7991610304454
0.000192307014937817,18.8091610304454
0.000171079799173958,18.8191610304454
0.000157875308174067,18.8291610304454
0.000150333960826094,18.8391610304454
0.000146865439876822,18.8491610304454
0.000146399273648451,18.8591610304454
0.000148219636535248,18.8691610304454
0.000151858484662167,18.8791610304454
0.000157025593010194,18.8891610304454
0.000163561895390112,18.8991610304454
0.000171408490623127,18.9091610304454
0.000180587038492535,18.9191610304454
0.000191188984095571,18.9291610304454
0.000203372056053848,18.9391610304454
0.000217363288688488,18.9491610304454
0.000233468624191745,18.9591610304454
0.000252090063857276,18.9691610304454
0.000273752495100028,18.9791610304454
0.000299143964969222,18.9891610304454
0.000329175726554296,18.9991610304454
0.000365072617388397,19.0091610304454
0.000408511676445741,19.0191610304454
0.000461176466633966,19.0290469863375
0.000521388931007971,19.0381957852117
0.0005899792236501,19.0466394195732
0.000668059949929151,19.0544317179839
0.000756924627728191,19.0616235877413
0.000858047152712431,19.0682623347764
0.000973097774899226,19.0743919071623
0.00110396714893047,19.0800531422797
0.00125279539588808,19.0852839858785
0.00142200554010852,19.0901196930112
0.00161434160267291,19.0945930238116
0.0018329144234112,19.0987344339491
0.00208125573799827,19.1025722555608
0.00236338384401569,19.1061328714241
0.00268388565229575,19.1094408934076
0.00304801972372192,19.1125193486105
0.0034618506534862,19.1153898739078
0.00393242713564,19.1180729319675
0.00446802678614699,19.1205880667172
0.00507850543232634,19.1229542216114
0.00577581641605627,19.1251901698932
0.00654622592455821,19.1272455130878
0.00739855906347007,19.1291537886503
0.00834655264819618,19.1309493309589
0.00941118175882526,19.1326677412404
0.0106283987634111,19.1343529149984
0.0120934337592287,19.1360997073578
0.0141288305687077,19.138182417464
0.0158390147361687,19.1397318237095
0.0176809640497962,19.1412812299551
0.0193149910989583,19.1426101514439
0.0207537119779253,19.1437910277754
0.0220439106334477,19.144904556473
0.0231923969434437,19.1459972037657
0.0241853196036787,19.147107059794
0.0249912209392606,19.14827960433
0.0255488470425234,19.1495927144393
0.0256993433183243,19.1512666861438
0.0252323659125577,19.1529880111543
0.0242396380684317,19.1547093361648
0.0231042233707926,19.1561505133039
0.0218291429447942,19.1575410680292
0.0204128006526949,19.1589624312584
0.0188637930296801,19.1604560647061
0.0171882876888219,19.1620603859498
0.0154221082733832,19.1638256670351
0.0131178267823585,19.1663775644337
0.010808938202259,19.1693263574765
0.00898562601321304,19.1720516427311
0.00753222289223415,19.1745816806811
0.00629568120897982,19.1770828405212
0.00521283622743379,19.1796370186982
0.00426126157329037,19.1822700139356
0.0034241531789695,19.1850049116475
0.00275235296859242,19.1875935062227
0.002206100219238,19.1900525622817
0.00175200595683373,19.1924207712295
0.00136460570813022,19.1947468240307
0.00102338261003246,19.1970977653388
0.000708295114574573,19.1995920003895
0.000381792956822478,19.2026011355911
0.000185896824229877,19.2046696883553
9.61482786832221e-06,19.2067382411194
-0.000133148186795623,19.2085818985767
-0.000254043453435752,19.2102782453637
-0.000364570582631103,19.2119508487642
-0.00047206373344385,19.2137012896139
-0.00058431128985517,19.2156729534797
-0.000718325192507368,19.2182400969779
-0.000924123906040252,19.2226926193909
-0.00107858767466134,19.2265040988995
-0.00120100463106952,19.2298568602426
-0.00132377789350995,19.2335645453417
-0.00146366900845048,19.2383291515487
-0.00159723904228679,19.243821576608
-0.00167868203651179,19.2486225736178
-0.00170713828775293,19.2529644496777
-0.00167471836323866,19.2568629521459
-0.00157408392327383,19.2603744464676
-0.00139825195518765,19.2635565404439
-0.00113931601228355,19.2664775988186
-0.00078684494653014,19.2692052771473
-0.000325607135592606,19.2718066750449
0.00026994102824959,19.2743599816809
0.00104427971548666,19.2769623316256
0.00211589831473557,19.2798429061939
0.00353124884674905,19.28295179691
0.00529529262812867,19.2862003892635
0.00659720883542816,19.2882947291575
0.00805340943958285,19.2903890690516
0.00951599659153223,19.2922561573582
0.0110637127587668,19.2940030033672
0.0126852020784466,19.2956121232806
0.0144611467456591,19.297154083589
0.016416939148825,19.2986316874422
0.0185825568621292,19.3000497243303
0.0209966159138613,19.3014158451082
0.0236862317868968,19.3027287913306
0.0266937235692519,19.3039939214283
0.0300575119283886,19.3052125980726
0.0338225469295356,19.3063872459167
0.0380441494861722,19.3075215984285
0.0427836173311233,19.308618671939
0.0481124756875196,19.3096816360695
0.054114893097262,19.3107138107803
0.0608943538361716,19.3117191925701
0.0685740694649244,19.3127017187283
0.0773048860060283,19.3136656844812
0.0872745629306822,19.3146159037115
0.0987206861327125,19.31555788444
0.111954114739897,19.3164983980894
0.127392029398301,19.3174459429764
0.145620490911303,19.3184119815438
0.167186562582388,19.3193992934119
0.192177287465744,19.3203912934584
0.221266806868378,19.3213991686043
0.25537330699178,19.3224391524225
0.295904504821638,19.3235391151241
0.332536965126471,19.3244497737361
0.371141001215843,19.3253604323481
0.405074828725138,19.3261485611785
0.434595595007126,19.3268516127309
0.460407332238747,19.327509416055
0.482631272770945,19.3281483049962
0.500966735983444,19.3287902758557
0.514657873505012,19.3294595468192
0.522164594742775,19.3301914348133
0.520465443118651,19.3309987959735
0.507463003451946,19.3318245686095
0.481854280123553,19.3326849830465
0.441933929441096,19.3335919759171
0.385797606256132,19.3345541835699
0.341473441298403,19.3351913024202
0.292355160197905,19.3358284212705
0.248582925165658,19.3363615111878
0.211069040407199,19.3368068646901
0.178113468814317,19.3371985580764
0.148592666166207,19.3375569758525
0.121830230799758,19.3378945843771
0.0973640572214618,19.3382203251613
0.0748211596837508,19.3385420318386
0.0538207070169628,19.338868668607
0.0337914677524695,19.3392152077742
0.0130435957377898,19.3396281163505
0.00140220559530114,19.3398952759019
-0.005972051724268,19.3400829852729
-0.0127110471332412,19.3402706946438
-0.0185721973590894,19.3404496656392
-0.0245670336013269,19.3406518316716
-0.0304163520284405,19.3408730847657
-0.03593450504383,19.3411106732479
-0.0410175722681667,19.3413634681111
-0.0456104035816739,19.3416313984992
-0.0496869795653189,19.3419151267427
-0.0532332992653272,19.3422158871954
-0.0562916328411671,19.3425412719539
-0.0587461435782964,19.3428792746936
-0.0606958391035942,19.3432407808187
-0.0621557789793215,19.343629320295
-0.0631399643051216,19.3440491210816
-0.0636606661010109,19.3445054372697
-0.0637268309265302,19.3450048876181
-0.0633421387789837,19.3455559735765
-0.0625004405506511,19.3461710467719
-0.0611815507592884,19.3468664627175
-0.0593435747251239,19.3476659287426
-0.0569013877063231,19.3486084241785
-0.053656539213005,19.3497731721067
-0.0495775986242558,19.3511856745793
-0.0456143168944452,19.3525483844031
-0.0418235682963099,19.3538686801277
-0.0382340151879985,19.3551496312222
-0.0348602716172852,19.3563924811998
-0.0317090671091924,19.3575975479199
-0.0287819430603019,19.3587646944707
-0.026076653183484,19.3598935769206
-0.0235880457291102,19.3609837731636
-0.0213087221088781,19.3620348458277
-0.019229585974661,19.3630463666142
-0.0173403250506017,19.3640179166637
-0.0156298391602565,19.3649490709429
-0.0140457836722042,19.3658636681599
-0.01252013380892,19.3668015853174
-0.0110576141612032,19.367764246606
-0.00966219140586704,19.3687537082172
-0.00833764583867196,19.3697723777914
-0.00708751733642159,19.3708231037773
-0.00591505374886155,19.3719092891276
-0.00482315691213864,19.3730350438643
-0.00381432624512441,19.3742053944392
-0.00289059946357781,19.375426578733
-0.0020534892809061,19.3767064749381
-0.00130391379059482,19.3780552490167
-0.00064211604235945,19.3794863783664
-6.75638773040164e-05,19.381018367412
0.0004119708043695,19.3826421361769
0.000789076891749644,19.3843100864341
0.00108048959623246,19.3860405213429
0.00130097494391596,19.3878539315565
0.00146437384904694,19.389777528891
0.00158400847092414,19.3918495466252
0.00167328717574163,19.3941281086294
0.00174683048672521,19.3967123652814
0.00182349036564208,19.3998081901698
0.00192473723044409,19.4035415966567
0.0020545290769886,19.4074758893504
0.00220567032391434,19.4113382057708
0.00237201046920129,19.4151304135157
0.00255013700626034,19.4189202891849
0.00273770654586399,19.4227558771705
0.00293372895274855,19.426674998585
0.00313848491384831,19.430710602468
0.00335332441143187,19.4348936980039
0.00358045675732733,19.4392552394506
0.00382278798220615,19.4438275450144
0.00408387708641724,19.4486457226515
0.00436808317968472,19.4537490671849
0.00468099204030291,19.4591823796945
0.00501196330260046,19.4646964669748
0.00535121747123772,19.4700805119381
0.00570409264057313,19.4753797061383
0.00607244318432782,19.4805762997845
0.00646048144623649,19.4856852699472
0.00687227392256293,19.4907147033555
0.00731228576589143,19.4956730280421
0.00778519345970662,19.5005655385823
0.0082960229699069,19.5053952222713
0.0088502424125713,19.5101629286191
0.00945388170997056,19.5148678305688
0.0101136444897953,19.5195078521253
0.010843048342486,19.5241164200277
0.0116641876457092,19.5287523860274
0.0125935434564936,19.533412848483
0.0136557281651496,19.5381170398831
0.0148868584229444,19.5429064585394
0.0163503118201779,19.5478827297642
0.0181958272743781,19.5533406556405
0.0206689641294499,19.5597049314045
0.0222661162748462,19.5634751622898
0.0239049066726623,19.5672453931752
0.0253385148311463,19.5706171500884
0.0265505962784656,19.5736990139417
0.0275560707003832,19.5766611706851
0.0283062783406971,19.5794866587292
0.0287897309331863,19.5822343125299
0.0289965309531105,19.5850288785893
0.028877386882334,19.5880573784501
0.0282341031392916,19.5918681766737
0.0274089717930546,19.5947897576478
0.0263482407764954,19.597711338622
0.0252750465556603,19.6002558791929
0.0242058405220677,19.6025795852063
0.0231348810178954,19.6047885156497
0.022063157562861,19.6069337857612
0.020993991905852,19.6090444884435
0.0199311131964648,19.6111398381058
0.0188781350929864,19.6132338243215
0.0178384158676935,19.6153373717229
0.0168150285919212,19.6174594970099
0.0158107621199187,19.6196080013437
0.0148281337431377,19.6217899141212
0.0138694028465687,19.6240118019885
0.0129365813703331,19.6262800050229
0.0120314498080467,19.6286008110237
0.011155562483769,19.6309806274325
0.0103102592248919,19.6334261252059
0.00949668009582022,19.635944368939
0.00870265789989462,19.6385883278724
0.00792044464690403,19.6414098874083
0.00715379855169378,19.644429951543
0.00640658656551191,19.6476732005977
0.00568292041931098,19.6511682192827
0.00498711833992546,19.6549482744751
0.00432365320153949,19.6590522270372
0.00369704553912347,19.6635258564279
0.00311167553514428,19.6684240919892
0.00257150839533755,19.6738150688889
0.00207976368241676,19.6797876298901
0.00164220100067009,19.6864039634587
0.00127287893013889,19.6935047581266
0.000977814447491089,19.7011857146689
0.000778015172257934,19.7083616650743
0.00059515341640356,19.7171386214529
0.000455936979019498,19.7263413895557
0.000348949664999284,19.7363413895557
0.000275497066284163,19.7463413895557
0.000225820108378857,19.7563413895557
0.000192801519552192,19.7663413895557
0.000171371503740429,19.7763413895557
0.000158024007110133,19.7863413895557
0.000150380089707739,19.7963413895557
0.000146836224558168,19.8063413895557
0.000146312963069759,19.8163413895557
0.000148088274403814,19.8263413895557
0.000151689710409821,19.8363413895557
0.000156823827995403,19.8463413895557
0.000163329128392302,19.8563413895557
0.000171144782497934,19.8663413895557
0.000180290814689899,19.8763413895557
0.00019085715583875,19.8863413895557
0.00020299999176636,19.8963413895557
0.000216944639674459,19.9063413895557
0.000232994989410608,19.9163413895557
0.000251550455121125,19.9263413895557
0.000273132531777749,19.9363413895557
0.000298424678644849,19.9463413895557
0.000328331777460562,19.9563413895557
0.000364069590810451,19.9663413895557
0.000407301890606715,19.9763413895557
0.000459803376496052,19.9862459309052
0.000503753782232269,19.9931229654526
0.000555289887027867,20
