ecg,time
0.0160496408205243,15.0034135797809
0.0178192381554733,15.0088898279348
0.0202348234102369,15.0153990942304
0.0218167418001024,15.0193001571846
0.0234443043593672,15.0232012201387
0.0248672707798063,15.026679161423
0.0260668610140912,15.0298414955996
0.0270609735555538,15.0328696445595
0.0278087735113105,15.035773892812
0.0282903312846842,15.0385899222333
0.0284968906927163,15.041444243836
0.0283821804546856,15.044522048515
0.0277652718219269,15.0483366046959
0.0269361194057143,15.0513791245159
0.0258618849952017,15.0544216443359
0.0247804620371236,15.0570509218331
0.0237062909013031,15.0594438405466
0.0226319225651101,15.0617160862013
0.0215578948518539,15.0639221437436
0.0204874125308342,15.0660926880785
0.0194241869739171,15.0682478719766
0.0183718532291951,15.0704023242571
0.0173338135426498,15.0725674370396
0.016313193631669,15.074752595569
0.0153128440495601,15.0769658914962
0.0143353446292063,15.0792145936518
0.013383017554285,15.0815054610418
0.0124579394100533,15.0838449719023
0.0115619452272624,15.0862395201443
0.0106966419813589,15.0886955571511
0.0098634176208215,15.0912197252558
0.0090634440275298,15.0938190028143
0.00829059286052986,15.0965266797146
0.00753097550319589,15.0994157211167
0.00678840823555485,15.1025068028519
0.0060666893244575,15.1058246460979
0.00536981562658632,15.1093977922821
0.00470194166636046,15.1132593059495
0.00406735972446075,15.1174477442623
0.00347032847988927,15.1220085921307
0.00291477430002197,15.1269966790338
0.00240410551060305,15.1324806448781
0.00194097929191659,15.1385502373577
0.00152726630465693,15.1453260214844
0.00117775326976088,15.1526469441509
0.000887482546186181,15.1605889759313
0.000649899979915081,15.1692908757237
0.00046342956216072,15.1789356535291
0.000334882468559142,15.1889356535291
0.000247091027026783,15.1989356535291
0.00018591234327514,15.2089356535291
0.000143286919340021,15.2189356535291
0.000113982056183652,15.2289356535291
9.420825039257e-05,15.2389356535291
8.11529815483619e-05,15.2489356535291
7.27846166467034e-05,15.2589356535291
6.76867328283794e-05,15.2689356535291
6.48939775171431e-05,15.2789356535291
6.37526379191191e-05,15.2889356535291
6.381867595761e-05,15.2989356535291
6.47896999449819e-05,15.3089356535291
6.64609427286159e-05,15.3189356535291
6.86962933962586e-05,15.3289356535291
7.1408578534223e-05,15.3389356535291
7.45458425853662e-05,15.3489356535291
7.80818063852261e-05,15.3589356535291
8.20093548556916e-05,15.3689356535291
8.63362362628509e-05,15.3789356535291
9.1082371172922e-05,15.3889356535291
9.62783427755455e-05,15.3989356535291
0.000101964782373375,15.4089356535291
0.000108192474635867,15.4189356535291
0.000115023091554275,15.4289356535291
0.00012253053074437,15.4389356535291
0.00013080289216815,15.4489356535291
0.000139945185888611,15.4589356535291
0.000150082930075929,15.4689356535291
0.000161366882062026,15.4789356535291
0.000173979257558389,15.4889356535291
0.000188141951338372,15.4989356535291
0.000204127503057715,15.5089356535291
0.000222273896326525,15.5189356535291
0.000243004806216977,15.5289356535291
0.000266857735333144,15.5389356535291
0.000294523800265355,15.5489356535291
0.000326905101666973,15.5589356535291
0.000365199278037964,15.5689356535291
0.00041102722695728,15.5789356535291
0.000466564008366038,15.5889244575298
0.000529522040452427,15.5981753982349
0.000600626081805256,15.6067167139189
0.000680890727559801,15.614602187109
0.000771503405055003,15.6218827844761
0.000873819202745583,15.6286058167793
0.000989374000206661,15.6348152103316
0.00111990657843724,15.6405517887557
0.00126738583462053,15.6458534927678
0.00143404289857462,15.6507555377129
0.00162240353303587,15.6552906119299
0.00183533349887528,15.6594890942431
0.00207608635428507,15.6633792541987
0.00234836179969169,15.6669873869937
0.00265637688209048,15.6703379769285
0.00300495421195094,15.6734538967674
0.00339963849063698,15.6763565823049
0.00384683936779427,15.6790662018976
0.00435402930619374,15.6816018835767
0.00493001927985794,15.683981971499
0.00558534626936552,15.68622433362
0.00632162598486889,15.6883176539329
0.00713287531494578,15.690246789922
0.00802909536700891,15.6920438483492
0.00902515204985465,15.6937406751639
0.0101439727345235,15.6953710722383
0.0114255527794628,15.6969782358999
0.0130065881667232,15.6986882313539
0.0152743586764323,15.7007902955765
0.0170130092536102,15.7022232017415
0.0188693003043126,15.7036561079064
0.0205396302321984,15.7049110690629
0.0220229351009484,15.7060413941296
0.0233569024159194,15.7071154249963
0.0245451167344241,15.7081759068606
0.0255714050812151,15.7092603860692
0.0264008397891063,15.7104165576058
0.0269637687178184,15.7117321151805
0.0270575884459037,15.7134938260492
0.026534721995054,15.7150945112838
0.0255409485356758,15.7166951965184
0.024390313578859,15.7180889969269
0.0230862016713188,15.7194571904266
0.0216325872817614,15.7208672407306
0.0201217449159875,15.7222816047047
0.0185712774487587,15.7237266567712
0.0169385038185629,15.7252996544609
0.0156095839995097,15.7266691967969
0.013058076881884,15.7296038402563
0.0108991025237246,15.7325226309254
0.00927409524261021,15.7351084591477
0.00794092242283417,15.7375923900907
0.00679809463961183,15.7400949712501
0.00581131877774834,15.7426571695066
0.00496200668867496,15.7453028767263
0.00423668840202294,15.7480550900578
0.00362576909352385,15.7509380137262
0.00312332025389358,15.7539784739544
0.00272756173390879,15.7572073992856
0.00244229368118992,15.7606616271718
0.00228011706709048,15.7643863292746
0.00226367487344656,15.7680878070913
0.00237740325792224,15.7713994903777
0.00259722713863575,15.7743836895173
0.00291041759591681,15.7770891026784
0.00331184170133349,15.7795630737458
0.0038030349087348,15.7818540532844
0.00439282280794758,15.7840125399663
0.00509979594761405,15.7860936168965
0.00596080403410495,15.7881689233781
0.00704926394456535,15.7903438209612
0.00852185402689128,15.7927974483427
0.0104615402155628,15.7955062441254
0.012083195725724,15.7974634011808
0.0139209092594157,15.7994205582361
0.0157862217925883,15.8011659830999
0.0176763286307757,15.8027191660519
0.019708204784216,15.804181070173
0.0219059050205086,15.8055584024467
0.0243328590550619,15.8068775641837
0.0270275150579954,15.8081430008846
0.0300366111030473,15.8093606396133
0.0334062530011491,15.8105335019843
0.0371874491748295,15.8116644747086
0.0414356683059526,15.8127559684693
0.046215892969963,15.8138109953507
0.0516000773893853,15.8148320762789
0.0576749340407026,15.8158224511842
0.0645405364405044,15.8167851644393
0.0723166260559274,15.8177235546661
0.0811469393292759,15.8186411504561
0.0912054820169148,15.8195416917715
0.102706581815172,15.820429308272
0.115917148250216,15.8213085855666
0.131175083960403,15.8221847599796
0.148917076952277,15.8230640295185
0.169723224672471,15.8239540903156
0.194399266819826,15.824865300806
0.223100275964446,15.8257821648937
0.256355339295164,15.8267062429489
0.29507508831608,15.8276494479415
0.340658317975586,15.8286342670788
0.37938618705145,15.829401019984
0.420051184264785,15.8301677728892
0.456039529682299,15.8308388389952
0.487404258394461,15.8314419153538
0.514998868564815,15.8320138439501
0.538956020294329,15.8325797778343
0.558894922128499,15.8331633185809
0.57381669243569,15.8337965666868
0.581267133229365,15.8345393781027
0.577213678391119,15.8352985834402
0.560603320731839,15.836096360821
0.529656594223361,15.8369529627032
0.485889542396601,15.8378154124707
0.426962938594825,15.8387262257257
0.374624185780697,15.8394127754719
0.316443159404825,15.8400993252181
0.266145718931978,15.840655784606
0.224340004995929,15.8411069881072
0.18829856109347,15.8414969815417
0.156365491243809,15.841850435184
0.12761788230116,15.8421814481106
0.101462522877477,15.8424996433054
0.0774441555847505,15.8428131633313
0.0551188481654986,15.8431311146669
0.0338440133162386,15.8434685725572
0.0117284885949885,15.8438729320488
-0.000122729092310074,15.8441227962075
-0.00773467848006648,15.8443003338415
-0.0147038818403135,15.8444778714755
-0.0207817366858087,15.8446472683037
-0.026993676868538,15.8448380245584
-0.0330972894719024,15.8450476593237
-0.038887532646332,15.8452733626725
-0.0442469451683193,15.8455138916429
-0.0491120259419821,15.8457690652933
-0.0534517857423548,15.8460394386607
-0.0572551502073202,15.8463261367108
-0.0605233617678509,15.8466307861399
-0.0632643315968869,15.8469555114078
-0.0656194697568408,15.847329205988
-0.0672709844090111,15.8477014590823
-0.0684338741171871,15.8481034175072
-0.0691236089757716,15.8485405052465
-0.0693506493542166,15.8490191526767
-0.0691202054982103,15.8495476363601
-0.0684284480882192,15.8501375946467
-0.0672567530626604,15.8508052406148
-0.0655645298756655,15.8515737048204
-0.0632678449612662,15.8524809900987
-0.0601703225149735,15.8536040478923
-0.0560232676798815,15.855039305243
-0.0519586574394386,15.8564242526613
-0.0480419352003899,15.8577684066999
-0.0443092033780835,15.8590746952716
-0.0407800117449229,15.8603442034387
-0.0374650218119662,15.8615770872665
-0.0343691661885057,15.8627730536417
-0.0314931747715365,15.863931614201
-0.0288344784259516,15.8650522184625
-0.0263878636036212,15.8661343203254
-0.0241460205269427,15.8671774058243
-0.022100035027814,15.8681809968774
-0.0202398385470066,15.8691446391113
-0.0185546169355234,15.8700678782618
-0.0169726227073804,15.8709864392903
-0.0154481322464936,15.8719285441436
-0.0139856220228908,15.8728957687705
-0.0125889933275426,15.8738902248396
-0.0112619446559919,15.8749143911631
-0.010007915902413,15.8759712063763
-0.00883003275701207,15.8770641887001
-0.00773104774589317,15.8781975973085
-0.00671327732190072,15.8793766548161
-0.00577853365289734,15.8806078624948
-0.00492804849029551,15.8818994615274
-0.00416238418453683,15.8832621348136
-0.00348132236595054,15.8847101274225
-0.002883711119521,15.8862631479976
-0.00238254101559463,15.8878933994949
-0.00197859322772907,15.889571209238
-0.00165535346730125,15.8913148760588
-0.00139789701797659,15.8931459033538
-0.00119199620306309,15.8950930997452
-0.00102359452000433,15.8971974586823
-0.000877944337624141,15.8995224070181
-0.0007377968656348,15.9021791738912
-0.000577880511228269,15.9054113686605
-0.000385176385591028,15.9091509581277
-0.000159472035335742,15.9131650199275
0.000119865096508889,15.9177535805495
0.000429720221905989,15.9226179173043
0.000760567426264023,15.9277632871002
0.001053965205837,15.9323824371981
0.00132449747284991,15.9367337637277
0.00158845619936511,15.9410757177548
0.00186516561835786,15.9457212647314
0.00215831218834901,15.9507205577242
0.00244393303742678,15.9556289594534
0.0027349859964062,15.9606334342438
0.00298208864087917,15.9648486484076
0.00321456103412587,15.9687722695696
0.0034435540190954,15.9725815991257
0.00367504127791246,15.9763628031223
0.0039133308577805,15.98017050028
0.00416217457526167,15.984045698047
0.00442523054974876,15.9880225636208
0.00470634402737856,15.9921319075983
0.00500980059758849,15.996403716759
0.00534055438268137,16.0008685088056
0.00570454361296886,16.0055585727936
0.00610918849061962,16.0105092331554
0.00655011798035883,16.0156007822035
0.00701026437727359,16.0205897818256
0.00749823450073493,16.0255352071415
0.00801552254593782,16.030406948443
0.00856764719028323,16.0352095197796
0.0091606023856743,16.0399435034561
0.00980157336036624,16.0446119565578
0.0104999148396367,16.0492251767154
0.0112809782138503,16.0538747646518
0.012159179012541,16.0585522522456
0.0131569443415944,16.0632754906082
0.0143052448683269,16.0680766541461
0.0156545297478496,16.0730313879808
0.0173090754010924,16.0783398112095
0.0196341020690189,16.0848109391904
0.0212971053108716,16.0889917825666
0.0230342578427234,16.0931726259429
0.0245289694100562,16.0967890986638
0.0257826724490566,16.1000127710624
0.026828967783044,16.1030610990539
0.0276452333201072,16.1060066882467
0.028193975564692,16.1088340773536
0.0284723264169077,16.1116650999281
0.0284468353282105,16.1146609999385
0.0279957251226343,16.118183670111
0.0271999334700547,16.1214651822605
0.0261011517181489,16.1247466944101
0.0250097277302086,16.1274702241605
0.0239343843589229,16.1299018742411
0.0228601423433316,16.1321939955807
0.0217858084207991,16.1344110241049
0.0207142637854622,16.1365871629039
0.0196491841484055,16.1387442369243
0.0185942418191742,16.140897799707
0.0175528934257687,16.1430598051994
0.0165283244734188,16.145239991866
0.0155234439339316,16.1474466796308
0.0145408873665395,16.1496872835304
0.0135830322677347,16.1519686455026
0.0126520047458109,16.154297291
0.0117496904292946,16.1566796182721
0.0108777463594655,16.1591220482635
0.010037603587196,16.1616311793291
0.00923048057008469,16.1642139036466
0.00845525456228749,16.1668851880839
0.00769245308172735,16.1697338366851
0.00694591728938114,16.1727796640986
0.00621939731043364,16.1760466610432
0.00551685133638086,16.179562491635
0.00484240554108363,16.1833591799729
0.00420031980039804,16.1874740092842
0.00359489659534712,16.1919508233909
0.00303014320502475,16.1968421670319
0.00250960326245481,16.2022131932185
0.00203610674478786,16.2081483718924
0.00161167937765435,16.2147608161779
0.00124843541713615,16.2219607169816
0.00094586513421104,16.2297572382208
0.000697363182451417,16.2382801990705
0.000499183806412949,16.2477016339605
0.000373722187262547,16.2565134248157
0.000273764818957947,16.2665134248157
0.000204308669161219,16.2765134248157
0.000155930623288924,16.2865134248157
0.000122589376359848,16.2965134248157
9.99828771187624e-05,16.3065134248157
8.49446729338557e-05,16.3165134248157
7.51881363917836e-05,16.3265134248157
6.91136379683159e-05,16.3365134248157
6.56268861541953e-05,16.3465134248157
6.39850023398603e-05,16.3565134248157
6.36826611060959e-05,16.3665134248157
6.43751643310859e-05,16.3765134248157
6.58282640672105e-05,16.3865134248157
6.78850965704929e-05,16.3965134248157
7.04437329804869e-05,16.4065134248157
7.34415966461034e-05,16.4165134248157
7.68446180767721e-05,16.4265134248157
8.06397958264798e-05,16.4365134248157
8.48302308602392e-05,16.4465134248157
8.94319531491569e-05,16.4565134248157
9.44720538791137e-05,16.4665134248157
9.99877935366588e-05,16.4765134248157
0.00010602647773711,16.4865134248157
0.000112645984407527,16.4965134248157
0.0001199158969749,16.5065134248157
0.00012791925822661,16.5165134248157
0.000136755017113391,16.5265134248157
0.00014654130377823,16.5365134248157
0.000157419744847345,16.5465134248157
0.000169561132064378,16.5565134248157
0.000183172897671245,16.5665134248157
0.000198509052211437,16.5765134248157
0.000215883540340089,16.5865134248157
0.000235688425652858,16.5965134248157
0.000258419022925376,16.6065134248157
0.000284709220414001,16.6165134248157
0.000315382065896853,16.6265134248157
0.000351523752689817,16.6365134248157
0.000394594417045677,16.6465134248157
0.000446598547240794,16.6565134248157
0.000506888709018542,16.6660131266968
0.000575064269968318,16.674793377013
0.000652033752369763,16.6828996329452
0.000738923666770314,16.6903838239068
0.000837029260187174,16.6972944913413
0.000947821169564258,16.7036766972689
0.00107296511280529,16.7095723089036
0.00121434688350885,16.7150202463942
0.00137410366014117,16.7200566457075
0.00155465455235789,16.7247150456038
0.00175874321834337,16.7290265978218
0.00198948194921754,16.7330202840024
0.00225041016292759,16.7367230655647
0.00254555618838906,16.7401600321303
0.00287952167269106,16.7433545905016
0.00325758801745504,16.7463286567534
0.00368584560672699,16.7491028149096
0.00417137319627554,16.7516965232843
0.00472248273070787,16.7541283676918
0.0053490592943685,16.7564163382141
0.00606144929972527,16.758573743306
0.00684617341129244,16.7605556415409
0.00771190499569186,16.7623943106686
0.00867171794451505,16.7641218432659
0.00974516250630435,16.7657708267885
0.0109647144348428,16.7673799153045
0.0124194323742532,16.7690349568077
0.0143617892761074,16.7709361546302
0.0162605024156587,16.7725698353519
0.0183355588680387,16.7742035160736
0.0200952704701165,16.77553024721
0.0216264645382,16.7766878346909
0.0230005287572204,16.777772620793
0.024230158615869,16.7788331582909
0.0253040441696155,16.7799069296215
0.0261931275735121,16.781037009762
0.0268408276440062,16.782294409406
0.027108290235819,16.7838668970844
0.0267371755863128,16.7855908364537
0.0257811684234294,16.787314775823
0.0246588030376912,16.7887388011284
0.0233880064148801,16.7901055146667
0.0219664026707237,16.7915026945222
0.0204591260722972,16.7929205619415
0.0189216047065007,16.7943516904709
0.0177982327528448,16.7954093592057
0.0167217215306156,16.7964670279406
0.0147408696563145,16.7985684479126
0.0122422082755099,16.8016006784596
0.0102682643321223,16.8044292990134
0.00874232836530341,16.8070033716788
0.00748843376355789,16.8094851351697
0.00640736716932197,16.8120072548702
0.00547451990256852,16.8145984188514
0.0046735299987491,16.8172817640556
0.00399246510108056,16.8200805685073
0.00342310796128352,16.8230198665956
0.00296100190371631,16.8261278531622
0.00260624087005017,16.8294374577649
0.00236543477855043,16.8329883460735
0.00225603278389565,16.8368296820093
0.00229407373237261,16.8403679177892
0.00245120935676593,16.8435480762755
0.00270846275604974,16.8464190941461
0.00305619710062765,16.8490287546559
0.00349197681283336,16.851425748113
0.00401998041080433,16.8536589632913
0.00465268492413396,16.8557811411262
0.00541440753894077,16.8578516558248
0.00635218732353682,16.8599501998039
0.0075644166907165,16.8622062634707
0.00926025988601595,16.8648378802959
0.011352849335895,16.8675642625189
0.0129539527992735,16.8693755070055
0.0147599266930663,16.8711867514922
0.0166275594833463,16.8728353696559
0.0185657964090465,16.8743366617992
0.0206672864207875,16.8757589521527
0.0229584845498993,16.8771070293529
0.0255018394710753,16.8784025649599
0.0283302851077851,16.8796456602023
0.0314959799240959,16.8808434594303
0.0350423366202635,16.8819970319299
0.0390256258939794,16.8831102112047
0.0435026161034831,16.8841849087831
0.0485431003971594,16.8852244034602
0.0542245254558646,16.8862313701776
0.0606392436048765,16.887208966677
0.0678959562636867,16.8881604187425
0.0761237149349183,16.889089051392
0.0854792994094492,16.8899985371628
0.096153475045227,16.8908927790596
0.108381879670122,16.8917760637369
0.122460643685402,16.892653256242
0.138767686086259,16.8935299771117
0.157796674472096,16.894412998799
0.180214682143005,16.8953109981437
0.206699099826546,16.8962273527022
0.237338416493504,16.8971463057394
0.272901660284425,16.8980770611703
0.31446357851196,16.8990349485952
0.363875776437464,16.9000527149034
0.400520025486923,16.9007555697457
0.438203580209739,16.901458424588
0.471730785405915,16.902089666212
0.501213088854279,16.9026740075285
0.527063861262034,16.9032401943863
0.549154397573192,16.9038114648728
0.566843539325941,16.9044139656081
0.578631091506095,16.9050905819665
0.580881521705233,16.905838092312
0.571226662739861,16.9066123431557
0.548292137366231,16.9074348320792
0.511630897787152,16.9082908464
0.461235288465793,16.9091735336895
0.396267354552554,16.9100918745791
0.347516765952553,16.9106932777652
0.294799764025997,16.9112946809514
0.248643596540834,16.9117982196476
0.209437746422321,16.9122206370893
0.175176796551497,16.9125939077955
0.144596113261372,16.9129370905841
0.116939115448864,16.913261990602
0.0916841369563235,16.9135773604535
0.0683959422678237,16.9138913907112
0.0465901107120719,16.9142146093977
0.0253862984870345,16.9145684362117
0.00774980208256866,16.9149067024527
-0.00170866273549175,16.9151115719991
-0.010283280227705,16.9153164415456
-0.0169640665562499,16.9154921324392
-0.0231033227978526,16.9156692695874
-0.0293057540445351,16.9158675425223
-0.0353104565166502,16.9160834292492
-0.0409495836611673,16.9163147647883
-0.0461291783727399,16.9165607557052
-0.0507998480655087,16.9168215246814
-0.0549392049844274,16.9170978533549
-0.0585414918109752,16.9173910586277
-0.0616112255118269,16.9177029512655
-0.0641541036087776,16.9180358514248
-0.0662240615833707,16.9184031941569
-0.0677108365116899,16.9187847636477
-0.0687148617131146,16.9191977904936
-0.0692496649637254,16.9196479182355
-0.0693242062339655,16.9201421221738
-0.0689413901563428,16.9206894564321
-0.0680928725411881,16.9213032382454
-0.066754019315398,16.9220013461208
-0.0648732848643577,16.9228106517759
-0.062341926475465,16.9237777263327
-0.0588796557507401,16.9250086766645
-0.0547513119912552,16.9264257421912
-0.0507272593762598,16.9277976321082
-0.0468647710249991,16.9291298952777
-0.0431935525131177,16.9304247577359
-0.0397299054218827,16.9316829507505
-0.0364824975651628,16.9329044564746
-0.0334548426730333,16.9340889031235
-0.0306465711090363,16.9352357738386
-0.0280542328895284,16.9363445152827
-0.0256719108133284,16.9374145901218
-0.0234917481515429,16.9384454962615
-0.0215044273114062,16.9394367650648
-0.0196996073162192,16.9403879453096
-0.0180663193992913,16.9412985766267
-0.0165012527597234,16.9422242412928
-0.0149952461514987,16.9431738030057
-0.0135524267702999,16.9441490946563
-0.0121766408928666,16.9451523308233
-0.0108715138744791,16.946186119815
-0.00964039584971387,16.9472535627228
-0.00848630513475558,16.9483583842984
-0.00741186815818769,16.9495051104626
-0.00641925511913238,16.950699314971
-0.00551010972052065,16.9519479721301
-0.00468546979308486,16.9532599786865
-0.00394567280464151,16.9546469587375
-0.00329023460163629,16.9561245708502
-0.00271767723183721,16.9577147756858
-0.00224844896194828,16.9593575763244
-0.00187102402014999,16.9610537165233
-0.00156961049569724,16.9628217386149
-0.00132954140803487,16.9646850573233
-0.00113670856097539,16.9666755528419
-0.000976959241162885,16.9688396402933
-0.000835046741092848,16.9712515223962
-0.000692196676729491,16.9740484808403
-0.000517382405066323,16.9775667731486
-0.000317585122624707,16.9813439483984
-7.55857212077107e-05,16.9855286058557
0.00021415683181531,16.9902010407474
0.000531922979328591,16.9951578766373
0.000849635200277235,17.0001085047891
0.00113446659027849,17.0046192654763
0.0014014105086172,17.0089416325751
0.00166667119186113,17.0133324047223
0.00195301337633235,17.0181658249595
0.00224212203930437,17.0231110124628
0.00252859663672874,17.0280388883089
0.00280151721152977,17.0327234681318
0.00304304245367889,17.0368344092753
0.00327384801445445,17.0407170319217
0.00350300416895623,17.0445126058775
0.00373586817080612,17.0482961485068
0.00397653524366994,17.0521177207264
0.00422870246851971,17.0560161619575
0.00449604621754997,17.060024409634
0.00478250588718088,17.0641729164983
0.00509251592232791,17.068491684945
0.00543124918437666,17.0730115691071
0.00580496892499222,17.0777655171309
0.00622159279491493,17.0827898132525
0.00666630713588347,17.0878439473717
0.00713375700402665,17.0928272719605
0.00762882082411916,17.097753204599
0.00815463066756821,17.1026074816875
0.00871666900767741,17.107392033398
0.00932130670884669,17.1121088267957
0.00997595455369398,17.1167607097007
0.0106944084540823,17.1213833717854
0.011498895183029,17.1260391025268
0.0124057701436922,17.1307265911607
0.0134391257048801,17.1354658310837
0.0146335598054959,17.1402968348333
0.0160482365786439,17.145315204905
0.0178173941162523,17.150790780218
0.0202329625935238,17.1573006712069
0.0218151049296423,17.1612024948201
0.0234429740866865,17.1651043184333
0.0248661630406989,17.1685826653405
0.0260659311281515,17.1717451826267
0.0270602194882222,17.1747733845457
0.0278082488978956,17.1776777577307
0.0282900342311623,17.1804938120047
0.028496840352594,17.1833480371873
0.0283824452436703,17.1864255255095
0.0277661840269362,17.1902388609606
0.0269371507373119,17.1932821472959
0.0258628525909676,17.1963254336311
0.0247814017344664,17.1989550411494
0.0237072277690368,17.201348105469
0.0226328599628009,17.2036204277326
0.0215588306912845,17.2058265276027
0.0204883436579215,17.2079970931394
0.0194251101435193,17.2101522835247
0.0183727653611355,17.2123067311733
0.0173347117859643,17.2144718303971
0.0163140753789701,17.2166569678314
0.0153137069338243,17.218870236021
0.0143361865090151,17.2211189043749
0.0133838365125744,17.2234097322248
0.0124587337375104,17.2257491979744
0.0115627134185819,17.2281436955483
0.0106973827328242,17.2305996762054
0.00986412981083571,17.2331237820751
0.00906412672093436,17.235722991165
0.00829126553741011,17.2384305173396
0.00753163482631549,17.2413193914043
0.00678905097096693,17.2444102856022
0.00606731204516449,17.2477279180578
0.00537041474827814,17.2513008265522
0.00470251349624804,17.2551620712803
0.00406790047036694,17.2593502040567
0.00347083452810153,17.2639107028432
0.00291524238132722,17.2688983874059
0.00240453293746842,17.2743818826838
0.00194136409222734,17.2804509138204
0.0015276071180409,17.2872260143562
0.00117803827490559,17.294546428507
0.000887717566929127,17.3024878484647
0.00065009064005747,17.3111889948553
0.000463573228776615,17.3208328304974
0.000334979959295663,17.3308328304974
0.000247158403488195,17.3408328304974
0.000185959203840785,17.3508328304974
0.000143319359813242,17.3608328304974
0.000114004275460526,17.3708328304974
9.42232647574312e-05,17.3808328304974
8.11629543571087e-05,17.3908328304974
7.27910682443981e-05,17.4008328304974
6.76907116920433e-05,17.4108328304974
6.48961999944766e-05,17.4208328304974
6.37535928993158e-05,17.4308328304974
6.38186975067997e-05,17.4408328304974
6.47890157613272e-05,17.4508328304974
6.64597063755813e-05,17.4608328304974
6.86946061330035e-05,17.4708328304974
7.14065043711245e-05,17.4808328304974
7.45434187270542e-05,17.4908328304974
7.80790504137405e-05,17.5008328304974
8.20062695722608e-05,17.5108328304974
8.63328128424742e-05,17.5208328304975
9.10785910962776e-05,17.5308328304975
9.62741788567e-05,17.5408328304975
0.000101960199090021,17.5508328304975
0.000108187427884681,17.5608328304975
0.00011501752788953,17.5708328304975
0.000122524386104976,17.5808328304975
0.000130796090049594,17.5908328304975
0.000139937634865139,17.6008328304975
0.000150074520518136,17.6108328304975
0.000161357481817484,17.6208328304975
0.000173968706256811,17.6308328304975
0.00018813005283122,17.6408328304975
0.000204114015278873,17.6508328304975
0.000222258517523376,17.6608328304975
0.000242987155979977,17.6708328304975
0.000266837328027654,17.6808328304975
0.000294500007134186,17.6908328304975
0.000326877095651736,17.7008328304975
0.000365165951567891,17.7108328304975
0.000410987066241842,17.7208328304975
0.00046651846346666,17.7308222248576
0.000529470582078501,17.7400737337935
0.00060056798027444,17.7486155747719
0.000680825124303738,17.756501532545
0.000771429318646672,17.7637825767093
0.00087373552223754,17.7705060207438
0.000989279468399646,17.7767157934493
0.00111979977275532,17.7824527207382
0.0012672651430174,17.7877547454894
0.00143390649680612,17.7926570850706
0.00162224935298222,17.7971924296853
0.00183515919646958,17.8013911598506
0.00207588926313633,17.8052815466826
0.0023481388887687,17.8088898868398
0.00265612469049456,17.8122406659454
0.00300466877196167,17.8153567579292
0.00339931523256432,17.8182595996343
0.00384647298769471,17.8209693603149
0.00435361359008866,17.8235051687054
0.0049295468578461,17.8258853694635
0.00558480825066688,17.8281278307628
0.0063210335062923,17.8302212897126
0.00713222215578298,17.8321505394387
0.00802837214716054,17.8339476869413
0.0090243449749713,17.8356445782997
0.0101430595040169,17.8372750118653
0.0114244915126189,17.8388821716673
0.0130052135920899,17.8405920216871
0.0152720485895602,17.8426934818996
0.0170109987672831,17.8441267804753
0.0188677087377817,17.8455600790511
0.0205382623065175,17.8468152152815
0.0220217085375518,17.8479456148533
0.0233558003996811,17.8490196742842
0.0245441458158138,17.8500801520394
0.0255705866861664,17.8511645925146
0.0264002151101579,17.852320673456
0.0269634265673065,17.8536360256116
0.0270578915799205,17.855396984538
0.0265353988469254,17.8569982798791
0.0255415341760052,17.8585995752202
0.0243909269607137,17.8599934828099
0.0230868849850887,17.86136167458
0.0216333413277249,17.8627716943917
0.0201225038390905,17.8641860666438
0.0185720871515726,17.8656310649542
0.0169394133906524,17.867203914425
0.0156115564963328,17.8685722598599
0.0130618822300927,17.8715042643801
0.0109022372217564,17.8744231767584
0.00927672945070732,17.8770090791612
0.00794306017043111,17.8794932327653
0.00679993620978179,17.8819957395726
0.00581290564927107,17.8845578126311
0.00496336606626314,17.8872033545495
0.00423784000997604,17.8899553618961
0.00362672618413255,17.8928380355429
0.00312408935474254,17.8958781959174
0.00272814103441855,17.8991067629789
0.00244266921930883,17.9025605620093
0.00228025440737404,17.9062847475168
0.00226355063545472,17.9099870095341
0.00237707391656982,17.9132993241251
0.00259672356814274,17.9162840766269
0.00290975412331741,17.9189899513385
0.00331102136504677,17.921464300311
0.00380204840832622,17.923755568236
0.00439164677117021,17.9259142504068
0.00509838411217086,17.9279954127145
0.00595906035536852,17.9300706412823
0.00704700200711496,17.9322452237529
0.00851865808231589,17.9346981013988
0.0104576379809793,17.9374067674653
0.0120794951189526,17.9393647230534
0.0139174993857412,17.9413226786415
0.0157828487560301,17.9430685463175
0.01767281437294,17.9446219772184
0.0197044226481417,17.9460840416515
0.0219017815553112,17.9474615037878
0.0243282749771608,17.9487807543758
0.0270224202706631,17.9500462845228
0.0300309041325762,17.9512640011251
0.0333998632800479,17.9524369425941
0.0371802699852718,17.9535679860213
0.0414276021859154,17.9546595485076
0.0462068157826873,17.9557146386014
0.0515898493880187,17.9567357777378
0.0576633900948208,17.9577262053516
0.0645274773773745,17.9586889649926
0.072301821912631,17.9596273959924
0.0811301090829272,17.9605450261028
0.0911862809497647,17.9614455946093
0.102684587007106,17.9623332307381
0.115891827595013,17.9632125190156
0.131145757029893,17.9640886943374
0.148882857028164,17.9649679527586
0.169682913532777,17.9658579869934
0.194351149881891,17.9667691489694
0.223044613232897,17.9676860084656
0.25629073710053,17.9686100653972
0.294999600940547,17.9695532216611
0.340568615727524,17.9705379333708
0.379309857349186,17.9713050578168
0.419992271308138,17.9720721822627
0.455989604838203,17.9727434073498
0.487360367997257,17.9733465545633
0.514960297374257,17.9739185097828
0.538922970631571,17.9744844363357
0.558868337809213,17.9750679315416
0.573798740467061,17.9757010722662
0.58126420030133,17.9764438781562
0.577226745916109,17.9772030469613
0.560634273438694,17.9780007586317
0.529708348956902,17.9788572695329
0.485960533219875,17.9797196788667
0.427055073323559,17.9806304352767
0.374705369941267,17.981317270147
0.316506769248863,17.9820041050173
0.266196266947415,17.9825607361896
0.224382609458953,17.9830120304249
0.188335890116956,17.9834020754111
0.156398883886451,17.9837555605474
0.127648127318613,17.9840865925571
0.101490174004225,17.9844047974261
0.0774696853768296,17.9847183180982
0.0551427970395436,17.9850362581833
0.0338673832112532,17.9853736803079
0.0117557854185113,17.9857778903343
-0.000116563078721109,17.986028160842
-0.00772930749848395,17.9862057054994
-0.0146992347680939,17.9863832501568
-0.0207776543097331,17.9865526519165
-0.0269895907757154,17.9867433949916
-0.033093353106085,17.9869530185037
-0.0388838477150846,17.9871787118664
-0.0442435683794703,17.9874192312761
-0.0491089867537124,17.9876743952201
-0.0534490970426728,17.9879447583182
-0.0572528146542188,17.9882314451911
-0.0605213756985805,17.9885360822116
-0.0632626923424644,17.9888607935017
-0.065618184287838,17.9892344683845
-0.0672700303560518,17.9896067027857
-0.0684332414259002,17.9900086395096
-0.0691232893419361,17.9904457017261
-0.0693506372460718,17.9909243187646
-0.0691204997070076,17.9914527657113
-0.0684290557515124,17.992042677734
-0.0672576926121295,17.9927102648807
-0.0655658394569654,17.9934786509765
-0.0632696053871001,17.9943858241309
-0.0601727455282898,17.9955086903043
-0.0560256606709846,17.9969439851638
-0.0519609781455256,17.9983289575977
-0.0480441551802449,17.9996731341926
-0.0443113077952208,18.0009794443
-0.0407819924383032,18.0022489737195
-0.0374668746048774,18.0034818788819
-0.0343708896855173,18.0046778668425
-0.031494769710873,18.0058364493022
-0.0288359472485401,18.0069570757898
-0.026389210111402,18.0080392001904
-0.0241472495844531,18.0090823085161
-0.0221011522885546,18.0100859226664
-0.0202408502041888,18.0110495882597
-0.0185555294971752,18.0119728510402
-0.0169735030056113,18.0128913987247
-0.0154489773346551,18.0138334895878
-0.013986429627571,18.0148006990931
-0.0125897612756261,18.0157951387204
-0.0112626709088929,18.0168192870443
-0.0100085985873376,18.0178760824026
-0.00883067020010472,18.0189690426388
-0.00773163850744768,18.0201024264407
-0.00671382023422752,18.0212814557851
-0.00577902786189957,18.0225126310877
-0.00492849350283687,18.023804192351
-0.00416277992552663,18.0251668207897
-0.00348166925270231,18.0266147589629
-0.00288401016933671,18.0281677115561
-0.00238277835797691,18.029797940813
-0.00197877930311092,18.0314757176193
-0.00165549724238312,18.0332193406081
-0.00139800694147182,18.0350503098165
-0.0011920804519505,18.0369974285425
-0.00102366137780849,18.0391016809752
-0.000878002871419213,18.0414264759808
-0.000737858553135233,18.0440830009282
-0.000577965273758188,18.0473147293254
-0.000385272001912966,18.0510542794971
-0.000159595353395148,18.055068065187
0.00011972355463262,18.0596565012132
0.000429564869827226,18.0645207004185
0.000760432078199733,18.0696663825579
0.00105384342579094,18.0742857098349
0.00132438194427945,18.0786370935089
0.00158834008134288,18.0829789959615
0.00186503834169394,18.0876243167595
0.00215819212017976,18.0926237086465
0.00244381296323471,18.0975321016626
0.00273489546211618,18.1025370962763
0.00298200634068418,18.1067524628919
0.00321448116921752,18.1106761426365
0.00344347405886444,18.114485493054
0.00367495960111554,18.1182666963704
0.00391324615291918,18.1220743777201
0.00416208560767249,18.1259495474355
0.00442513607554739,18.1299263745268
0.00470624268576878,18.1340356701171
0.00500969084084416,18.1383074210265
0.00534043438898447,18.1427721445885
0.00570441115695543,18.1474621290873
0.00610904073210166,18.1524126977768
0.00654996499310919,18.1575042946478
0.0070101016800551,18.1624933013223
0.00749806235388075,18.1674387518736
0.00801533912877054,18.1723105161108
0.00856745071205685,18.1771131113206
0.00916039057139463,18.1818471180066
0.00980134360759355,18.1865155932702
0.010499658793472,18.1911288009993
0.0112806916140427,18.1957783811889
0.0121588550870552,18.200455856166
0.0131565742773359,18.2051790747133
0.0143048154610667,18.2099802018814
0.0156540176105496,18.2149348595939
0.0173084243305818,18.2202430906521
0.0196330274929495,18.2267133764739
0.021296195547029,18.230894792781
0.0230335679394498,18.235076209088
0.0245284071330261,18.2386929413567
0.0257822001134802,18.2419167251827
0.026828579843645,18.2449650932111
0.0276449566571917,18.2479107562542
0.0281938069359911,18.2507381701283
0.0284722716009706,18.2535691633223
0.0284469183135993,18.2565649487183
0.0279960416792973,18.2600872388488
0.0272003016645587,18.263369156992
0.0261014712971074,18.2666510751352
0.0250100284469422,18.2693747515356
0.0239346826935554,18.2718064572136
0.0228604408101465,18.2740986062498
0.0217861065735632,18.2763156500257
0.0207145606526621,18.2784917967281
0.0196494786926064,18.2806488736444
0.0185945330468925,18.2828024355939
0.0175531804127448,18.2849644372968
0.0165286063738182,18.2871446177003
0.015523719977889,18.2893512970424
0.0145411568583239,18.2915918905584
0.0135832945835207,18.2938732403035
0.0126522593268971,18.2962018717978
0.0117499367834905,18.2985841833014
0.0108779840603544,18.3010265957239
0.0100378322643611,18.3035357073693
0.00923069991472254,18.3061184103065
0.00845547088122744,18.3087896476042
0.00769266532116259,18.3116382439
0.00694612442803728,18.3146840127326
0.00621959826282883,18.3179509438829
0.00551704496655077,18.3214667003324
0.00484259067304485,18.3252633048472
0.00420049521851954,18.3293780390255
0.00359506112947897,18.3338547446078
0.0030302957823842,18.3387459634479
0.00250974297922105,18.3441168441985
0.00203623292180384,18.3500518501676
0.00161179154584069,18.3566640850167
0.00124852944729777,18.3638638313088
0.000945942913340146,18.3716601668867
0.000697426528009519,18.3801828997199
0.000499231671904068,18.3896040505405
0.000373779765558984,18.3984139451761
0.000273804446111936,18.4084139451761
0.000204336088949756,18.4184139451761
0.00015594954013547,18.4284139451761
0.000122602314201974,18.4384139451761
9.99916162442032e-05,18.4484139451761
8.49504753512334e-05,18.4584139451761
7.51918865356436e-05,18.4684139451761
6.91159474836799e-05,18.4784139451761
6.56281746932943e-05,18.4884139451761
6.39855571580567e-05,18.4984139451761
6.36826787415027e-05,18.5084139451761
6.43747788322282e-05,18.5184139451761
6.58275659871697e-05,18.5284139451761
6.7884145877002e-05,18.5384139451761
7.04425679401166e-05,18.5484139451761
7.34402399668602e-05,18.5584139451761
7.68430811302753e-05,18.5684139451761
8.06380815037295e-05,18.5784139451761
8.48283354488575e-05,18.5884139451761
8.94298675044699e-05,18.5984139451761
9.44697640758619e-05,18.6084139451761
9.99852811240701e-05,18.6184139451761
0.000106023719672278,18.6284139451761
0.000112642952705671,18.6384139451761
0.000119912558085686,18.6484139451761
0.000127915572119332,18.6584139451761
0.000136750936027025,18.6684139451761
0.000146536770561604,18.6784139451761
0.000157414690775912,18.6884139451761
0.000169555473967705,18.6984139451761
0.000183166534131343,18.7084139451761
0.000198501858483969,18.7184139451761
0.000215875361488401,18.7284139451761
0.000235679067136177,18.7384139451761
0.000258408237492298,18.7484139451761
0.000284696689525473,18.7584139451761
0.000315367372869759,18.7684139451761
0.000351506343001974,18.7784139451761
0.000394573538184997,18.7884139451761
0.00044657315495173,18.7984139451761
0.000506859915459463,18.8079139742329
0.000575031745426385,18.8166945393611
0.00065199703157319,18.8248010862324
0.000738882205952806,18.8322855455039
0.000836982439169052,18.8391964602401
0.00094776828529931,18.8455788939607
0.00107290536944924,18.8514747152555
0.00121427937991698,18.8569228455561
0.00137402737534938,18.8619594220413
0.00155456833066156,18.8666179845931
0.0017586457484889,18.870929685973
0.001989371741864,18.874923508757
0.00225028552522016,18.8786264152425
0.00254541518893146,18.8820634958533
0.00287936210232609,18.8852581581009
0.00325740733474493,18.8882323186966
0.00368564087055332,18.8910065622212
0.00417114097415277,18.8936003474387
0.00472221896877425,18.8960322604996
0.00534875913371979,18.898320291677
0.00606111885228431,18.9004777823474
0.00684580945998695,18.9024597512876
0.00771150271483909,18.9042984765508
0.00867127041576977,18.9060260512694
0.00974465895702287,18.9076750617676
0.0109641358036485,18.9092841573588
0.0124187064389438,18.9109391396076
0.0143607325775868,18.9128401447677
0.0162596945252332,18.9144741258559
0.0183350860944175,18.9161081069442
0.0200948988369072,18.9174349203646
0.0216261351473257,18.9185925338142
0.0230002322900468,18.9196773301482
0.0242298954575767,18.9207378688649
0.0253038188295672,18.9218116328368
0.0261929490344238,18.9229416939412
0.0268407140482083,18.9241990516711
0.0271082974243098,18.925771417202
0.0267373107647751,18.9274954459154
0.0257813431755618,18.9292194746287
0.0246589991540673,18.9306435257977
0.0233882274322251,18.9320102394944
0.0219666477152659,18.9334074104813
0.0204593708401115,18.9348252840462
0.0189218610733473,18.9362564010156
0.0177986404831045,18.9373139175187
0.0167222605667194,18.9383714340219
0.0147415985505613,18.9404725807872
0.0122427737318165,18.943504879955
0.0102686929556999,18.9463335783763
0.00874269991017701,18.9489076393296
0.00748875403601674,18.9513893940426
0.0064076434384004,18.9539114978794
0.00547475738825282,18.9565026395005
0.00467373252211979,18.959185956012
0.00399263538280178,18.9619847251465
0.00342324768721804,18.9649239806145
0.00296111160474584,18.9680319161782
0.00260631955161995,18.9713414598336
0.00236547908806717,18.9748922750479
0.00225603520391959,18.9787335226273
0.00229403518362075,18.9822718879746
0.00245113743024045,18.9854521519229
0.00270836161399514,18.9883232611877
0.00305606839401578,18.9909329973983
0.00349182019832011,18.993330051327
0.00401979331219376,18.9955633109954
0.00465246160839386,18.9976855153684
0.00541413771392879,18.9997560361131
0.00635184993306146,19.0018545544523
0.00756396527756779,19.0041105361306
0.00925960329588656,19.0067419885119
0.0113520664512076,19.0094683642646
0.0129531769582129,19.011279717357
0.0147591632073567,19.0130910704493
0.0166267838303445,19.0147397646312
0.0185649705990933,19.0162410987475
0.0206663926402574,19.0176634225086
0.0229575007663882,19.0190115244929
0.0255007479570349,19.0203070819529
0.0283290679707299,19.0215501969894
0.0314946176862538,19.0227480144618
0.035040809364207,19.023901604203
0.0390239110927331,19.0250147996785
0.0435006879105199,19.0260895122625
0.0485409293932101,19.0271290208066
0.0542220767050178,19.0281360000596
0.0606364772829349,19.0291136079173
0.0678928245478496,19.0300650700104
0.0761201603256774,19.030993711258
0.0854752523915225,19.031903204122
0.0961488502437218,19.032797451466
0.108376570797812,19.0336807397551
0.122454516520867,19.0345579337903
0.138760567615945,19.0354346537368
0.157788335715208,19.0363176714732
0.180204807414204,19.0372156628452
0.206687690328612,19.0381320179684
0.237325202945828,19.0390509685699
0.272886288247546,19.0399817170397
0.314445517591935,19.0409395892137
0.363853969131727,19.0419573200126
0.400500083948578,19.0426602284367
0.438186289800827,19.0433631368608
0.471715689558849,19.0439944110435
0.501199777067564,19.0445787673745
0.527052271976554,19.0451449573901
0.549144707242377,19.0457162199366
0.566836206864972,19.0463186978716
0.578627199755322,19.0469952620819
0.5808830808125,19.0477427650699
0.571234160778202,19.0485169979993
0.548306408313967,19.0493394592539
0.511650846208723,19.0501954788556
0.461262425843888,19.0510781413262
0.39629958158006,19.0519964894911
0.347545357759646,19.0525979724743
0.294823049990561,19.0531994554575
0.248662747295415,19.0537030456282
0.209454209154076,19.0541254920007
0.175191363159861,19.0544987798936
0.144609215755127,19.0548419732841
0.116951028151432,19.0551668794769
0.0916950667855103,19.0554822518421
0.0684060842695959,19.055796280676
0.0465997274890811,19.0561194918624
0.0253960304880986,19.0564732951882
0.00775273663139617,19.0568116747861
-0.00170687958695537,19.0570165644581
-0.0102824676303012,19.05722145413
-0.0169634004824992,19.0573971471381
-0.0231026300026866,19.057574281669
-0.0293050695857136,19.0577725524581
-0.0353098048514546,19.0579884373843
-0.0409489787420279,19.0582197712786
-0.0461286277959353,19.0584657605824
-0.0507993556153705,19.0587265278929
-0.0549387720890879,19.0590028547823
-0.0585411184611813,19.0592960580971
-0.0616109108098069,19.0596079485478
-0.0641538474824476,19.0599408462314
-0.0662238937181648,19.0603081922669
-0.0677107154059723,19.0606897590561
-0.0687147856678967,19.0611027826654
-0.0692496329080974,19.0615529065835
-0.0693242175572409,19.0620471059459
-0.0689414449525925,19.0625944346387
-0.0680929723068488,19.0632082093835
-0.0667541673976225,19.0639063081568
-0.0648734881301501,19.0647156014695
-0.0623422001384462,19.0656826575534
-0.0588800460595779,19.066913572485
-0.0547516952374942,19.0683306431121
-0.0507276290756567,19.0697025369488
-0.0468651234355743,19.0710348037137
-0.0431938856345256,19.0723296696412
-0.0397302181659929,19.0735878660984
-0.0364827894169355,19.0748093752868
-0.0334551135307314,19.0759938254435
-0.0306468211924471,19.0771406997174
-0.028054462675721,19.0782494447718
-0.0256721209834565,19.0793195232699
-0.0234919395438172,19.080350433114
-0.0215046008781218,19.0813417056645
-0.0196997640845669,19.0822928896988
-0.0180664604363214,19.08320352485
-0.0165013885287934,19.0841291873619
-0.0149953761969194,19.0850787468107
-0.0135525507398554,19.0860540360096
-0.0121767584516973,19.0870572695054
-0.0108716247105299,19.0880910555663
-0.00964049967876336,19.0891584952331
-0.00848640170575622,19.0902633131932
-0.0074119572589472,19.091410035284
-0.00641933658247223,19.0926042351508
-0.00551018343110368,19.0938528869516
-0.00468553569531014,19.0951648872255
-0.00394573091237522,19.0965518597702
-0.00329028501127759,19.0980294627
-0.0027177201419201,19.0996196559462
-0.00224848244730725,19.1012624525612
-0.00187104970200693,19.1029585869539
-0.00156962979361234,19.1047266013408
-0.00132955566905826,19.1065899098268
-0.001136719104583,19.1085803915966
-0.000976967430515854,19.1107444599666
-0.000835054121472891,19.1131563139842
-0.000692205347317043,19.1159532261081
-0.000517396704626015,19.1194714180726
-0.00031760221137956,19.1232485765933
-7.56085378326179e-05,19.1274331739751
0.000214130913123666,19.132105586376
0.000531894824959437,19.1370623973503
0.000849610247683174,19.1420130729267
0.00113444373604379,19.1465238593532
0.00140138847222871,19.1508462314563
0.00166664860052635,19.1552369866165
0.00195298762455348,19.1600703462064
0.00224209713050743,19.1650155444037
0.00252857123247662,19.1699434110411
0.00280149613697914,19.1746280681819
0.00304302279933279,19.1787390370604
0.00327382874209683,19.1826216708041
0.00350298475519113,19.1864172482118
0.003735848253346,19.1902007896273
0.00397651451541942,19.1940223572239
0.00422868063503786,19.1979207910468
0.00449602297360769,19.2019290288556
0.00478248089502021,19.2060775234861
0.00509248879419785,19.2103962773155
0.00543121945953874,19.214916144362
0.00580493603430978,19.2196700725587
0.00622155600394951,19.2246943458438
0.00666626904722562,19.2297484921025
0.00713371649391416,19.2347318190191
0.00762877792286045,19.2396577580924
0.00815458489697502,19.244512040915
0.00871661989990757,19.249296598473
0.00932125367799752,19.2540133974409
0.00997589694490371,19.2586652857468
0.010694344115699,19.2632879447159
0.0114988230027589,19.2679436733641
0.012405688353965,19.2726311585758
0.013439031945502,19.2773703929057
0.0146334504109607,19.2822013860363
0.0160481046413436,19.2872197330096
0.0178172208674152,19.2926952451271
0.0202327877664702,19.2992051948168
0.0218149511509124,19.3031070899269
0.0234428491230954,19.3070089850369
0.0248660589854462,19.3104873700628
0.0260658437800565,19.3136499045564
0.0270601486545592,19.3166781114552
0.0278081996166887,19.3195824963796
0.0282900063235947,19.3223985529924
0.0284968356163171,19.3252527691247
0.0283824701009492,19.3283302277475
0.0277662696554166,19.3321434486416
0.0269372475518998,19.3351868069848
0.0258629434123515,19.338230165328
0.0247814899332783,19.340859803839
0.0237073157015917,19.3432528818289
0.0226329479451016,19.3455252112841
0.0215589185274928,19.3477313151273
0.0204884310520726,19.3499018826539
0.0194251967910863,19.3520570736478
0.0183728509730747,19.3542115208611
0.0173347960947506,19.3563766188115
0.0163141581399458,19.358561754265
0.0153137879248982,19.36077501985
0.0143362655292767,19.3630236850298
0.0133839133821796,19.3653145091667
0.0124588082961184,19.3676539706799
0.0115627855250051,19.3700484634954
0.0106974522648053,19.3725044388602
0.00986419666321216,19.3750285388844
0.00906419080604802,19.3776277415427
0.00829132868246092,19.3803352535693
0.00753169671808908,19.3832241119266
0.00678911130592651,19.386314988521
0.00606737050165142,19.3896326011905
0.005370470989868,19.393205487374
0.00470256717633048,19.3970667068579
0.00406795123233748,19.4012548109551
0.00347088203272166,19.4058152769752
0.00291528632190678,19.4108029237729
0.00240457306187205,19.4162863748829
0.00194140021543601,19.4223553533326
0.00152763911243862,19.4291303897097
0.00117806503094577,19.4364507561315
0.00088773963135299,19.4443921186645
0.000650108540790403,19.4530931943428
0.000463586709755319,19.462736941558
0.000334989101131469,19.472736941558
0.000247164716787159,19.482736941558
0.000185963590694791,19.492736941558
0.000143322392646475,19.502736941558
0.000114006348414323,19.512736941558
9.42246609826232e-05,19.522736941558
8.11638769789376e-05,19.532736941558
7.27916600299878e-05,19.542736941558
6.76910710915523e-05,19.552736941558
6.4896394254708e-05,19.562736941558
6.37536678948031e-05,19.572736941558
6.38186845643155e-05,19.582736941558
6.47889362121661e-05,19.592736941558
6.64595745828895e-05,19.602736941558
6.86944315413385e-05,19.612736941558
7.14062929194639e-05,19.622736941558
7.4543173828495e-05,19.632736941558
7.80787736288879e-05,19.642736941558
8.20059610624837e-05,19.652736941558
8.63324716643831e-05,19.662736941558
9.10782153809681e-05,19.672736941558
9.62737659035809e-05,19.682736941558
0.000101959745394521,19.692736941558
0.00010818692911119,19.702736941558
0.000115016978794823,19.712736941558
0.000122523780412331,19.722736941558
0.000130795420269138,19.732736941558
0.000139936892051022,19.742736941558
0.000150073693947316,19.752736941558
0.000161356558567322,19.762736941558
0.000173967670648358,19.772736941558
0.000188128885690258,19.782736941558
0.000204112692944956,19.792736941558
0.000222257010504166,19.802736941558
0.000242985427097207,19.812736941558
0.000266835329820484,19.822736941558
0.000294497678155172,19.832736941558
0.000326874355073598,19.842736941558
0.000365162691147802,19.852736941558
0.000410983138033808,19.862736941558
0.000466514009309972,19.8727263936469
0.000529465550268027,19.8819779581474
0.000600562299510229,19.8905198504916
0.000680818710680291,19.8984058556496
0.000771422076241031,19.9056869435039
0.000873727342456123,19.9124104277996
0.000989270228340154,19.9186202375808
0.00111978933333452,19.9243571989838
0.00126725334661337,19.9296592550988
0.00143389316503331,19.9345616234916
0.00162223428359135,19.9390969945477
0.00183514216020896,19.94329574895
0.002075869999215,19.9471861579676
0.00234811710071608,19.9507945184025
0.00265610003977819,19.9541453160067
0.00300464087045909,19.9572614248243
0.00339928363325509,19.9601642818006
0.00384643717171877,19.9628740562777
0.00435357294954873,19.9654098770586
0.00492950067175441,19.9677900888501
0.00558475564924015,19.9700325598467
0.00632097557908072,19.9721260323554
0.00713215829413069,19.9740552932045
0.0080283014332931,19.9758524494172
0.00902426605923372,19.9775493470856
0.0101429702045485,19.9791797842162
0.0114243877320658,19.9807869436352
0.013005079163579,19.9824967794212
0.0152718226785428,19.9845981805606
0.0170108022642323,19.9860315176005
0.0188675533294088,19.9874648546404
0.0205381287782236,19.9887200079899
0.0220215888313009,19.989850414841
0.0233556928698479,19.990924477061
0.0245440511013662,19.9919849544131
0.0255705068795581,19.9930693911029
0.0264001542345753,19.9942254631934
0.0269633932958569,19.9955407952854
0.027057921316014,19.997301680815
0.0266513224484635,19.9986508404075
0.0258963688991739,20
