ecg,time
0.0012403875813558,15.0052479129197
0.000947658824937409,15.0130042271282
0.000716447204680685,15.0216893495118
0.000557794148983281,15.0299198729008
0.000422728543316964,15.039493266095
0.000323668292677088,15.049493266095
0.000255547174724415,15.059493266095
0.000209401931722958,15.069493266095
0.000178679465963561,15.079493266095
0.000158694552472282,15.089493266095
0.000146198441052966,15.099493266095
0.000138984190498315,15.109493266095
0.000135563774397884,15.119493266095
0.00013493499211495,15.129493266095
0.00013642619636468,15.139493266095
0.000139595772993428,15.149493266095
0.000144166377262183,15.159493266095
0.00014998098293626,15.169493266095
0.000156973419330904,15.179493266095
0.000165149295781379,15.189493266095
0.000174574838584139,15.199493266095
0.000185372071296761,15.209493266095
0.000197719446085304,15.219493266095
0.000211857671797839,15.229493266095
0.00022810115996103,15.239493266095
0.000246856303359234,15.249493266095
0.000268648852143333,15.259493266095
0.000294164197254198,15.269493266095
0.000324306819536214,15.279493266095
0.000360289249823179,15.289493266095
0.00040376799288708,15.299493266095
0.000456677589337804,15.3094280407093
0.000517140287653724,15.3186227892886
0.000585968310297154,15.3271080145
0.000664264532338992,15.3349379516644
0.000753313993697561,15.3421639290153
0.000854582255541215,15.3488336205232
0.00096973076851187,15.3549912961377
0.00110064071911148,15.3606780772398
0.00124944194539867,15.3659321616356
0.00141854642172064,15.3707890274588
0.0016106860150164,15.3752816330279
0.00182895840932195,15.379440611558
0.00207688077852498,15.3832944555176
0.00235845527849076,15.3868696919831
0.00267825061410461,15.3901910626626
0.00304150448440345,15.3932817121446
0.00345425733712392,15.3961633835327
0.00392352911384097,15.3988566348516
0.00445756241812518,15.4013810952732
0.00506616926464957,15.4037557834904
0.00576124594607109,15.4059995369843
0.00652988184279788,15.4080637545498
0.00738021244491386,15.409979849623
0.00832588405934736,15.4117822736715
0.00938774222260977,15.4135067432707
0.0106014630837879,15.4151971733283
0.0120594834281679,15.4169460225513
0.0140801694953896,15.4190264419977
0.0157888878554733,15.4205836595293
0.017630500543254,15.4221408770609
0.0192641019921251,15.423475592483
0.0207015124778708,15.424660247807
0.0219903285202808,15.4257765780973
0.0231377144358853,15.4268713895403
0.0241300618468539,15.4279828225865
0.0249362446356786,15.4291561753341
0.0254957466156175,15.4304685577913
0.025652970301717,15.432135709421
0.025193805139273,15.4338645684416
0.024205189450378,15.4355934274622
0.0230731845151204,15.4370381015432
0.0218022420276173,15.4384301639859
0.0203906086539092,15.4398520947087
0.0188469072862599,15.4413455262245
0.0171774482466119,15.4429487572331
0.0154180005913364,15.4447116689862
0.0132425166459194,15.447118030786
0.0109269243617506,15.4500592144778
0.0090869809135317,15.4527935869412
0.00762152439533287,15.4553309523941
0.00637921248089905,15.4578309840915
0.00529200829958514,15.4603826512383
0.00434482459841496,15.4629891471509
0.00357708729415539,15.4654635887781
0.00294556078241763,15.467830358031
0.00241565387486731,15.4701256519407
0.00195961075360526,15.4723998270818
0.00155192093157454,15.4747398880956
0.00115748926681925,15.4773672359728
0.00086884037483775,15.4795855737142
0.000614759791644316,15.4818039114555
0.000423530092338891,15.4836769948718
0.00026874491739686,15.4853475834633
0.000131212564873565,15.4869682251461
1.05866485050362e-06,15.4886389216818
-0.000130199919052803,15.4904801109738
-0.000276805341534824,15.4927539184239
-0.0005205658660886,15.4971631698674
-0.00071254282492307,15.5013630588217
-0.00085222286501963,15.5049670697235
-0.000979211007876469,15.5087887124857
-0.00111547499656221,15.5137425361468
-0.00122786469192496,15.5191671176409
-0.00128705050243477,15.5239544416092
-0.00129453493224038,15.5282874263083
-0.00124566609843067,15.5321878226729
-0.00113498669871505,15.5357068467999
-0.000956753208218063,15.5388919870679
-0.00070424297154839,15.5418012939749
-0.000368845988128025,15.5444933593378
6.2326470748806e-05,15.5470318613545
0.000611635529964976,15.5494937811235
0.00131921302694961,15.551975470852
0.0022760019824436,15.5546520969425
0.00359725507280044,15.5576462246179
0.00527064820452462,15.5607859803645
0.00659698277729552,15.5629384476577
0.00809349609699354,15.565090914951
0.0095918914178406,15.5669915243271
0.0111676234488166,15.5687508661139
0.0127980184804586,15.5703469429995
0.0145905527588221,15.5718797227333
0.0165671789701559,15.5733481142903
0.0187504340867348,15.5747520259137
0.0211878941972038,15.5761053552299
0.0239044994008782,15.577405364522
0.0269452420659723,15.5786583879537
0.0303509269842885,15.5798662657728
0.0341636338444247,15.5810300593569
0.0384413290646769,15.582154081995
0.0432462685587694,15.583241276078
0.0486513304183147,15.5842947992438
0.0547415131375357,15.5853178241081
0.0616204619094298,15.5863141018475
0.0694134073287905,15.5872876091176
0.0782725574544097,15.5882425356561
0.0883868443329296,15.5891835513981
0.0999952454366023,15.5901160236479
0.113406317380568,15.5910463010132
0.129033157381331,15.5919824305566
0.147448274282157,15.5929350055452
0.169302992769984,15.5939113218473
0.1946099619924,15.5948908529048
0.224030986336665,15.5958838579365
0.258455147185993,15.5969050661132
0.29921624966998,15.5979793984458
0.346755954349512,15.5991142814974
0.387051929052537,15.600023195138
0.420567912822024,15.6007735109821
0.449652152949036,15.6014474222842
0.475057794546657,15.6020843196745
0.496826032101093,15.6027092370256
0.514559087931601,15.603344567583
0.527332357425476,15.6040173591609
0.533184174574322,15.6047721842119
0.528815259093116,15.6055738235579
0.512677563407704,15.6064010551988
0.483294906997261,15.607269890279
0.438779228826045,15.608191700135
0.377081031101122,15.6091747916937
0.332944604508272,15.6097747319794
0.284813215330469,15.610374672265
0.241949812011792,15.6108822288463
0.205019940171339,15.611311831723
0.172466062733312,15.6116931195023
0.143252673845501,15.6120442675841
0.11673949837982,15.6123767736074
0.0924759435466279,15.6126992101297
0.070083508047105,15.6130194915869
0.049148259733236,15.6133474016385
0.02896755746093,15.6137013241481
0.00678585896505002,15.6141559405054
-0.00161156794239074,15.6143544892786
-0.00926161466273623,15.6145530380519
-0.0156485527175862,15.6147351035077
-0.0216575555711984,15.6149235001486
-0.0276592047302015,15.6151327601473
-0.0334202075622283,15.615359520816
-0.0387952248211667,15.6156018616311
-0.0437042517406064,15.6158591797678
-0.0481063386072565,15.6161317535551
-0.0519841116002147,15.6164205040326
-0.0553274764632001,15.6167268843123
-0.0581314917115629,15.6170524496785
-0.0603972153943067,15.6173973739201
-0.0621620548163029,15.6177670961415
-0.0634407082362192,15.6181653753509
-0.0642468096533057,15.6185968270833
-0.064591602992064,15.6190672210237
-0.0644822139597687,15.619583885751
-0.0639191594449823,15.6201565421105
-0.0628906235163932,15.6207993745376
-0.061368554709387,15.6215311817096
-0.0592960356584334,15.622380817599
-0.056552884290517,15.6233993714471
-0.0528158804868504,15.624709487041
-0.0487474649836198,15.6261024642519
-0.0448185570178877,15.6274507524018
-0.0410750094633992,15.6287585786969
-0.0375391984274928,15.630028029011
-0.034222501312441,15.6312598346335
-0.0311297034852167,15.6324540431435
-0.0282610265935579,15.6336103763691
-0.0256132589158253,15.6347284186751
-0.023180520041739,15.6358077134098
-0.0209548636907357,15.6368478073546
-0.0189267960939298,15.6378482640032
-0.0170857371684881,15.6388086569224
-0.015420431649077,15.6397285493858
-0.0138499470405208,15.640649379691
-0.0123392715926908,15.6415938384909
-0.0108928075727596,15.6425635787972
-0.00951447317716423,15.6435607444464
-0.00820798473776517,15.6445878536562
-0.00697680414790762,15.6456478935803
-0.00582408642571405,15.6467444432804
-0.00475262490079783,15.6478818397004
-0.0037647938624389,15.6490654069978
-0.00286248802992975,15.6503017822976
-0.00204705741125141,15.6515993938715
-0.00131923469987218,15.6529691915136
-0.000679049657686681,15.6544258182792
-0.000125719266767852,15.6559896114277
0.000326463513526121,15.657623616632
0.000681060186353029,15.6593068402159
0.000954099637963021,15.6610576372619
0.00116007243094273,15.6628980524542
0.00131264257816032,15.6648577526519
0.00142509719688731,15.6669792267714
0.00151104479503864,15.6693288211587
0.00158583581088025,15.6720246134828
0.00167090955613917,15.6753329966332
0.00178010544998829,15.6790806670176
0.00192318115836394,15.6831403591226
0.00209352759700059,15.6872803390024
0.00227046040354296,15.6911827323602
0.0024522713172894,15.6949844068645
0.00263833359990137,15.6987660711794
0.00282893542585873,15.7025804727196
0.00302520245177791,15.7064676693534
0.00322894012528008,15.710461616137
0.00344248760355983,15.7145935586858
0.00366861464912633,15.7188941800822
0.00391047597996624,15.7233951002765
0.00417166797763165,15.7281302702425
0.00445644492519206,15.7331373990759
0.0047701602684955,15.7384591795708
0.00510808272980357,15.7439523982035
0.0054535199420379,15.7492961271938
0.00581395445047233,15.75457112219
0.00619022375168178,15.7597441359009
0.00658676864021079,15.7648320155576
0.0070076644572292,15.7698410166682
0.00745756120918344,15.7747796190849
0.00794133009129844,15.7796529837564
0.00846422685209617,15.7844641068402
0.00903195984924337,15.7892137479699
0.0096508127358553,15.79390096106
0.0103277661305607,15.7985236312126
0.0110823785695799,15.8031475708767
0.0119326626820345,15.8077959838284
0.0128977393638438,15.8124753222388
0.0140048737206251,15.8172095101773
0.0152961908696584,15.8220535883766
0.0168512034199396,15.8271461658016
0.0188893675451305,15.8329414513307
0.0207588690540801,15.8376713769755
0.022764429521004,15.8424013026203
0.0243961493086617,15.8461898233247
0.0257425719068248,15.8494508313588
0.0268736025305258,15.8524829358305
0.0277916901879724,15.8554305237033
0.0284381113670066,15.8582260001167
0.0288168581026353,15.8609867284277
0.0289070244800699,15.8638520501339
0.0286295510244018,15.8670752134954
0.0276667140098415,15.8714087010277
0.0267856587809187,15.8740804156825
0.0257329697942104,15.8767521303372
0.0246641681315973,15.8791767769369
0.023593618428036,15.8814465435477
0.0225213559848997,15.8836304032104
0.0214500260371508,15.8857663213
0.0203832567150247,15.8878778810985
0.0193247475489103,15.889981500226
0.0182779971190088,15.8920895743108
0.0172462297014722,15.8942120617978
0.016232385315387,15.8963573782767
0.0152391261701471,15.8985329549323
0.014268849664587,15.9007456096107
0.0133237024585409,15.9030018109032
0.012405588797237,15.9053078920893
0.0115161854595942,15.9076702113512
0.0106569480458107,15.9100953121622
0.0098291232507296,15.9125900601845
0.00903375739473204,15.9151617911119
0.00824882742439632,15.9179015266622
0.00747784854002062,15.9208290557115
0.00672455235406429,15.9239673003325
0.00599291378747236,15.9273427577762
0.00528712946800074,15.9309861590348
0.00461157052540576,15.9349332998363
0.00397070196531856,15.9392261289671
0.00336894408842462,15.9439143879462
0.00281042418363689,15.9490587335388
0.0022986862632085,15.9547361701431
0.00183641513303753,15.9610494457218
0.00143648313602236,15.9679245658797
0.00117623006867704,15.9734981964836
0.000970646273649417,15.9790718270875
0.00076001930400833,15.986638910248
0.000584006986059688,15.9951886082361
0.000443129904197046,16.0046038960042
0.000337689510769634,16.0146038960042
0.000265104562861491,16.0246038960042
0.000215837315006246,16.0346038960042
0.000182936128642158,16.0446038960042
0.000161429164028637,16.0546038960042
0.000147862820954355,16.0646038960042
0.000139886712096211,16.0746038960042
0.000135913877768936,16.0846038960042
0.000134874052775906,16.0946038960042
0.00013604834910826,16.1046038960042
0.000138961848964244,16.1146038960042
0.00014331326199658,16.1246038960042
0.000148927895467975,16.1346038960042
0.000155726045435764,16.1446038960042
0.000163702358763316,16.1546038960042
0.000172913476461224,16.1646038960042
0.000183472242442055,16.1746038960042
0.000195547467692701,16.1846038960042
0.000209368886198162,16.1946038960042
0.000225237606971954,16.2046038960042
0.000243543133093245,16.2146038960042
0.000264789012508185,16.2246038960042
0.000289630625190864,16.2346038960042
0.000318930870230756,16.2446038960042
0.000353843258704655,16.2546038960042
0.000395938384345334,16.2646038960042
0.000447401357190246,16.2746038960042
0.00050655910122259,16.2839195509907
0.000573928536357598,16.2925186811054
0.000650570878169143,16.3004537170262
0.000737741347217973,16.3077765329276
0.000836874758137405,16.3145353921507
0.000949598524012507,16.3207751114353
0.00107775551535729,16.3265373186332
0.001223432104085,16.3318606828842
0.00138899109319052,16.3367811199598
0.00157710828597564,16.3413319930051
0.00179081739222408,16.345544308194
0.0020335617116263,16.3494469013118
0.00230925799490661,16.3530666135248
0.00262237455147593,16.3564284702163
0.00297802986448196,16.3595558679251
0.00338212059425192,16.362470768368
0.00384148955560814,16.3651939100314
0.00436415612023008,16.3677450565144
0.00495964230418351,16.3701433023015
0.00563945305398287,16.3724074786091
0.00639527507919301,16.3744997895345
0.0072310585553028,16.3764383725977
0.00815950462927746,16.3782575231198
0.00919990232763739,16.3799924109261
0.0103845035508266,16.3816847683682
0.0117847105434107,16.3834072216963
0.0136643452179144,16.3853951922753
0.015384143913833,16.3869988723351
0.0172557756692519,16.3886025523949
0.0189442230154802,16.3899869200063
0.0204167765154845,16.3911943764953
0.0217348034985624,16.3923203751405
0.0229119969504431,16.3934164933968
0.02393831454454,16.3945212530807
0.024786635232528,16.3956771234509
0.0254047079983823,16.3969509956615
0.0256708337786536,16.398506761564
0.0253207691615513,16.4003208609639
0.0243628117729964,16.4021349603638
0.023247505693913,16.4036045835534
0.021997144633769,16.4049975884441
0.0206054679539127,16.4064122881326
0.0190804689033231,16.4078930250621
0.0174291679617961,16.4094775846023
0.0156797242842885,16.4112131864172
0.0143384007889935,16.4126425835461
0.0118595812733142,16.4155908557263
0.00981581337707793,16.4184317348335
0.00820663256939927,16.421044506428
0.00688844141316148,16.423532718485
0.00573850730910563,16.4260584143983
0.00472946136900972,16.4286518146502
0.00389026790935853,16.4311800795459
0.00320461805586886,16.4335892311768
0.00263445351424331,16.4359102432987
0.00214954805344008,16.4381858774295
0.001724132764937,16.4404826468183
0.00133006573988978,16.4429387424568
0.000897964263328187,16.4461193016008
0.000678496699195007,16.4479916104787
0.000481035360889285,16.4498639193566
0.00031775925461569,16.4515728829076
0.00017582134494316,16.4531979773386
4.40912493510035e-05,16.4548412014916
-8.57736513705639e-05,16.4566084547997
-0.000224763417699065,16.4586886094555
-0.000409448441388097,16.4618149504249
-0.000589196936809655,16.4653527543394
-0.000721565544781996,16.4683556159821
-0.00083872222408383,16.4713704597442
-0.000957342002080297,16.4748620114117
-0.00108611816353078,16.4793525433758
-0.00121097040377102,16.4849740309917
-0.00127949945256044,16.4898440319868
-0.00129713835577587,16.4942660630461
-0.00125931780437345,16.4982451354536
-0.00116078396573425,16.5018323354158
-0.000995814190100941,16.5050765372002
-0.00075788134386334,16.5080345372863
-0.000439043564623158,16.510762653385
-2.77460541480139e-05,16.5133227588647
0.000495215484195575,16.5157864211537
0.00116983417103982,16.5182619902643
0.00206566255517156,16.5208761268395
0.00332650919392582,16.5238445812887
0.004932990227959,16.526960880087
0.0063043970819953,16.5292503953139
0.00786092455838029,16.5315399105408
0.00939275922638273,16.5335201670371
0.010919014110855,16.5352568551753
0.0125563431796222,16.5368926594868
0.0143161647326529,16.5384282799963
0.0162604565816689,16.5399035090985
0.0184100207083107,16.5413159369106
0.0208081995062391,16.5426768411183
0.0234817932771945,16.5439846679558
0.0264738713831491,16.5452450537255
0.0298229578358675,16.5464592806495
0.0335732776795373,16.547629474003
0.0377801675822941,16.5487593964013
0.0425043586024541,16.5498519526388
0.0478157633098118,16.5509100543636
0.0537988142915895,16.5519372028096
0.0605550492295282,16.5529371888686
0.0682054914356213,16.553913818094
0.0768977730025535,16.5548712216502
0.0868147406427348,16.5558139896602
0.0981859354164001,16.5567472885517
0.111309467081373,16.5576774198985
0.126579906678388,16.5586120975397
0.144541149677845,16.559561439546
0.165942658816897,16.5605379843293
0.190713776605908,16.5615164878874
0.219491452087769,16.5625067540308
0.253124079145669,16.563522674153
0.292854913650675,16.5645869880712
0.339664023082526,16.5657183611957
0.381252690520467,16.5666614856832
0.415620927766548,16.5674295537416
0.445326966740896,16.568112228323
0.471297955350342,16.5687531088346
0.493655797088165,16.5693784325819
0.512070579775309,16.5700105289056
0.525719093003761,16.5706751415259
0.532872629947914,16.5714125266532
0.530288892183355,16.5722117497813
0.516126158019906,16.57303367679
0.488987416680643,16.5738949396273
0.447036616356834,16.574807678376
0.388235192324437,16.575780223531
0.343061045668735,16.5764103302746
0.293241628176647,16.5770404370181
0.248985715606234,16.5775678471198
0.211118439461109,16.5780088367064
0.17788847930661,16.5783969963204
0.14814528607638,16.5787524508694
0.121196310546217,16.5790875428198
0.0965677669527604,16.5794111727922
0.0738754600828239,16.5797312209694
0.0527220785465278,16.5800568759932
0.0324939566626643,16.5804039790114
0.0112397800160284,16.5808252957945
0.000788273587101012,16.5810637632712
-0.00656926852741831,16.5812488560969
-0.0132954929934856,16.5814339489226
-0.0192062706862707,16.5816122644353
-0.0252408234853521,16.5818134191953
-0.0311219216481696,16.5820333976868
-0.0366662651121326,16.5822695467736
-0.0417711983950556,16.5825207920915
-0.0463822812082198,16.5827870926399
-0.0504739450498527,16.5830691276542
-0.0540359281201801,16.5833681417753
-0.0572449541798989,16.5837080991609
-0.0596860952355023,16.5840455974381
-0.0616191978628405,16.5844065182487
-0.0630611992993038,16.5847946388551
-0.0640262106272726,16.5852142524608
-0.064526465743331,16.5856706999826
-0.0645707040717466,16.5861707243083
-0.0641621560953478,16.5867230114561
-0.0632936847941473,16.587340270332
-0.0619435657893264,16.5880393039814
-0.0600668939473861,16.588844770873
-0.0575717046636281,16.5897978265622
-0.0542378224810178,16.5909848029423
-0.0501359410015814,16.5923962999153
-0.0461517091156751,16.593759428693
-0.0423410359522245,16.5950808438289
-0.0387320009872742,16.5963633661935
-0.0353390604816718,16.5976080962042
-0.0321689646521548,16.5988152638268
-0.0292233485033677,16.5999846750355
-0.0265000830453133,16.6011159468953
-0.0239941323436492,16.6022086296776
-0.0216981991554132,16.6032622661344
-0.0196032675925466,16.6042764138655
-0.0176990825463535,16.6052506446314
-0.0159745777585431,16.6061845282192
-0.0143846913189171,16.6070974657315
-0.0128528249958136,16.6080336534295
-0.0113837833301206,16.6089944564081
-0.00998154093512357,16.6099819081243
-0.00864989011100702,16.6109983879725
-0.00739238621778515,16.6120467093736
-0.00621229608217224,16.6131302312009
-0.00511254399896948,16.6142530070948
-0.00409565529829268,16.6154199900224
-0.00316369702452626,16.6166373199397
-0.00231821461585947,16.6179127410161
-0.00156016232219472,16.6192562296715
-0.000889822959319859,16.6206809839744
-0.000306708256843451,16.6222050741951
0.000183146271179453,16.6238263228349
0.00056927362130035,16.6254904945177
0.000868619738938058,16.6272159077738
0.00109603700985248,16.6290226817439
0.00126543061321811,16.6309374515789
0.00139015545129856,16.6329974670511
0.00148360345643963,16.6352589959285
0.00156027519166126,16.6378170795049
0.00163857132716598,16.6408654585352
0.00174143054021678,16.6445989499421
0.00187076454123792,16.6485054474384
0.00203874160878553,16.6527721160511
0.00221388606847873,16.656732519128
0.00239425876030747,16.6605552628436
0.00257898868568683,16.6643366540271
0.002768072339834,16.6681359449589
0.00296238515289211,16.6719962506641
0.00316353367110341,16.6759529925205
0.00337370140509619,16.6800380030456
0.00359552984106829,16.6842819561217
0.00383205200472314,16.688716030167
0.00408671017101057,16.6933732831986
0.00436351546907545,16.6982900937101
0.00466740730511303,16.7035074314169
0.00500414926406059,16.7090596944646
0.00534486159029778,16.7144136681138
0.00570121118043752,16.7197232338997
0.00607195959969016,16.724923361226
0.00646187860585796,16.7300376439871
0.00687475082512369,16.7350697773421
0.00731518826431806,16.7400295231291
0.00778794883046173,16.7449225911096
0.00829817279386757,16.7497527746679
0.00885141292763696,16.7545214394307
0.00945376361570495,16.7592281242486
0.0101119750755883,16.7638709985833
0.0108397031857801,16.7684844116145
0.0116588663418591,16.7731263069959
0.0125859821449138,16.7777941916996
0.0136456794593795,16.7825076134102
0.0148741217268982,16.787308565148
0.0163348464458414,16.7922997794268
0.0181784151755465,16.7977799723093
0.020641312554622,16.804154302538
0.0222315221409729,16.8079326117357
0.023862053307813,16.8117109209334
0.0252875561533407,16.815090577304
0.0264922770682484,16.8181814489964
0.0274906573707924,16.8211536417003
0.0282339470061335,16.8239895182556
0.0287106256436131,16.826748503803
0.028910388584778,16.829556279685
0.0287830286070215,16.8326024627059
0.0281250925476467,16.8364506271967
0.0272957158563854,16.8393726852223
0.0262340338437336,16.8422947432479
0.025159929779726,16.8448448477598
0.0240897351476654,16.8471764440062
0.0230180177003342,16.8493941908516
0.0219458225030126,16.8515488282669
0.0208764704012221,16.8536693528232
0.0198136826226443,16.855774961102
0.0187610662440504,16.857879653591
0.0177219757731974,16.8599943778322
0.0166994827653168,16.8621281796032
0.0156963761045552,16.8642888927649
0.0147151746377033,16.8664835804101
0.0137581393348867,16.8687188452061
0.0128272844356626,16.8710010625301
0.011924392737437,16.8733365546965
0.0110510195897951,16.8757317648605
0.0102085065928579,16.8781933937705
0.009397992791238,16.8807285377429
0.00860799721856819,16.883388303672
0.00783017024619444,16.8862268602151
0.00706828136353522,16.8892651782354
0.00632619376716715,16.8925280411132
0.00560800663264696,16.8960441385568
0.00491801605066742,16.8998468326969
0.00426065773392422,16.9039750789381
0.00364039611014207,16.9084747635223
0.0030615264802073,16.9134010317689
0.00252790526910223,16.9188224194386
0.00204262952875166,16.9248284625786
0.00161084836387402,16.9314897005663
0.00124672728522066,16.9386434537069
0.000952585245509415,16.9463873563461
0.000718887766982258,16.9551165086908
0.000560485050847385,16.9632959130388
0.000424576527934031,16.9728741729379
0.000324947616137702,16.9828741729379
0.000256419491954358,16.9928741729379
0.000209986100720631,17.0028741729379
0.000179062302426552,17.0128741729379
0.000158937341233917,17.0228741729379
0.000146343158457086,17.0328741729379
0.000139059154647907,17.0428741729379
0.000135588032052797,17.0528741729379
0.000134921343658908,17.0628741729379
0.00013638315855771,17.0728741729379
0.000139528843276216,17.0828741729379
0.000144078866930297,17.0928741729379
0.000149874576610811,17.1028741729379
0.000156848546090814,17.1128741729379
0.000165005360328024,17.1228741729379
0.000174410342552698,17.1328741729379
0.000185184643416198,17.142874172938
0.000197505790016093,17.152874172938
0.000211613430369807,17.162874172938
0.000227820683203251,17.172874172938
0.000246532293575817,17.182874172938
0.000268271839511233,17.192874172938
0.000293721769147119,17.202874172938
0.000323782477506454,17.212874172938
0.000359660684300656,17.222874172938
0.000403004417234524,17.232874172938
0.000455805527105763,17.2428208120752
0.00051614826305114,17.2520269750646
0.000584840640579352,17.2605227438415
0.000662982800831071,17.268362399517
0.000751857143996506,17.2755973295578
0.000852926417328847,17.2822752630629
0.000967848913924543,17.2884405208421
0.00109850225043078,17.2941342713626
0.00124701220883565,17.299394756251
0.00141578618033955,17.3042574942945
0.00160755079773469,17.3087554813939
0.00182539777957623,17.3129193853778
0.00207283740442569,17.3167777305715
0.00235386385068823,17.3203570731737
0.00267303644300632,17.3236821811708
0.00303558172470129,17.326776222472
0.00344752667956428,17.3296609603862
0.00391587463758092,17.3323569695652
0.00444884722480105,17.3348838914856
0.00505622914666335,17.3372607516168
0.0057498797333195,17.3395063864391
0.0065173186140427,17.3415731791059
0.00736628756202033,17.3434913318386
0.00831034248473632,17.3452952796745
0.00937017763675346,17.3470206822098
0.0105811314304919,17.3487112352978
0.0120335693352082,17.3504574750793
0.0140398370850126,17.3525282608692
0.0157496419344303,17.354089815593
0.0175941454536528,17.3556513703168
0.0192327650569928,17.3569905590029
0.0206735127374999,17.358177301223
0.0219651803280605,17.3592945062646
0.0231155161815717,17.36038938484
0.0241112560811569,17.3615000870913
0.024921686256187,17.3626715941371
0.025487186145958,17.3639798789475
0.0256561702727052,17.3656344723583
0.0252082047445625,17.367370677495
0.0242237297792404,17.3691068826318
0.0230940977185343,17.370553824545
0.0218257037990709,17.3719458664327
0.0204164950809044,17.3733668750275
0.0188750679307867,17.3748587290803
0.0172078285846027,17.3764596457961
0.0154496404700532,17.3782191611687
0.0135079891632236,17.3803487369852
0.0111572585779528,17.3832852133368
0.00926888736606065,17.38604387077
0.00776842198254402,17.3885992002876
0.00650723033424215,17.3910956322164
0.00540431487207228,17.3936402097776
0.00443583864693922,17.3962600142403
0.00365132144207843,17.3987474146991
0.00300718416073808,17.4011238909679
0.00246792176120752,17.4034246335252
0.00200523611242251,17.4056979144589
0.00159366984345179,17.4080248687696
0.00120049394020254,17.4106004778506
0.000895871274820619,17.4129056894434
0.000629151326733196,17.4152109010361
0.000433858371628967,17.4171110922931
0.00027755723510204,17.4187886974932
0.000139300279537173,17.4204093852424
8.90780876388498e-06,17.4220744148762
-0.000122040369066851,17.4239010414199
-0.000267055605410604,17.4261352580045
-0.000503105627240594,17.4303575501153
-0.000688845644377208,17.4343440756269
-0.000823313289420894,17.4377185225338
-0.00094598698204219,17.4412720546618
-0.00107585244368429,17.4457268214813
-0.00120461719571578,17.4513980801108
-0.0012764196948786,17.4562981740769
-0.00129763108064813,17.4607497194141
-0.00126374509371095,17.4647570549267
-0.00116951177696235,17.4683700446146
-0.00100920425274477,17.4716367561297
-0.000776579481473917,17.4746109179381
-0.00046362256550162,17.4773524433868
-5.87944917619793e-05,17.4799237789272
0.000456986495668193,17.4823966331174
0.00111742877624781,17.4848592155114
0.00199567020868915,17.4874609622301
0.00323645267691165,17.4904213990768
0.00481977351880236,17.49352849602
0.00621113139516701,17.4958733518113
0.00779467552661889,17.4982182076027
0.00930052561119502,17.5001763232949
0.0108611404005057,17.5019628064197
0.0124697507373332,17.503578809272
0.0142323589402365,17.5051268614147
0.0161648559094562,17.5066027783679
0.018304742752979,17.5080185571325
0.0206906995564905,17.5093820580069
0.0233502805303418,17.5106923036199
0.0263265296624014,17.5119550170069
0.0296558683503774,17.5131707941977
0.0333857359112564,17.5143430335445
0.0375695521859849,17.515474872683
0.0422675529534032,17.5165691872478
0.0475480133021915,17.5176286699466
0.0534966891661884,17.5186572247035
0.0602133835297172,17.5196584441325
0.0678179818161574,17.5206361157414
0.0764566724764409,17.521594353343
0.0863102478064103,17.5225377095623
0.0976057288517584,17.5234713269534
0.110637475616078,17.524401452333
0.125794451580229,17.5253357107614
0.143611716170499,17.5262840751212
0.164865870403964,17.5272606187359
0.189465766212806,17.5282388403037
0.218038278964306,17.5292282878193
0.251419385359957,17.5302426020216
0.290825608171751,17.5313038867158
0.337403542440057,17.5324343769914
0.379427913236143,17.5333892401079
0.414072904551538,17.5341632598471
0.443973775581392,17.534848837779
0.470118625292877,17.5354910758242
0.492655682156838,17.536116640978
0.51127562348509,17.5367478760982
0.525184504156412,17.5374101742418
0.532717973068187,17.5381426233017
0.530667641947855,17.5389412192966
0.517093058984956,17.5397616348535
0.490621406576471,17.5406206774488
0.449433698139669,17.5415307188501
0.391495175441452,17.5425001552486
0.346018037277215,17.5431396027048
0.29568931809993,17.5437790501609
0.25101487586045,17.5443125375008
0.212870013579635,17.5447569648556
0.179442562996774,17.5451471796521
0.149545828476478,17.5455039207473
0.122471038921745,17.5458397941677
0.0977371784682469,17.5461638059827
0.0749579162108193,17.5464838387162
0.0537396610402458,17.5468089385993
0.0334896005900715,17.5471543442566
0.0124171568092184,17.5475684382675
0.00115527137032544,17.5478234371462
-0.00625042156730916,17.5480089856881
-0.0130204153286756,17.54819453423
-0.018914183078317,17.5483715548789
-0.0249493964812449,17.5485716878343
-0.0308429846727115,17.5487908294699
-0.0364065374502068,17.549026228914
-0.0415343495040591,17.5492767495147
-0.0461701718072998,17.5495423089569
-0.0502873417560908,17.5498235560464
-0.0538754967787533,17.5501217099504
-0.0571387816107391,17.5504638113949
-0.0596003227175035,17.5508004849462
-0.0615529118709474,17.5511604188686
-0.0630138298642183,17.5515474022903
-0.0639972323742455,17.5519656931729
-0.0645154551676329,17.5524205856959
-0.064577408484525,17.5529187593689
-0.0641865841073018,17.5534688106326
-0.0633363724479074,17.5540832511888
-0.062005707293927,17.5547786980798
-0.0601508912441701,17.5555793889852
-0.0576826428900854,17.5565255358719
-0.0543894642585297,17.5577004122297
-0.050284415754968,17.5591140768552
-0.0462946397990956,17.5604788157604
-0.0424770042745261,17.5618016882888
-0.0388602779995301,17.5630856034676
-0.0354592775419315,17.5643317058367
-0.032280976898025,17.5655402472986
-0.0293271693505561,17.5667110441007
-0.0265958463331449,17.567843717459
-0.0240820658275351,17.5689378186905
-0.0217786031660659,17.5699928902114
-0.0196764964705076,17.5710084889489
-0.0177655280711366,17.5719841863315
-0.0160346543682368,17.5729195526271
-0.0144427103489001,17.5738316513547
-0.0129085921269104,17.5747669613839
-0.0114371483252221,17.5757268170406
-0.0100323592805641,17.5767132403798
-0.00869802511709432,17.5777285964677
-0.00743771088443034,17.5787756808333
-0.00625469505660111,17.579857829733
-0.0051519156204429,17.5809790677996
-0.00413191373805521,17.5821443101385
-0.00319677454770931,17.5833596462285
-0.00234806402279723,17.5846327511782
-0.00158675968244745,17.585973503845
-0.000913170860184304,17.5873949587873
-0.000326840014794895,17.5889149638435
0.000167151298582171,17.5905349566102
0.000556744022788108,17.5921972132218
0.000858991178937282,17.5939200681155
0.00108878573110601,17.5957234511099
0.00126006141140358,17.5976337044407
0.00138618444199322,17.599687579963
0.00148053118351261,17.6019404113341
0.00155753067536447,17.6044851933468
0.00163533858918491,17.6075097493489
0.00173770439294859,17.6112439991993
0.00186575671426203,17.6151366548342
0.00203352140092379,17.6194177328102
0.00220849086946263,17.6233846232534
0.00238872208181302,17.6272098509811
0.00257332480044356,17.6309915079678
0.00276226752222624,17.6347895640636
0.00295640100510528,17.6386474669429
0.00315731201452658,17.6426007982025
0.00336716863257973,17.646681459268
0.00358859973320071,17.6509201308826
0.00382462681204404,17.65534795601
0.00407867825246308,17.6599979145106
0.00435474380229193,17.6649062634414
0.00465772677821155,17.6701138149263
0.00499409201107135,17.6756672193758
0.00533444298485962,17.6810235260668
0.00569038131627504,17.6863359734841
0.00606062365602092,17.6915388921318
0.00644992014871725,17.6966557373035
0.00686204019036997,17.7016901616061
0.00730158684547455,17.7066519793896
0.00777330888643167,17.7115469711114
0.0082823354525049,17.7163790036942
0.00883420498066311,17.721149504895
0.00943499412162157,17.7258580627461
0.0100914315618927,17.7305028781258
0.0108166254234653,17.7351152751279
0.0116328629763154,17.7397565829555
0.0125564214554129,17.7444234489193
0.013611703190445,17.7491350750775
0.0148343702249908,17.7539323680143
0.0162866879516092,17.7589152102168
0.0181143575849105,17.764371355119
0.0205768061975077,17.7707665960362
0.0221720601790879,17.7745636272176
0.0238104323171221,17.7783606583991
0.0252441361705899,17.7817542477982
0.0264557620664502,17.7848516538582
0.027461057889441,17.7878255669638
0.0282133493949869,17.7906659385311
0.0286989945058944,17.7934256000061
0.0289085363015898,17.7962293133736
0.0287938144276415,17.7992625356117
0.0281632135695261,17.803058392401
0.0273388678348265,17.8060094162712
0.0262751770154092,17.8089604401415
0.0252001347444313,17.8115235836555
0.0241298913214848,17.8138611085782
0.0230582333211337,17.8160820170322
0.0219860007373899,17.8182384158361
0.0209164742715397,17.8203598327096
0.0198533732919835,17.8224657252427
0.0188003127024643,17.8245702413137
0.0177606573831501,17.8266844181593
0.0167374895697277,17.8288173584752
0.0157336085229718,17.8309769325576
0.014751543056554,17.8331702260428
0.0137935634898312,17.8354038545435
0.01286169311888,17.8376841983917
0.0119577233569297,17.8400175786034
0.0110832176632343,17.8424104317306
0.0102395256946631,17.8448694457002
0.00942779375500873,17.8474016998402
0.00863741559838977,17.8500551232634
0.00785906320919711,17.8528866278919
0.00709650896619454,17.8559170323424
0.00635360681220979,17.8591709860136
0.0056344475296069,17.8626770198629
0.00494332076626387,17.8664683051709
0.00428465859694425,17.8705835669938
0.00366292708221588,17.8750684000673
0.00308243263669771,17.8799775410229
0.00254705384812771,17.8853789135479
0.00205992088849442,17.8913610806759
0.0016255010869626,17.898005883165
0.00125901126705245,17.9051400142757
0.000962141145719376,17.9128600941713
0.000723533730734628,17.9216771310357
0.000565658156797396,17.9297579049399
0.000428117192902873,17.9393467238672
0.000327402941806693,17.9493467238672
0.000258097222995487,17.9593467238672
0.000211113089434841,17.9693467238673
0.000179804570987221,17.9793467238673
0.000159412171468659,17.9893467238673
0.000146630865713204,17.9993467238673
0.000139213893525751,18.0093467238673
0.000135646215151806,18.0193467238673
0.000134907445821734,18.0293467238673
0.000136313476453142,18.0393467238673
0.000139413913045076,18.0493467238673
0.000143925056657827,18.0593467238673
0.000149685156789909,18.0693467238673
0.000156624401501347,18.0793467238673
0.000164745435572947,18.0893467238673
0.000174111878804311,18.0993467238673
0.000184843242446942,18.1093467238673
0.000197115323020653,18.1193467238673
0.000211165790087921,18.1293467238673
0.000227305356646903,18.1393467238673
0.000245935706358896,18.1493467238673
0.000267576386153973,18.1593467238673
0.000292904387829063,18.1693467238673
0.000322812536914638,18.1793467238673
0.000358496795797748,18.1893467238673
0.000401589512592675,18.1993467238673
0.000454187953553654,18.2093154177926
0.000514306529018549,18.2185428036652
0.000582745461377878,18.2270581803317
0.000660599790896341,18.2349159130882
0.000749146990262679,18.2421674987373
0.000849844555269393,18.2488607682182
0.000964344885125656,18.2550401363472
0.00109451893217336,18.2607468586689
0.00124248490637373,18.2660192578749
0.00141064164046426,18.270892928001
0.00160170599705516,18.275400934541
0.00181875855514602,18.2795740094327
0.00206529671914783,18.2834407360111
0.00234529977489621,18.2870277244304
0.00266330953479177,18.2903597913657
0.00302453172224161,18.293460147925
0.00343496819462846,18.2963505948269
0.00390159129095184,18.2990517374806
0.00443258351825316,18.3015832400716
0.00503767867791285,18.3039641404809
0.00572866724941407,18.3062132731165
0.00649387142286676,18.3082848724539
0.0073402992065085,18.3102068631906
0.00828133845026075,18.3120136497426
0.00933740335208834,18.3137407871714
0.010543209774986,18.3154315682169
0.0119853110471417,18.3171729731474
0.0139653395715628,18.3192262774287
0.0156539659763632,18.320775558065
0.0174777744262044,18.3223248387012
0.019130170830279,18.3236765677749
0.0205819134895767,18.3248702274492
0.0218830128405353,18.3259903975533
0.0230430474973414,18.3270855713663
0.0240498876081051,18.3281939683358
0.0248741441747403,18.3293595889977
0.0254590041967734,18.3306548847563
0.0256649026062882,18.3322708865692
0.0252528482598705,18.3340330318438
0.0242799988065781,18.3357951771185
0.02315692814002,18.3372498721487
0.0218960095029023,18.3386420356842
0.0204939667180506,18.3400603714325
0.0189592499875671,18.3415476028929
0.0172985351071187,18.3431417355318
0.0155439681833804,18.3448913198612
0.0139599279527794,18.3466026387738
0.0115437185189752,18.3495396746515
0.00957145492991931,18.3523418274611
0.00801152546436326,18.3549282440076
0.00671884294510934,18.3574196509626
0.00558987070559346,18.3599533427553
0.00459888376950341,18.3625580669063
0.00378414708649951,18.3650681858532
0.00311707447214299,18.3674626821708
0.00256076199456124,18.3697742967289
0.00208587426266556,18.3720480039621
0.0016668706043225,18.3743560272736
0.0012740290373981,18.3768574883209
0.000933499877215125,18.3793731733033
0.000703343528456261,18.3813083809795
0.000497057434895986,18.3832435886557
0.000330869797993263,18.3849687538776
0.000187597963590349,18.3865968201553
5.53261681840712e-05,18.3882346371017
-7.43489077047325e-05,18.3899857063861
-0.000211853773135248,18.392025495654
-0.000388028822712822,18.3949675957757
-0.00057619316841403,18.3986166047688
-0.000712866403564692,18.401685152062
-0.000830842805189521,18.4046944352602
-0.000949210411839243,18.408144684208
-0.00107709397514343,18.4125452110123
-0.00120561007189253,18.4182202038512
-0.00127694491216813,18.4231162857774
-0.001297616482009,18.4275640471824
-0.00126312629218651,18.431566405288
-0.00116822201724662,18.4351756603818
-0.00100724745767689,18.4384379128636
-0.000773770243954775,18.4414101897275
-0.00045981622695332,18.4441503630139
-5.39280109883272e-05,18.4467201679177
0.000463116900542402,18.4491920677078
0.00112646267277899,18.4516588127492
0.00200651775624161,18.4542594064979
0.00325030549682236,18.4572208044234
0.00483731674335999,18.4603295157969
0.00622270898088158,18.4626611799857
0.00779818283947113,18.4649928441745
0.00933731489485304,18.4669923595694
0.0108644559994999,18.4687379206979
0.0125018261846812,18.4703810113862
0.0142578665001353,18.4719200640498
0.0161963305077095,18.4733974703614
0.0183392983131786,18.4748120041628
0.0207295352837992,18.4761746752976
0.0233942658362047,18.4774842320588
0.0263762096940498,18.4787462082404
0.0297124964985306,18.4799614613385
0.0334496853167733,18.4811330386518
0.0376416867442863,18.4822642393692
0.0423489089506696,18.4833579564862
0.0476399078366564,18.484416908826
0.0536005614960506,18.4854449793604
0.0603310196272956,18.4864457750668
0.0679515523763906,18.4874230886023
0.076608847062971,18.4883810400643
0.0864844051509127,18.4893241949341
0.0978060666922008,18.490257699917
0.110869531495667,18.4911878254255
0.126065685511125,18.4921222264755
0.14393262024975,18.4930709256082
0.165239434343168,18.4940475438539
0.189898695833352,18.4950258604115
0.218542299944465,18.4960155879793
0.252010500352542,18.497030453416
0.29152896360408,18.4980927775078
0.338187029897703,18.4992235629071
0.38005921465895,18.5001743129108
0.414608108454023,18.5009462547034
0.444441717310112,18.5016308207026
0.470526720706279,18.5022725833687
0.493002198195767,18.5028980584668
0.511551749336767,18.503529582476
0.525371445534667,18.5041926667457
0.532775122243668,18.5049267939811
0.53054190744781,18.5057255993325
0.516765762806964,18.5065465287549
0.490065547189342,18.5074063300934
0.448616338745114,18.5083172956806
0.390382020559798,18.5092877964824
0.345008244843042,18.5099240254084
0.294854246124023,18.5105602543345
0.250323314346304,18.511091651257
0.212273422797923,18.5115348984828
0.17891339808927,18.51192440874
0.149069020375525,18.512280708852
0.122037106971999,18.5126163139581
0.0973391329812057,18.5129401936384
0.0745895182459976,18.5132602290431
0.0533934510550283,18.513585513638
0.0331512148799881,18.5139314858481
0.0120200354749912,18.5143479519079
0.00105138117850552,18.5145969235636
-0.00634077849782768,18.514782345641
-0.0130984614618821,18.5149677677185
-0.0189972043491649,18.5151451589323
-0.0250323122519283,18.5153455836858
-0.0309223962105075,18.5155649638527
-0.036480513344662,18.515800576616
-0.0416018340268107,18.5160513031873
-0.0462306283967636,18.5163170730814
-0.050340547789951,18.5165985437988
-0.0539212599447981,18.5168969417681
-0.0571689521066091,18.5172384207795
-0.0596247093479283,18.5175753271042
-0.0615717758826079,18.5179355399036
-0.0630273325943893,18.5183228446653
-0.0640055227516982,18.5187415093
-0.0645186535184363,18.5191968411807
-0.0645755870420057,18.5196955376997
-0.0641797414807684,18.5202462205571
-0.0633243587949695,18.5208614570531
-0.061988187306589,18.5215579164994
-0.0601271904551218,18.5223599547198
-0.0576513360821779,18.5233080476509
-0.0543467165675598,18.5244863180228
-0.0502425497909386,18.5258993675804
-0.0462543265936124,18.5272636522798
-0.0424386470047364,18.5285861141096
-0.0388240837349151,18.5298696370375
-0.0354253511183863,18.5311153530551
-0.0322493598072448,18.5323235078217
-0.0292978583397732,18.5334939146561
-0.0265688041332268,18.5346261935862
-0.0240572286416862,18.5357198956243
-0.021755886696363,18.5367745632768
-0.019655801147475,18.5377897536593
-0.0177467437258482,18.5387650382952
-0.0160176644034605,18.5396999873203
-0.014426299640463,18.5406123221334
-0.0128928154582554,18.5415478791678
-0.0114220480454428,18.5425080014134
-0.0100179761331236,18.5434947141281
-0.00868439764798535,18.5445103864028
-0.00742487491712522,18.5455578187915
-0.00624268314091176,18.5466403539018
-0.00514075645684279,18.5477620245102
-0.00412163157524657,18.5489277563491
-0.0031873885460851,18.5501436530607
-0.00233958756762988,18.5514174091239
-0.00157919961517235,18.552758930748
-0.000906526566005935,18.5541813126997
-0.000321102241509816,18.5557024650883
0.000171721758254853,18.5573228094258
0.000560336541005542,18.5589856029888
0.000861764790404477,18.5607091753519
0.00109088800932013,18.5625135093466
0.00126163183844574,18.5644250291294
0.0013873592391979,18.5664806256629
0.00148145082543893,18.5687358931596
0.00155835545543984,18.5712843957566
0.00163629656269441,18.5743155946448
0.00173879768395923,18.5780495872317
0.00186720763982726,18.5819460986556
0.00203503037256114,18.586223076555
0.00221004847973323,18.590188123972
0.00239031943210899,18.5940126437601
0.00257495817758041,18.5977942198989
0.00276394098869319,18.6015926185884
0.00295812551263213,18.6054511931835
0.00315910406037496,18.6094054798414
0.00336904905826905,18.6134873603579
0.00359059295216975,18.6177275133889
0.00382676051718044,18.6221570917224
0.00408098408533791,18.6268090970279
0.00435725946042126,18.6317198203518
0.00466050014508239,18.6369301179304
0.00499716188381914,18.6424862640829
0.00533755754641209,18.6478408030913
0.00569364153754778,18.6531527125961
0.00606402936569595,18.6583546894488
0.00645351522816826,18.6634707929135
0.0068658605964726,18.668504519491
0.00730567491587811,18.6734657159875
0.00777770862645656,18.6783601281361
0.00828709456523498,18.6831916045189
0.00883937539584628,18.6879615532244
0.00944063313142525,18.6926695477229
0.0100976029271514,18.6973137793694
0.0108235572091449,18.7019264816369
0.0116406724876526,18.7065679652304
0.0125652980777,18.7112351358968
0.0136219039165956,18.7159472981794
0.014846301514695,18.72074568227
0.0163011343664277,18.7257310176236
0.0181335392750431,18.7311942955725
0.0205961275073108,18.7375832495433
0.0221898847012421,18.741374679145
0.0238259212618803,18.7451661087467
0.0252571617004003,18.7485554917808
0.0264667183232839,18.7516509215357
0.0274699455355371,18.7546243046686
0.02821954278964,18.7574633165986
0.0287025068616247,18.760222761242
0.0289091288739038,18.7630276692795
0.028790644544592,18.7660647182558
0.0281520076581404,18.7698758493473
0.0273261676832605,18.7728181755227
0.0262630982512008,18.7757605016981
0.0251883435511509,18.778319759924
0.0241181163477919,18.7806555288589
0.0230464407345465,18.7828755028611
0.0219742185858729,18.7850313809452
0.0209047426886663,18.7871525333186
0.0198417330252438,18.7892583403881
0.0187888022218459,18.791362906505
0.0177493121200374,18.793477242436
0.0167263418233944,18.7956104340815
0.0157226875479997,18.7977703409839
0.0147408751824105,18.7999640421182
0.0137831723035189,18.8021981492579
0.0128515995486221,18.8044790412491
0.0119479458050805,18.8068130394486
0.0110737721529254,18.8092065823086
0.0102304258821943,18.8116663614851
0.00941905116983906,18.8141994612359
0.0086287847526168,18.81685474233
0.0078505859652792,18.8196883123294
0.00708822634119975,18.822721034406
0.0063455625385043,18.8259775971738
0.00562668780895084,18.8294865780346
0.00493589369766082,18.833281204116
0.00427761336140926,18.8374002678518
0.00365631240934162,18.841889449163
0.00307629403943229,18.8468036039417
0.00254143038959321,18.852210834283
0.00205484193444619,18.8581999870113
0.00162119679000178,18.8648495953091
0.00125540239700801,18.871989463913
0.00095933244024126,18.8797165089591
0.000722181032163125,18.8885073410167
0.000564144018301745,18.8966170629534
0.000427082325514086,18.9062026299913
0.000326684563642583,18.9162026299913
0.000257605707788276,18.9262026299913
0.000210782280946367,18.9362026299913
0.000179586003002393,18.9462026299913
0.000159271593433344,18.9562026299913
0.000146544824653446,18.9662026299913
0.000139166579491095,18.9762026299913
0.000135626999080847,18.9862026299913
0.000134909182151259,18.9962026299913
0.000136331404620972,19.0062026299913
0.000139444951670894,19.0162026299914
0.00014396733870205,19.0262026299914
0.000149737716865974,19.0362026299914
0.000156686967600374,19.0462026299914
0.000164818298303881,19.0562026299914
0.000174195821341034,19.0662026299914
0.000184939520586762,19.0762026299914
0.00019722569012429,19.0862026299914
0.000211292567155969,19.0962026299914
0.000227451553891766,19.1062026299914
0.000246105210174049,19.1162026299914
0.000267774235852997,19.1262026299914
0.000293137182478373,19.1362026299914
0.000323089038476595,19.1462026299914
0.000358828838794213,19.1562026299914
0.000401993408227054,19.1662026299914
0.000454650005543381,19.1761650144067
0.000514832912538026,19.1853863280068
0.000583344577988931,19.1938960938245
0.000661281504630485,19.2017486532212
0.000749922578349358,19.2089954718432
0.000850726800950817,19.215684351596
0.000965348262059079,19.2218596804872
0.00109565982551832,19.2275626892208
0.00124378187315918,19.2328316773583
0.00141211569288756,19.2377022174583
0.0016033809495798,19.2422073551469
0.00182066141786585,19.2463778040576
0.00206745819517868,19.250242130676
0.00234775483918517,19.2538269297483
0.00266609818570916,19.2571570040459
0.00302769992951377,19.2602555523422
0.0034385691344416,19.2631443646778
0.00390568702676896,19.2658440376875
0.00443724732958022,19.2683742290883
0.00504299843650988,19.270753973243
0.00573475055797652,19.2730021051923
0.00650059576403969,19.2750723265358
0.00734775238140345,19.2769932174759
0.00828965638474913,19.2787991912298
0.00934680201483722,19.2805258326354
0.0105540827130587,19.2822165493599
0.0119991382680731,19.2839593374687
0.0139866073707523,19.2860175935905
0.0156908670646961,19.2875787946306
0.0175313638271951,19.2891399956707
0.019178014418764,19.2904864121854
0.0206246382071237,19.2916768370574
0.0219213323854445,19.2927956033019
0.0230768474985443,19.2938906217164
0.024078524077404,19.2950000724224
0.0248963607208521,19.2961684018507
0.0254722597457983,19.2974696642899
0.0256612580727593,19.2991031779432
0.0252326170298238,19.3008528672811
0.0242547260139702,19.302602556619
0.0231288302134692,19.3040535757366
0.0218645930142197,19.3054456462187
0.0204593560429739,19.30686516082
0.0189216489833448,19.3083544426216
0.0172580302821412,19.3099515858447
0.01550186313618,19.3117055736975
0.0137936396295185,19.3135615811911
0.0114025348847425,19.3164969524672
0.00946133962577721,19.3192827690617
0.00792323822066465,19.3218576861524
0.00664202922476683,19.3243507845242
0.00552252837401952,19.3268883102122
0.00453971601270624,19.3294983849786
0.00373601094478658,19.332000190808
0.00307730799051799,19.3343880521371
0.00252722099326171,19.3366955615626
0.00205680039439206,19.3389688308511
0.00164055903602243,19.341283109557
0.00124783290891431,19.3438091457326
0.000921458173567546,19.3462401367282
0.000693741845007116,19.348164848441
0.000489498422874092,19.3500895601538
0.000324626565611319,19.3518077979985
0.000182004700540781,19.3534343264585
4.999729672339e-05,19.3550746571339
-7.9767541516351e-05,19.3568334199365
-0.000217977859949043,19.3588923483935
-0.000398043770596421,19.3619187077159
-0.000581714140621339,19.3655044794591
-0.000716094082795038,19.3685342443721
-0.000833600920925983,19.3715412195053
-0.000952011917564479,19.375004618278
-0.0010801824988296,19.3794354015332
-0.00120742595956308,19.3850919168397
-0.00127778772523036,19.3899790415503
-0.00129740424278886,19.3944173268328
-0.0012617640071728,19.3984114357922
-0.00116559389844609,19.4020133991063
-0.0010032240211778,19.4052695182356
-0.000768238527848968,19.4082363697725
-0.000452591805033135,19.4109724105583
-4.46760222897889e-05,19.4135397083397
0.000475005607769227,19.4160110529334
0.00114166032701889,19.4184782305894
0.00202747111372099,19.4210842123212
0.00327729481924568,19.4240481050087
0.00487121802927588,19.4271595570916
0.00625146236907112,19.4294759290988
0.0078199603898071,19.4317923011061
0.00935573472230399,19.4337841502999
0.0108815832599806,19.4355257302407
0.0125183913341078,19.4371660382332
0.0142753166478018,19.4387038447169
0.0162155465827927,19.440180619209
0.0183604547792638,19.4415944983437
0.0207531242341824,19.4429566671651
0.0234204953575221,19.4442656921984
0.0264054711718491,19.445527184137
0.0297456793606707,19.4467421542903
0.0334868106518327,19.4479133104709
0.0376832828057903,19.4490441222647
0.0423956016101224,19.4501374866888
0.047692707649494,19.45119617638
0.0536600831633009,19.4522239668302
0.060398276830915,19.4532245164883
0.0680277837893034,19.4542016216876
0.0766955740328129,19.455159405758
0.0865836012550058,19.4561024460397
0.0979201223532918,19.4570358862348
0.111001604634669,19.4579660106838
0.12622002972902,19.4589004914965
0.144115218775963,19.4598493795419
0.165450439645285,19.4608259728682
0.190143248798035,19.4618043422373
0.218827047136829,19.462794227296
0.252344509309653,19.4638094035831
0.291926513352721,19.464872315684
0.338629957357687,19.4660032703771
0.380416978732545,19.4669517184343
0.414911824949627,19.4677224922396
0.444707431111703,19.4684064874124
0.470758542893723,19.4690479818707
0.493199093034145,19.469673407145
0.511708660044748,19.4703050969259
0.525477605291928,19.4709686309547
0.532807215867901,19.4717037198685
0.530469886654316,19.4725026456834
0.516578924046962,19.4733238687368
0.489748453246665,19.4741841027748
0.448150196826038,19.4750955949983
0.389747270475647,19.4760667032274
0.344432391588696,19.4767011084778
0.294377595744614,19.4773355137283
0.249928191829552,19.4778657243417
0.211932346319136,19.4783083005773
0.17861075470216,19.4786974096719
0.148796249582075,19.4790534585513
0.121788810945352,19.4793889109033
0.0971113230798848,19.4797127157084
0.0743786226382479,19.4800327536044
0.0531951763412534,19.4803581456771
0.0329572237123201,19.4807044471792
0.011790963338158,19.4811223103394
0.00098163166872653,19.4813680279273
-0.00640139401055289,19.4815533633464
-0.0131507737591643,19.4817386987655
-0.0190527837295145,19.4819163363487
-0.0250877891776582,19.4821169553273
-0.0309755150146201,19.4823364944064
-0.0365299924421161,19.4825722494037
-0.0416469731597459,19.4828231134022
-0.0462710720260092,19.483089023786
-0.050376148874072,19.4833706438465
-0.053951891880584,19.483669204856
-0.0571892836268673,19.4840102783057
-0.0596411643920222,19.4843473410364
-0.0615845277152662,19.4847077410199
-0.0630364892632231,19.4850952615021
-0.0640111839046289,19.4855141770871
-0.0645208995123266,19.485969804024
-0.0645744658369374,19.4864688517402
-0.0641752514495647,19.4870199589434
-0.0633163982457743,19.4876357303681
-0.0619765295924846,19.4883328706082
-0.0601113798785174,19.4891358152747
-0.0576304086858324,19.4900852190029
-0.0543180690263359,19.4912657822433
-0.0502144974459027,19.4926784198068
-0.0462273205590471,19.4940423992303
-0.0424129570525252,19.4953645849312
-0.0387998484673031,19.4966478440848
-0.0354026406615061,19.4978933002751
-0.0322282017987175,19.4991011949776
-0.0292782503955799,19.5002713395493
-0.0265507210371067,19.5014033532218
-0.0240406273773367,19.5024967868038
-0.021740710490383,19.5035511828619
-0.0196419829888875,19.5045660986371
-0.0177342095043282,19.5055411057148
-0.0160063357076818,19.50647577414
-0.0144153601724056,19.5073882676847
-0.0128823020098134,19.5083239908045
-0.0114119890595358,19.5092842923128
-0.010008398970485,19.5102711996239
-0.00867532818962269,19.5112870845384
-0.00741633721124077,19.5123347509937
-0.00623469903239066,19.5134175458739
-0.00513334520028837,19.5145395074406
-0.00411480942998204,19.5157055685843
-0.00318116834805982,19.5169218424897
-0.00233397826744499,19.5181960366898
-0.0015742057608391,19.5195380758319
-0.00090214768853766,19.5209610817989
-0.000317332058757333,19.522483006717
0.000174708632117237,19.5241035882748
0.000562667252041913,19.5257667437737
0.00086354617435881,19.5274907996878
0.00109221921217176,19.5292957746134
0.00126260658810666,19.5312081480182
0.001388069101119,19.5332649048516
0.00148199027694963,19.535521815551
0.0015588324276506,19.538072829981
0.00163686505151512,19.5411085226356
0.00173945874131464,19.5448423615234
0.00186811039511335,19.5487414830167
0.00203597588028081,19.5530158016769
0.00221102833412929,19.5569796514456
0.00239132629591414,19.5608037122608
0.00257598862190843,19.5645852383373
0.00276499703823804,19.5683838634237
0.0029592139479387,19.5722428795002
0.00316023544215332,19.5761977931651
0.00337023686451119,19.5802804734803
0.00359185301321794,19.5845215978099
0.00382811078209789,19.588952325444
0.00408244503195234,19.5936056724108
0.00435885545593906,19.5985179520886
0.00466226213635138,19.603730049692
0.00499894414813593,19.6092852065419
0.00533942045330418,19.6146396038505
0.00569557193685419,19.6199509155174
0.00606605148878659,19.625152420464
0.00645564757543196,19.6302680590713
0.00686812708358757,19.6353013789011
0.00730810011010598,19.6402622051232
0.00778031899408081,19.6451562743038
0.00828991846054314,19.6499874209195
0.00884244374368131,19.6547570422008
0.00944398000452544,19.6594647027606
0.0101012662325155,19.6641085883369
0.0108276724776082,19.6687214719246
0.0116453094854498,19.6733630602561
0.0125705694103127,19.6780304124113
0.0136279625175388,19.6827428943701
0.0148533895437334,19.6875419296324
0.0163097201266714,19.6925287542729
0.0181449533633552,19.697996304532
0.0206076226093718,19.7043815275165
0.0222004833381715,19.7081696213687
0.0238351248178757,19.7119577152209
0.0252649024731016,19.7153446090678
0.0264732284041184,19.7184388707654
0.0274752237685971,19.7214119445386
0.028223217246894,19.7242501529484
0.0287045843465904,19.7270094744304
0.0289094654937434,19.7298151022196
0.0287887334232905,19.7328544502416
0.0281452551721211,19.736674825277
0.0273185211435372,19.7396119857535
0.0262558134315456,19.74254914623
0.0251812271774481,19.7451060848005
0.0241110089995312,19.7474408010617
0.023039322846933,19.7496602141018
0.0219671072212973,19.7518157796629
0.0208976620766967,19.7539367736028
0.0198347077385124,19.756042530008
0.0187818554514618,19.7581471270848
0.0177424652220177,19.7602615596945
0.0167196142634055,19.7623949036459
0.0157160969547419,19.7645550120219
0.0147344374199514,19.7667489598016
0.0137769015809156,19.7689833564632
0.0128455084712715,19.7712645799745
0.011942045453417,19.7735989519209
0.0110680721717297,19.7759929119237
0.0102249344893488,19.7784531539116
0.00941377529878269,19.78098676515
0.00862357651872415,19.7836431684626
0.00784547064320262,19.7864779861901
0.00708322869569039,19.789512108431
0.00634070897230774,19.7927702475018
0.00562200621173746,19.796281008884
0.00493141310080393,19.8000776534658
0.004273363442983,19.8041990144234
0.0036523225637752,19.8086908232201
0.00307259170244853,19.8136080079747
0.00253803908407254,19.8190187789084
0.00205177932369436,19.8250121547706
0.00161860139701055,19.831664669522
0.00125322642802653,19.8388080080538
0.00095763993042691,19.846539265726
0.000721363275902128,19.8553143651478
0.000563230189336643,19.863441603061
0.000426457760946723,19.873025241299
0.000326251554685356,19.883025241299
0.00025730998843762,19.893025241299
0.000210583821998016,19.903025241299
0.000179455491244717,19.913025241299
0.000159188315659651,19.923025241299
0.000146494596335054,19.933025241299
0.000139139837567485,19.943025241299
0.000135617314243528,19.953025241299
0.000134912233043103,19.963025241299
0.000136344313706154,19.973025241299
0.000139465858413177,19.983025241299
0.000143314892886385,19.9915126206495
0.000148019763867831,20
