ecg,time
0.0022308631536591,15.0028263951663
0.00237360877205835,15.0066408653727
0.00253289924263052,15.0104127222901
0.00270521456422833,15.0142013362377
0.00288808413631346,15.0180499262097
0.0030804266200374,15.0219938995865
0.00328247779662299,15.0260650616801
0.00349559269994352,15.0302940509386
0.00372203605361215,15.0347120077788
0.00396482635994903,15.0393519137113
0.00422771953312739,15.0442500455725
0.00451540757942515,15.049447307387
0.00483403847501164,15.0549906075553
0.00516183265783278,15.0604371216808
0.00550211039342393,15.065803904429
0.00585611079649196,15.0710659466805
0.00622749362496448,15.0762335543476
0.00662009166378484,15.0813150734555
0.00703817985602211,15.0863203862973
0.00748622775333127,15.0912565210108
0.00796900202322456,15.096128120337
0.00849163748067571,15.1009373974948
0.00905975605171451,15.1056846108196
0.0096795789611966,15.1103684614616
0.0103580432209041,15.1149865893543
0.0111149621632775,15.1196059925928
0.0119682346243979,15.1242484895586
0.0129371076669645,15.1289206623518
0.0140490024730465,15.1336464230181
0.0153463961186004,15.1384811480455
0.016909747855162,15.1435646313427
0.0189627020760833,15.1493574353085
0.0208307655800012,15.1540480068985
0.0228338694006585,15.1587385784886
0.0244688080406189,15.1625080262252
0.0258193539785014,15.1657558357449
0.0269544000515076,15.1687765964208
0.0278754944895752,15.171711091815
0.0285248132486604,15.1744945483574
0.0289063824283731,15.1772437716849
0.0289993153551078,15.1800974032185
0.0287246281844814,15.1833075925301
0.0277626219090102,15.1876312014811
0.0268829886598276,15.1902906583213
0.0258316846380165,15.1929501151615
0.0247640044480332,15.1953636179436
0.0236942735736125,15.1976228688147
0.0226225737179702,15.1997964544931
0.0215515796558174,15.201922135704
0.0204849332268051,15.2040233659194
0.0194263392505376,15.2061164696613
0.0183792968439701,15.2082137693822
0.0173470277532573,15.210325162624
0.0163324672487969,15.2124590126902
0.0153382720288388,15.2146227032616
0.0143668327611283,15.2168230103151
0.0134202896553717,15.2190663633026
0.0125005406201912,15.2213590599967
0.0116092555691486,15.2237074296461
0.0107478857098581,15.2261179869906
0.00991767236348841,15.2285975803154
0.00911887875017062,15.2311561245162
0.00832994699953265,15.2338827548384
0.00755466861891185,15.2367963597738
0.00679677808073796,15.2399198301717
0.00606026300052974,15.2432796332889
0.00534934176622309,15.246906486696
0.00466841831142474,15.2508361986013
0.00402200520565699,15.2551107565869
0.00341459221136162,15.2597799272878
0.00285039709440444,15.2649043458137
0.00233307307788104,15.2705608721423
0.00186540786558399,15.2768521428543
0.00146138807693395,15.2836880844618
0.00112632263419895,15.291050976512
0.000922998283875625,15.297121541772
0.000713092389848625,15.3053737982089
0.000544728174028351,15.314415221057
0.000412316021132099,15.324415221057
0.000320990940642963,15.334415221057
0.000258899864918126,15.344415221057
0.000217433768814837,15.354415221057
0.00019037906990391,15.3644152210569
0.000173378192499673,15.3744152210569
0.000163452689256965,15.3844152210569
0.000158594861916198,15.3944152210569
0.000157458658219389,15.4044152210569
0.000159147778626902,15.4144152210569
0.000163077724508393,15.4244152210569
0.000168886755048759,15.4344152210569
0.000176377754119651,15.4444152210569
0.00018548037317955,15.4544152210569
0.000196227647692388,15.4644152210569
0.000208743913804075,15.4744152210569
0.000223242341339473,15.4844152210569
0.00024003152731801,15.4944152210569
0.000259531762361614,15.5044152210569
0.000282303027269546,15.5144152210569
0.000309088779830501,15.5244152210569
0.000340882644267991,15.5344152210569
0.000379030129000075,15.5444152210569
0.000425386209190072,15.5544152210569
0.000480959516516868,15.5641584018362
0.000544513877597492,15.5731648501657
0.000616971035108642,15.5814725773134
0.000699527015165254,15.58913588937
0.000793564939831833,15.5962058417905
0.000900658135676371,15.6027297949097
0.00102258897781764,15.6087516872543
0.00116137513747433,15.614312299458
0.00131930115357466,15.6194494865676
0.00149895443953558,15.6241983932583
0.00170326756084478,15.6285916608545
0.00193556843092586,15.6326596272817
0.00219964128760105,15.6364305166633
0.00249980068006514,15.6399306254092
0.00284098578807576,15.643184514558
0.00322888062981384,15.6462152122303
0.00367007292774071,15.6490444310421
0.00417227008933526,15.6516928185562
0.00474460285139183,15.6541802647569
0.00539807102818759,15.6565263047975
0.00613195353716683,15.6587119181137
0.00694408404152685,15.6607330829627
0.0078464034754362,15.6626254495758
0.00885723450404912,15.6644257223121
0.0100069340193792,15.6661765955705
0.0113550702695781,15.6679421683975
0.0131317704517841,15.6699430517629
0.0148578818652468,15.6716517819055
0.0167466222916597,15.6733605120482
0.0184030090350122,15.6747908385249
0.0198379914397389,15.6760292050881
0.0211200232032033,15.6771814028526
0.0222635248637223,15.6783011320795
0.0232588972104932,15.6794275961587
0.0240798508784115,15.6806033109917
0.0246759991252631,15.6818940520857
0.0249321945276849,15.6834564347005
0.0245892972309511,15.6853088247241
0.0236421629973569,15.6871612147478
0.0225394196010453,15.6886574327631
0.0213083249675194,15.6900679864061
0.0199422024986098,15.6914951707251
0.0184490198584579,15.6929840627433
0.0168362613593195,15.6945718838064
0.0151364019033882,15.6963040961536
0.0137388515332264,15.69783874878
0.0113810816031579,15.700733153261
0.00943178531627449,15.7035219091297
0.00788252359042669,15.7061034236303
0.00659148096776722,15.7086004185427
0.00546188714355034,15.7111412227786
0.00446852455215232,15.7137541957144
0.0035934358392798,15.7164626021582
0.00284516879259889,15.7191977994539
0.00224483225352294,15.7217769907133
0.00175382544544545,15.7242302413531
0.00134264305196469,15.726598034618
0.000989411007299971,15.7289261751567
0.000677275625824219,15.7312700390099
0.000390927770596007,15.7337160560309
0.000106385380266491,15.736495302004
-9.82091798710825e-05,15.7387550749082
-0.00028273162579259,15.7410148478123
-0.000425631499565336,15.7429290112226
-0.000544177386404906,15.7446369527035
-0.000652050869505882,15.7462929160291
-0.000756823429465392,15.747999589864
-0.000865721705556785,15.7498809447978
-0.000992182277895978,15.7522081837864
-0.00121636251474304,15.756717703051
-0.00140619265380381,15.7609260188997
-0.0015558992447153,15.7644990396826
-0.00170516845816025,15.7682935516002
-0.00188254267828491,15.773158757854
-0.00205936816276903,15.7786840745727
-0.00217691950590222,15.7835089390774
-0.00223124473981213,15.7878605978453
-0.00221157867183155,15.7917623990816
-0.00210997202764605,15.7952719389305
-0.00192002148742456,15.798460340447
-0.00163505004828556,15.8013985426327
-0.00124657718027962,15.8041506484604
-0.000741802157541743,15.8067794671502
-9.59068734923195e-05,15.8093666882473
0.000745531146065482,15.8120417678217
0.00191653081735479,15.8150579522523
0.00340938109774501,15.8182580563209
0.0052588400858654,15.8216554345828
0.00651864095251961,15.8237142117653
0.00790729579721462,15.8257729889478
0.00934905126835002,15.8276907071829
0.0108151534141201,15.829426361099
0.0123761401266209,15.8310598025512
0.0140894566949953,15.8326324598956
0.0159574013387318,15.8341269610282
0.0180346976294589,15.8355693737936
0.0203417739869971,15.8369548438971
0.0229176552062153,15.8382898564529
0.0257964402579957,15.839575722523
0.0290111590825259,15.8408124951887
0.0326097779482512,15.8420047797508
0.0366416798131548,15.8431552360882
0.0411642181464413,15.8442668549267
0.0462423724171959,15.8453424267525
0.0519578298993038,15.8463859665444
0.0584051401482925,15.8474010860793
0.0656979039512193,15.8483916118732
0.0739743906740495,15.8493616766074
0.0834046905661908,15.8503157772777
0.0942040030091438,15.8512591671577
0.106648601356936,15.8521979882849
0.121103900819285,15.8531398136377
0.138072079351954,15.8540945432946
0.158280869039303,15.8550761123624
0.18177476834489,15.8560633731034
0.209058206779231,15.8570610033996
0.24092639995221,15.8580825212597
0.278519361481611,15.8591491044432
0.323020217346591,15.86028367319
0.365841431175759,15.8612984093798
0.401089274797659,15.8621126870214
0.431386983883191,15.8628253346413
0.457873780587713,15.8634868309854
0.480780571424882,15.8641255814848
0.499877034665398,15.864763891499
0.514496163443802,15.8654252309886
0.523269691068492,15.8661423280664
0.523341907622605,15.8669471178792
0.512256677040363,15.8677677193194
0.488780560614676,15.8686210143186
0.45125133445766,15.8695197592877
0.397765628305834,15.8704728039426
0.352335906266233,15.8711430792615
0.301361325095466,15.8718133545803
0.256054386238872,15.872367825675
0.217522294014155,15.872825016245
0.18384291708448,15.8732236190943
0.153759385869595,15.8735862613187
0.126535213469667,15.8739263659975
0.101680779672999,15.8742532679846
0.0788130107364027,15.8745748519814
0.0575586075628473,15.874899702573
0.0373990928945431,15.8752411743288
0.0170084327772418,15.875635521363
0.00845124212061663,15.8758217952822
0.000564939687713661,15.8760080692013
-0.00737572099951277,15.8762133784699
-0.013916002967736,15.8763993280352
-0.0198614960519491,15.8765850632898
-0.0258488079183116,15.8767925293702
-0.0316298126830176,15.8770181115441
-0.0370451860827611,15.8772595792257
-0.0420066490941742,15.8775161347246
-0.0464683315202564,15.8777879280653
-0.0504098400830078,15.8780757857601
-0.0538670610733842,15.8783860381064
-0.0567084950198342,15.8787080575979
-0.0590350576339298,15.879051456647
-0.0608610606731712,15.8794192686118
-0.0622008445168913,15.8798151101614
-0.063068147605673,15.8802434483828
-0.0634745895062225,15.8807098529236
-0.0634280086726332,15.8812213720258
-0.0629303483690687,15.8817871353742
-0.0619719526884018,15.8824208021663
-0.0605282469255714,15.8831400344646
-0.0585490834858264,15.8839714707121
-0.0559306016002025,15.8849607760582
-0.0524113676671186,15.886209616081
-0.0483588694647251,15.88760822492
-0.0444373114877237,15.8889603942588
-0.0406968364665313,15.8902712163983
-0.0371618066332028,15.8915431677021
-0.0338445667250822,15.8927771920613
-0.0307504350130928,15.8939734559905
-0.0278799596749254,15.8951317493699
-0.0252301461838542,15.8962516962854
-0.0227952663142377,15.8973328637481
-0.0205674825990398,15.8983748130784
-0.0185373782819198,15.8993771172629
-0.0166944252437807,15.9003393568133
-0.0150273997430305,15.9012611010068
-0.0134600980149227,15.9021809875415
-0.0119524528537136,15.9031244493673
-0.0105089218559136,15.9040931038447
-0.00913343779635198,15.9050890812703
-0.00782973496024975,15.9061148825462
-0.00660129668763262,15.9071734728973
-0.00545130348808951,15.9082684033411
-0.00438257890496292,15.9094039744768
-0.00339753304309276,15.9105854625443
-0.00249810325288156,15.91181944011
-0.00168569075508756,15.9131142460761
-0.000961090753503197,15.9144807022252
-0.000324411240163794,15.9159332600637
0.00022502915180889,15.9174919533092
0.000674109814380197,15.9191243179078
0.00102485119656751,15.9208050948975
0.00129333186899185,15.9225526197386
0.00149402491064812,15.9243886815186
0.00164054551635971,15.9263425386238
0.00174608250707039,15.9284559641321
0.0018240566256056,15.9307938994122
0.00188942785680172,15.9334711032134
0.00196257900429115,15.9367427833707
0.00205951110655081,15.9404866595534
0.0021857378291658,15.9444111934878
0.00233111822617916,15.9482188737136
0.00249201694421202,15.9519907931787
0.00266503320141724,15.9557841850352
0.00284793160565687,15.9596412632236
0.0030398596852894,15.9635969567416
0.00324123283473348,15.9676828918912
0.00345352480772007,15.9719297136468
0.00367906001375415,15.976368709451
0.00392086907926976,15.981033151177
0.00418269144393549,15.9859597614722
0.00446919780129921,15.9911900349165
0.00478653726748213,15.9967716307533
0.00511143121721824,16.0022312367352
0.00544883214513354,16.0076150542045
0.00579947150137781,16.0128894076984
0.00616722813633781,16.0180688506107
0.0065558396407953,16.0231612690046
0.0069695350210021,16.0281770909202
0.0074126931300043,16.0331234328596
0.00788998089090702,16.0380050565247
0.0084064228710418,16.0428242892842
0.00896752553533138,16.047581541254
0.0095793880309317,16.0522756657298
0.0102488135143287,16.0569043949481
0.0109925750196684,16.0615188629749
0.0118305780283027,16.066158339177
0.0127807450129094,16.0708249460457
0.0138691239538295,16.0755402594788
0.0151350553958897,16.0803528112501
0.0166503645664247,16.0853831179748
0.0185992005657833,16.0910031873451
0.0210733435357873,16.0972430239985
0.0226370418829861,16.1008989279296
0.0242253529962955,16.1045548318607
0.0256090167319404,16.1078467881097
0.0267781032328544,16.1108919094517
0.0277398347555305,16.1138462998072
0.0284335357668996,16.1166466691256
0.0288602150403262,16.1193930608167
0.0290042837189039,16.1222172730302
0.0288017261018481,16.1253375959496
0.0279506428078948,16.1295704737661
0.0270909405691976,16.1323155784622
0.0260386702717615,16.1350606831584
0.0249699201048678,16.137520010353
0.0239005715781861,16.1398028869773
0.0228291049452951,16.1419896720524
0.0217576959393951,16.1441226874892
0.0206898961122097,16.1462274173339
0.0196294295749628,16.1483212563179
0.0185798438258553,16.1504171553773
0.017544415588803,16.1525254051971
0.0165261349073532,16.1546546233563
0.0155277105997085,16.1568123601985
0.0145515832140793,16.1590054972315
0.0135999398399731,16.1612405268321
0.0126747230737536,16.1635237758134
0.0117776464656632,16.1658615721585
0.0109102021863857,16.1682604066896
0.0100736691680601,16.1707270855444
0.00926913129781188,16.1732688529014
0.00847808172453821,16.1759622138827
0.0076999455096987,16.1788387585442
0.0069384639100528,16.1819205826037
0.00619757676436238,16.1852334323365
0.00548146101896599,16.1888071640525
0.00479448602364078,16.192676573268
0.00414115304294041,16.1968823780457
0.00352597002565564,16.2014727174755
0.00295322707593783,16.2065058747312
0.00242671278374511,16.212055048337
0.00194938910979801,16.218217145045
0.00153218686613326,16.2249631621912
0.0012598893527621,16.2304253055941
0.0010467049659875,16.2358874489969
0.000815433598252013,16.2436998845251
0.000631466590959914,16.2521074989012
0.000482998067728229,16.2613958348289
0.000370365732786868,16.2713958348289
0.000293208937062553,16.2813958348289
0.00024120590747648,16.2913958348289
0.000206843801198964,16.3013958348289
0.000184775611636695,16.3113958348289
0.0001713058997684,16.3213958348289
0.000163930630725546,16.3313958348289
0.000160967166263137,16.341395834829
0.000161289719969345,16.351395834829
0.000164153947094446,16.361395834829
0.000169083788292876,16.371395834829
0.000175798036029789,16.381395834829
0.000184162243531557,16.391395834829
0.000194157942133786,16.401395834829
0.000205864808659979,16.411395834829
0.000219453395861336,16.421395834829
0.000235187307533982,16.431395834829
0.000253434849280258,16.441395834829
0.000274691512529817,16.451395834829
0.000299616400681114,16.461395834829
0.000329088268988176,16.471395834829
0.000364290933374417,16.481395834829
0.000406844743612455,16.491395834829
0.000459013219319285,16.501395834829
0.000518918314793965,16.5106777950321
0.000587249322414464,16.519241977718
0.000665118390317674,16.527142486945
0.000753830297709761,16.5344315749946
0.000854873934024923,16.5411577718564
0.00096993669018373,16.5473661098666
0.00110092851559894,16.5530983927508
0.00125001125658236,16.5583934348627
0.00141963287895305,16.5632872767548
0.00161256611231611,16.5678133917453
0.00183195538294004,16.5720028853752
0.00208137182319658,16.5758846860706
0.002364881117189,16.5794857285968
0.00268712757083168,16.5828311404567
0.00305344084016311,16.585944436784
0.00346997554777869,16.5888477264206
0.00394389718215405,16.5915619416535
0.00448363978603589,16.5941071121964
0.00509927632507922,16.5965027119813
0.00580113137364402,16.598762431554
0.00657713769604879,16.6008421083348
0.00743702041158593,16.602776966917
0.00839571482220195,16.6046027698183
0.00947659616787543,16.606357770921
0.0107213644866455,16.6080918432739
0.0122504064114013,16.6099255423803
0.01453275289466,16.6122652600715
0.0161117814559002,16.6137099773514
0.0177822956225552,16.6151546946313
0.0193068010196404,16.6164480439807
0.0206649087709025,16.6176251229733
0.0218818481451803,16.6187489809328
0.0229567264531035,16.6198620746109
0.023871042323207,16.6210034275833
0.0245874479109496,16.6222243135383
0.0250307066580477,16.6236225623524
0.0249633944527247,16.6255466713155
0.0243595299497393,16.6271434996359
0.0233546647545297,16.6287403279562
0.0222039770890331,16.6301671570543
0.0209123694284226,16.6315728175555
0.0194862846637922,16.6330179800675
0.0179350801823865,16.6345410016362
0.0169006568987183,16.6355529788334
0.0158867580399113,16.6365649560306
0.0148213923708489,16.637679493444
0.0124113879182254,16.6404506760609
0.0102400938581505,16.6433463033735
0.00852674604363818,16.6460143495915
0.00714846530647913,16.6485073645957
0.00595036681309229,16.651022704072
0.00489835076556962,16.6535991076856
0.003972225634483,16.6562605095489
0.00315605223931983,16.6590301019434
0.0024735435034994,16.6617700541599
0.00192515520300929,16.6643557964999
0.00147467117666519,16.6668237654816
0.00109513902038127,16.6692181295634
0.00076756507455732,16.6715814904499
0.000478301678252936,16.6739559459603
0.000215461876166877,16.6764028898486
-3.87516457151546e-05,16.6790900516727
-0.000245096123409379,16.681548759826
-0.00043066723364529,16.6840074679792
-0.000567215987329594,16.6859845236691
-0.000678574110511616,16.687711044388
-0.000779629786169045,16.6893714423997
-0.000877749835281256,16.6910719070586
-0.000979599110652232,16.6929310712818
-0.00109690304636125,16.6951920777464
-0.00129501010154478,16.6992966220307
-0.00146560424144749,16.7031101659736
-0.00160145115918729,16.706324772149
-0.00173768655662971,16.7097064807525
-0.00189510347320025,16.713831528064
-0.00209888222696167,16.7196850730187
-0.00224174571730957,16.7247171781069
-0.00232363410214763,16.7292633657753
-0.00233214391929236,16.7333262473376
-0.00225852689175335,16.7369760554078
-0.00209602274715923,16.7402841410798
-0.00183799278440494,16.7433276706254
-0.00147703503872279,16.7461683590329
-0.00100410722765075,16.7488576250016
-0.000402414684149258,16.7514613883636
0.000364611380081208,16.7540793787673
0.00139203887072094,16.7569119542331
0.00275550748563644,16.7600162734258
0.00447033270334702,16.7633313897788
0.00582890437140855,16.7656556460651
0.00733383504155886,16.7679799023513
0.00879450692372574,16.7700025824507
0.0102639036674619,16.7718191385837
0.011790441589177,16.7734930218695
0.0134473991193341,16.7750929338124
0.0152501829247025,16.7766150678844
0.017247188393766,16.7780817544995
0.0194614379542718,16.7794905252559
0.02193147495159,16.7808482504159
0.0246845140769617,16.7821534261919
0.0277624869939969,16.7834108599039
0.0312062326462103,16.7846226204467
0.0350595495939071,16.7857904073572
0.0393793586947934,16.7869181575068
0.0442296836893565,16.7880092178267
0.0496849997910518,16.7890669280733
0.0558336947507328,16.7900948320629
0.0627810436579522,16.7910966013211
0.0706551089281026,16.7920762678006
0.0796145403721163,16.7930383848332
0.0898566555222779,16.7939879437859
0.101633369261952,16.7949307706069
0.115274998124861,16.7958739630825
0.131229894496243,16.7968266311074
0.150137936547692,16.7978013655008
0.17234799142217,16.7987910607048
0.198109923094558,16.7997879114067
0.228144275330579,16.8008041717885
0.263452485872818,16.801858123087
0.305645952421169,16.8029830436621
0.340952793913092,16.8038520270604
0.377779929471005,16.8047210104587
0.410505006167936,16.8054883458689
0.439104036642948,16.8061820065013
0.464072423327717,16.806836614636
0.485425479627874,16.8074768003535
0.502776143444069,16.8081244144471
0.515249302418374,16.808804835542
0.521059983021995,16.8095571426655
0.517086712552644,16.8103685243821
0.501613823035945,16.811201398371
0.473256116062245,16.8120710904968
0.430267039287347,16.8129885363446
0.370744910226685,16.8139626043012
0.327888744093764,16.8145598354639
0.281102197366477,16.8151570666266
0.239271060843842,16.8156638954608
0.203079789508457,16.8160943350833
0.171087535155139,16.8164771669779
0.142326233156239,16.8168301560727
0.116191245620659,16.8171646289319
0.0922533383013645,16.8174890764991
0.0701493939987207,16.8178113553314
0.0494806441376325,16.8181411589046
0.0295722520586273,16.8184965536094
0.00784532814955471,16.8189488799602
-0.000667523609841336,16.8191531144375
-0.0084106696965995,16.8193573489149
-0.0147888096700959,16.8195423272743
-0.0207517074692116,16.8197325823437
-0.0267066406718912,16.8199438828956
-0.0324223491762078,16.8201728401197
-0.0377543127776555,16.8204175006933
-0.0426231100210184,16.8206772488878
-0.0469881529170342,16.8209523610584
-0.0508316665178032,16.8212437621956
-0.0543819030391892,16.8215786103492
-0.0570947209689729,16.8219065241837
-0.0592940523321374,16.822256225219
-0.0609969872481479,16.8226311625567
-0.0622178272719955,16.8230351416661
-0.0629698904723257,16.823472865405
-0.0632640121911989,16.8239502131913
-0.0631068210476234,16.8244746554369
-0.0624980031744227,16.8250562699723
-0.0614248598038771,16.8257094339985
-0.0598582426814468,16.826453427234
-0.0577393245980277,16.8273179975772
-0.0549432574188504,16.8283563728339
-0.0511263918996953,16.8296997088829
-0.0471101197410502,16.831084343106
-0.043241308646313,16.8324243546513
-0.0395618546885611,16.8337237501396
-0.036092104852078,16.8349845281946
-0.0328421334754748,16.8362073962169
-0.029815746229488,16.8373924092491
-0.0270123719901866,16.8385393108578
-0.024428146930301,16.8396477121533
-0.022056663202609,16.8407171828823
-0.0198895644934652,16.8417472924829
-0.0179170581635942,16.842737620985
-0.0161283685739589,16.8436877505296
-0.0145121384574664,16.8445972434041
-0.0129619538229488,16.8455240481035
-0.0114729367775407,16.8464747732635
-0.0100492108007706,16.847451286141
-0.00869465681033374,16.8484558177975
-0.00741294037156658,16.8494909959417
-0.00620746088264013,16.8505599449376
-0.00508129902087655,16.8516664182183
-0.00403716194163352,16.8528149779846
-0.00307732603829064,16.8540112451237
-0.00220357657828363,16.8552622569641
-0.00141714270678483,16.8565769973325
-0.000718624813273283,16.8579672154428
-0.000107908379263282,16.8594487585711
0.000415947730418873,16.8610438905164
0.000833629447786671,16.862688664767
0.00115812172670522,16.8643875008652
0.00140481161378451,16.8661590077699
0.0015878824398748,16.868026868569
0.00172077403651555,16.8700233967508
0.00181666629751886,16.8721957802647
0.00188926298975237,16.8746197919647
0.00195452048082953,16.8774366732404
0.00203672147182818,16.8809982044106
0.00214217610266125,16.8847833902687
0.00227463010074606,16.8886478707776
0.00242558986233001,16.8924328265332
0.00259127784996494,16.8962070250879
0.00276857832681394,16.9000204347186
0.0029556716194996,16.9039117755487
0.00315211717197317,16.907914307823
0.00335870099056975,16.9120590423871
0.0035772207224878,16.9163766932839
0.00381029223148088,16.9208991425307
0.00406124852679118,16.9256608106608
0.00433421581163722,16.9307001078441
0.00463444926024008,16.9360607350631
0.00495951957161642,16.9416317014913
0.00529047564433947,16.9470329722705
0.00563563482030281,16.9523647045398
0.00599540889324969,16.9575866605862
0.0063742483797631,16.9627196977401
0.00677597614401628,16.9677703815615
0.00720498577176519,16.9727483478098
0.00766581463793849,16.9776593857905
0.00816334236645885,16.9825071085754
0.00870285932721661,16.9872928439836
0.00929019304112517,16.9920161709012
0.00993181670414429,16.9966752952563
0.0106360698288462,17.0012744432136
0.0114285338406877,17.0059054649627
0.012323440760429,17.0105571893975
0.0133433941578628,17.0152460443023
0.0145201384212531,17.0200042154616
0.0159063654863612,17.0249096359702
0.0176137668074057,17.0301719834075
0.0200560844319259,17.0366786656311
0.0217233755659342,17.0406909903772
0.0234606728101594,17.0447033151234
0.024969047925136,17.0482109707347
0.0262398714540259,17.0513545735999
0.0273027465642063,17.0543359439015
0.0281282441110302,17.0572034977315
0.0286858595136327,17.0599613255274
0.0289722842374886,17.0627284500803
0.0289529379467625,17.0656640323891
0.0285014681451952,17.0691344942725
0.0277157700150402,17.0723089961505
0.0266318793642105,17.0754834980285
0.0255487085174387,17.0781321117918
0.0244786354852406,17.0804998024027
0.0234081111406122,17.0827316148001
0.0223362550230227,17.0848896695324
0.0212660405109649,17.0870070400712
0.0202011693147358,17.0891048364324
0.0191453045025597,17.0911981046387
0.0181018738419355,17.0932984084207
0.0170740224900434,17.0954151702351
0.0160646093813049,17.0975564528389
0.0150762192656901,17.0997294501136
0.0141111741062789,17.1019408285836
0.0131715470427812,17.1041969727336
0.0122591760330797,17.1065041749611
0.0113756692133328,17.1088688136959
0.0105224214343354,17.1112974869147
0.00970062004949322,17.1137971675885
0.00890418096970582,17.116399343827
0.00811860051204832,17.1191744592917
0.00734765582029387,17.1221424176892
0.00659515072190494,17.1253270175423
0.00586513744906374,17.1287558048383
0.00516188803314072,17.1324607923987
0.0044898452806382,17.1364793384276
0.00385353190758895,17.1408553432325
0.00325738966729344,17.1456411565093
0.00270551991382666,17.1509010969051
0.00220136325487467,17.1567178924845
0.0017474554823796,17.1632032692383
0.00136186863597739,17.1701751918035
0.00104905047292951,17.1777005329917
0.000798556482125858,17.1861916435767
0.000627738369165642,17.1941341839795
0.000478881171747276,17.2035143866682
0.000367156492680468,17.2135143866682
0.000290520300313027,17.2235143866682
0.000238818744708747,17.2335143866682
0.000204639016509086,17.2435143866682
0.000182681312075261,17.2535143866682
0.000169271666795481,17.2635143866682
0.000161918477671138,17.2735143866682
0.000158948582113372,17.2835143866682
0.000159243745027177,17.2935143866682
0.00016206509452867,17.3035143866682
0.000166940014998382,17.3135143866682
0.000173589032282685,17.3235143866682
0.000181878071723748,17.3335143866682
0.000191787897842693,17.3435143866682
0.00020339633884592,17.3535143866682
0.000216870919440527,17.3635143866682
0.000232470786920338,17.3735143866682
0.000250557933032564,17.3835143866682
0.000271618998025437,17.3935143866682
0.000296300635875258,17.4035143866682
0.000325463888726597,17.4135143866682
0.000360266937178287,17.4235143866682
0.000402292227992724,17.4335143866682
0.000453745795991071,17.4435143866682
0.000513219257505627,17.4528647205029
0.000581083403360876,17.4614940001967
0.00065842354022926,17.4694540410403
0.000746532108477161,17.4767974951551
0.000846886691708645,17.4835733465527
0.000961162784136261,17.489827039444
0.00109125723458027,17.4956007506388
0.00123931722143906,17.5009336343655
0.00140777430157599,17.5058620412631
0.00159938271588281,17.5104197277848
0.0018172660332644,17.5146380582438
0.00206497158367027,17.5185461981909
0.00234653788770482,17.5221712994892
0.00266657767475987,17.5255386877958
0.00303038359762679,17.5286720585992
0.00344406623188103,17.5315936843224
0.0039147375461988,17.5343246442158
0.0044507651538473,17.5368850979874
0.0050621370860851,17.5392946314545
0.00576041287737324,17.5415709585961
0.00653252535834831,17.5436651137401
0.00738806007036232,17.5456125260842
0.00834178136985749,17.5474492131501
0.00941674381434276,17.5492135427148
0.010653921927487,17.5509552123499
0.0121677202329967,17.5527896594256
0.0144082015131394,17.555111717421
0.0159852769208023,17.5565695993293
0.0176565373099357,17.5580274812376
0.0191831242936608,17.5593316722691
0.0205417164520231,17.5605155984464
0.021759018435674,17.5616440241327
0.0228349736006748,17.56275999828
0.0237517548749964,17.5639024671329
0.0244730376800322,17.5651218430897
0.0249262112851091,17.5665125887568
0.0248906323239419,17.5683969678211
0.0243054241857878,17.570020383184
0.0233033073311052,17.5716437985468
0.0221588960984313,17.5730779799337
0.0208753980385592,17.574485403106
0.0194580630473829,17.5759299885828
0.0179162197770335,17.5774505045904
0.0168512835207865,17.5784960770352
0.0158077271418182,17.5795416494799
0.014746928766531,17.5806564537836
0.0123453962542879,17.5834309652943
0.0101899597677681,17.5863190467858
0.00848763134735944,17.5889816442422
0.00711690493729353,17.5914713221708
0.00592285543851517,17.5939884213572
0.0048741834371853,17.5965673756953
0.00395091916022645,17.5992319525068
0.00313721988160038,17.6020053650038
0.00247133958270896,17.6046857528388
0.00193347436318307,17.607219969716
0.00148928771867427,17.6096447476741
0.00111322266056908,17.6120035565274
0.000786630151713244,17.6143427310594
0.000495055857459566,17.6167179328712
0.000223879335283237,17.6192282754568
-5.76701782001745e-05,17.6222142058558
-0.000231270435386595,17.6242867563288
-0.000389900837004845,17.6263593068017
-0.000519764749734171,17.6281969320841
-0.000631178966254637,17.6298830450638
-0.00073455472253777,17.6315435522842
-0.000836737170185666,17.6332799036899
-0.000945398917348282,17.6352334564287
-0.00107803327494926,17.6377707638309
-0.00129049634954569,17.6421848687868
-0.00145847861853632,17.6459779172652
-0.00159724221573164,17.6493110063131
-0.00174218885907783,17.6529918605152
-0.00191594832896083,17.6577220684155
-0.0020971303289044,17.6633008925549
-0.00221762869798193,17.6681437952853
-0.00227420853332217,17.6725116835504
-0.00225578153531152,17.6764211749778
-0.00215437155849723,17.6799406015494
-0.00196365891855166,17.6831384841213
-0.00167685477128062,17.6860891388357
-0.00128547766337148,17.6888557154601
-0.000777278832954317,17.6914973583476
-0.000128172278947157,17.6940937760069
0.000711093657338562,17.6967605694767
0.00188094209340159,17.6997738482214
0.00336877698295109,17.7029626174501
0.00521304558775181,17.7063496158141
0.00648159085924866,17.7084228129518
0.00787906550619547,17.7104960100895
0.00930646436064989,17.7123973438602
0.010805950862804,17.7141757931654
0.0123624563285339,17.7158068960672
0.0140683435099887,17.7173764086078
0.0159330629704233,17.7188728619521
0.0180054858612183,17.7203167908667
0.0203076621768062,17.7217043958454
0.0228773018144613,17.7230412957987
0.0257486653910113,17.7243289445944
0.0289550263955866,17.7255675110464
0.0325440643203234,17.7267615151766
0.0365650373817144,17.7279136160346
0.0410749464860867,17.7290267565627
0.0461390081448287,17.7301038312729
0.0518385286460228,17.7311488177306
0.0582677794850847,17.7321653301628
0.0655400392880406,17.7331572010674
0.073793202211178,17.7341285715773
0.0831967470882316,17.7350839328799
0.093965608344234,17.7360285801343
0.106375455313446,17.7369686711528
0.120791229987238,17.7379118168648
0.137714950582783,17.738867982526
0.157875129621671,17.7398512205243
0.181307030459768,17.7408399385139
0.208521173957765,17.7418391948937
0.240313756897886,17.7428626329849
0.277827997398628,17.7439316410243
0.322159397467217,17.7450671119716
0.364814970405747,17.7460828558605
0.39997955581829,17.7468992338056
0.430220932388906,17.7476140528091
0.456658891058185,17.7482775246538
0.479519853857136,17.7489180081569
0.498573348315061,17.7495577682486
0.513155456244968,17.7502201609442
0.52190868625033,17.7509375701366
0.522000568915292,17.7517435564177
0.510960387621656,17.7525649693564
0.487561558019238,17.7534186129689
0.450154321511048,17.7543171797649
0.396851172821714,17.7552695304797
0.3515894881727,17.7559390326542
0.300802000397455,17.7566085348287
0.255634480705003,17.7571626766488
0.217198270766196,17.7576198393162
0.183589496086569,17.7580185506019
0.153561710223623,17.7583813602484
0.126383599193438,17.758721660341
0.10156842250243,17.7590487722804
0.0787349849831247,17.7593705738147
0.0575115044122661,17.7596956440193
0.0373813839292488,17.7600373260319
0.0170242040422332,17.7604318053749
0.00848030408044623,17.7606181390286
0.000605679865456435,17.7608044726823
-0.00733697027969883,17.7610102045794
-0.0138760866088322,17.7611964704466
-0.0198164364782833,17.7613823989936
-0.025798564578985,17.7615900806435
-0.0315745453192196,17.7618158968664
-0.036985131194104,17.7620576126174
-0.0419421029455147,17.7623144283543
-0.0463996282122535,17.7625864936197
-0.0503373325596152,17.762874635185
-0.0538309020312703,17.7631892797516
-0.056662277544881,17.7635119321485
-0.0589787750856109,17.7638559614442
-0.0607952295111885,17.7642244629454
-0.0621259653299356,17.7646210653183
-0.0629846791126658,17.7650502496498
-0.0633829294586865,17.7655176033588
-0.0633284741218184,17.7660301980177
-0.0628231222283928,17.7665972193255
-0.0618570493637578,17.7672323601831
-0.0604054651245592,17.7679533629591
-0.0584178452772771,17.7687870133754
-0.0557894740344593,17.769779314447
-0.0522558039823143,17.7710331253491
-0.0482082762184822,17.7724305520438
-0.0442928903426515,17.7737816335679
-0.0405592562077896,17.7750913707509
-0.0370314201086386,17.7763622187733
-0.0337215364890545,17.7775951132668
-0.0306347876867016,17.7787902187743
-0.0277716150507803,17.7799473262635
-0.0251289372964416,17.781066062245
-0.0227009561913786,17.7821459965245
-0.0204797795423391,17.7831866930003
-0.0184559501659139,17.7841877266302
-0.0166189127524451,17.785148679008
-0.0149574283837283,17.7860691193732
-0.0133920029938923,17.7869897548893
-0.0118863982420607,17.7879340014609
-0.0104450352674041,17.7889035034509
-0.00907184156709112,17.789900401847
-0.00777054428382082,17.7909272109655
-0.00654461794169833,17.7919869128132
-0.00539723249200731,17.7930830796897
-0.00433119910817012,17.7942200396166
-0.00334891363549234,17.7954031048423
-0.00245229716602516,17.7966388963093
-0.00164273249551414,17.7979358197497
-0.000920993953550115,17.799304792524
-0.000287165702682533,17.8007604089772
0.000259461375353736,17.802322928929
0.000705059681251599,17.8039565689714
0.00105288536037393,17.8056392197424
0.00131893804277968,17.8073892339839
0.00151765888213985,17.8092285929914
0.00166264320129543,17.8111868614244
0.00176707735751218,17.8133063480271
0.00184440909960218,17.8156530437973
0.0019096934901733,17.8183441822192
0.00198365791113227,17.8216432832846
0.00208145094613183,17.8253900646404
0.00220826510336634,17.8293036461133
0.00235426827482133,17.833106859693
0.00251580544312716,17.8368784965619
0.00268949843143185,17.8406744995298
0.0028731494139906,17.8445364682044
0.00306594673976595,17.8484990345302
0.00326834743249755,17.8525937039419
0.00348186772318149,17.8568511139547
0.00370887688590872,17.8613026277741
0.00395245800879104,17.8659816767841
0.00421642049005688,17.8709252273564
0.00450553847002008,17.8761750927746
0.00482612132350731,17.8817793181434
0.00515193385501866,17.8872161974352
0.00549132859048245,17.8925910251272
0.00584401155104876,17.8978525293444
0.00621429784948904,17.903021618405
0.00660584505897651,17.9081043610233
0.0070229537824751,17.9131114619954
0.00747003273491247,17.918049632255
0.00795180333407977,17.9229234281759
0.00847335201490193,17.9277349527176
0.00904025976447847,17.9324844331216
0.00965871092866138,17.9371705694663
0.0103356072414185,17.9417910044952
0.0110901331727138,17.9464094908197
0.0119406107113794,17.9510514461597
0.0129060198449113,17.9557225553702
0.0140135105587862,17.9604462733923
0.0153049362651861,17.9652766205788
0.0168590079721162,17.970349491389
0.0188909931428486,17.9761066634259
0.0207766325348274,17.9808556484775
0.0223848517444951,17.9846417009472
0.0240303370564085,17.9884277534169
0.0254461534759436,17.9917717271429
0.0266416570333608,17.9948389103318
0.0276303652646326,17.9977974703484
0.0283588926734979,18.0006127700095
0.0288206874491335,18.0033593037176
0.0290037674265775,18.0061641980246
0.0288536846219047,18.009225111063
0.0281403451246545,18.0131724321446
0.0273026247014495,18.0160260141513
0.0262459943073054,18.0188795961581
0.0251747871717381,18.0213926372117
0.0241055812227173,18.0237017364908
0.0230343978538949,18.0259028482833
0.0219627030436585,18.0280438000362
0.0208939117797681,18.0301523803508
0.0198317550771944,18.0322471587188
0.0187798252462671,18.0343417607788
0.0177414533599082,18.03644689101
0.0167196838244402,18.0385714305048
0.0157172788216687,18.0407230950406
0.0147367288962582,18.0429088675601
0.0137802687410632,18.0451352935089
0.0128498875248414,18.0474087116102
0.0119473403980975,18.0497354364813
0.0110741624289639,18.0521219079232
0.0102316725283488,18.0545748541631
0.00942099080179143,18.0571014172109
0.00862792359487463,18.0597620153598
0.00784703690992914,18.062602099561
0.00708208554395247,18.0656429681845
0.00633696140424755,18.0689096624115
0.00561579843136382,18.0724312003748
0.00492293495011416,18.0762413584141
0.00426285408180199,18.0803796317435
0.00364007500217628,18.0848925949727
0.00305895162165806,18.0898362967828
0.00252339465097745,18.0952805461509
0.00203653982614229,18.101316864642
0.00160599916803302,18.107976353429
0.00124301081749208,18.1151285760321
0.00101164048873851,18.1212352914403
0.000785593080013499,18.1292032949047
0.000604726300524825,18.1378617745924
0.000462695861284219,18.1472317181182
0.000356199494227736,18.1572317181182
0.00028338332919771,18.1672317181182
0.000234425063921314,18.1772317181182
0.000202179856376256,18.1872317181182
0.000181580915555379,18.1972317181182
0.000169138119915852,18.2072317181182
0.000162491063762292,18.2172317181182
0.000160054997595036,18.2272317181182
0.000160770824899538,18.2372317181182
0.000163940468176845,18.2472317181182
0.000169120813364509,18.2572317181182
0.000176054799547315,18.2672317181182
0.000184626319081127,18.2772317181182
0.000194831565085414,18.2872317181182
0.000206762835949692,18.2972317181182
0.000220602622721333,18.3072317181182
0.000236627021502344,18.3172317181182
0.000255218661834466,18.3272317181182
0.000276890698676377,18.3372317181182
0.000302325232824845,18.3472317181182
0.000332432215721268,18.3572317181182
0.000368439221255042,18.3672317181182
0.000412029868898849,18.3772317181182
0.000465242137586258,18.3871770127296
0.000526167470067787,18.3963787185008
0.000595646185500381,18.4048674952158
0.000674818351495232,18.4126982601849
0.000765011179616443,18.4199229349059
0.000867737264358901,18.426589699069
0.000984710497528516,18.4327432571857
0.00111787082083449,18.4384251068758
0.00126941419984899,18.4436737759473
0.0014418273712094,18.4485250374798
0.00163792741168616,18.4530121163434
0.00186090961659957,18.4571658887201
0.00211440408783001,18.4610150723315
0.00240254519614502,18.4645864103431
0.00273005845828223,18.4679048592215
0.0031023707545186,18.4709937855835
0.00352575511158723,18.4738751750418
0.0040075244620749,18.4765698671538
0.00455630123671718,18.4790978379246
0.00518240721913895,18.4814785606549
0.00589312013927155,18.4837162008276
0.00667906243407745,18.485778241923
0.00755053268986262,18.4876999748763
0.00852330718864279,18.4895172973826
0.00962244013100908,18.4912694306647
0.0108937049687282,18.4930093720009
0.012481568204405,18.4948800155205
0.0148929784414889,18.4973073932718
0.0164475877669597,18.4987113071301
0.0180781241744452,18.5001152209885
0.0195618523761721,18.5013790267552
0.0208883609159168,18.5025427743616
0.0220754825369004,18.5036627949262
0.0231182587334716,18.5047795994252
0.0239949154608556,18.5059332877024
0.0246630408149851,18.5071803593116
0.025033404954934,18.508638565714
0.0247580503635861,18.5108270135579
0.0240435051995931,18.5123452130833
0.0229972216156275,18.5138634126086
0.0218071238580881,18.5152748469466
0.0204768189061898,18.5166882240837
0.0190151767123416,18.5181528956684
0.0174309489834396,18.5197058944907
0.0163856621014013,18.520733710266
0.015378339230247,18.5217615260413
0.0129988145157171,18.5244112824033
0.0106997468247,18.5273675176532
0.00888900012351135,18.5300893810093
0.00744321442553241,18.5326171353333
0.00620805682489032,18.535123693749
0.00512496554349483,18.5376844385993
0.00417185971972706,18.5403249434591
0.00333202592660345,18.5430683609031
0.00261880537981504,18.545824271062
0.00204718584788063,18.5484219315148
0.00157929366015853,18.5508953631936
0.00118666519264209,18.5532877418549
0.000848951683095255,18.5556427818509
0.000551315138401399,18.558005944206
0.000281173897847033,18.5604406405031
2.10269313336623e-05,18.5631055328605
-0.000195098165979935,18.5656076540093
-0.000350530535766315,18.5675956094542
-0.000493710996478776,18.5695835648991
-0.000612088667632254,18.5713506826459
-0.000717076310232068,18.5730176491796
-0.000816967117584242,18.5746947885831
-0.000918249643646951,18.5764889286494
-0.00103018084073095,18.5785835172258
-0.00118317517921457,18.5816370492341
-0.00135398561232938,18.5853017184802
-0.00148877602040546,18.5883790452149
-0.00161556148040357,18.5914197416308
-0.00175407265420013,18.5949073303899
-0.00191937790335938,18.59933120894
-0.00211167458680127,18.6050666139163
-0.00224101940724103,18.6099767260724
-0.00230731166534574,18.6144114439958
-0.00229873707205945,18.6183799673304
-0.00220709051351828,18.6219465320788
-0.00202580532093036,18.625187539443
-0.00174819533637397,18.6281759061597
-0.0013667356559613,18.6309706701048
-0.000871164331463653,18.6336267339183
-0.0002419312249961,18.6362148216712
0.000566462619619276,18.6388524076008
0.00167559081012697,18.6417839684859
0.00311219832497148,18.6449347288398
0.0049058096729844,18.6482941091261
0.00622764608019293,18.6504923177818
0.00768781293865687,18.6526905264375
0.00912643722527869,18.654633457661
0.0105964143521561,18.6564040497028
0.0121427595584948,18.6580535201422
0.0138236859660855,18.6596297391973
0.015664085470198,18.6611367960972
0.0177064400648072,18.6625898791282
0.0199734489728698,18.6639859788286
0.0225034156713437,18.6653313562541
0.025327987764978,18.6666263690491
0.0284830718715456,18.6678725971322
0.032013981332871,18.6690738065328
0.0359689480719476,18.6702326182668
0.0404014491580758,18.671351402774
0.0453796422684943,18.6724341656431
0.0509811019002261,18.6734843600301
0.0572977199187773,18.6745055653045
0.0644398519527364,18.6755015896458
0.0725410841987263,18.6764764756958
0.0817666525856688,18.6774347536248
0.0923246317410195,18.6783816198179
0.104481316121471,18.6793231104585
0.118588074744697,18.6802666522597
0.13512597267824,18.6812219013671
0.154788764152246,18.6822023666204
0.177733169098268,18.6831918760444
0.204368743872228,18.6841906858787
0.235462323566499,18.6852119325744
0.272100924154033,18.686275802851
0.315745313671467,18.6874119405264
0.35026999860701,18.6882475550027
0.385963679753772,18.689083169479
0.417733273306182,18.6898287744349
0.445550726948139,18.6905102030691
0.469776768607559,18.6911586722983
0.490335707842078,18.6917976363171
0.506748726781796,18.6924491992531
0.517993573769724,18.693140674622
0.521941608696051,18.6939172584313
0.515480164580823,18.694731346776
0.497231309510995,18.695570925034
0.465709386384477,18.6964504433438
0.419106262102577,18.6973799639485
0.372126536186339,18.6981298293671
0.317674644530461,18.6988796947857
0.269391647662573,18.6994851348603
0.228965204840383,18.6999703036248
0.194000330145761,18.70038534942
0.162943843035155,18.7007584013104
0.134932033625178,18.7011051683869
0.109420097856427,18.7014359423903
0.0860049997107382,18.7017588447831
0.0643247228356265,18.7020819359782
0.0439407015097018,18.7024161976067
0.023975343751467,18.7027854595483
0.00854877029960823,18.7031124902027
-4.39725332643038e-05,18.7033169024815
-0.0078617163031171,18.7035213147604
-0.0143192660692131,18.7037069553391
-0.0202712576338155,18.703895081417
-0.0262398913529398,18.7041046056807
-0.0319856549029921,18.7043320242677
-0.0373567580724175,18.7045752433068
-0.0422694391592356,18.7048335553702
-0.0466805213449681,18.7051071734268
-0.050571238948552,18.705396973233
-0.054138730004672,18.705726320493
-0.0569034596991435,18.7060519905023
-0.0591536272596702,18.7063992191176
-0.0609058223256754,18.7067713465531
-0.0621743689534817,18.7071721006452
-0.0629727578569977,18.7076060858966
-0.0633121485016576,18.7080790518976
-0.0631996737836699,18.7085982912375
-0.0626359772332952,18.7091734843982
-0.0616096356963269,18.7098186986113
-0.0600934729318879,18.7105525176985
-0.0580324607021974,18.7114033340255
-0.0553111409163372,18.71242100677
-0.0516242979803256,18.7137229498056
-0.0475939563572256,18.7151131315261
-0.0437042613015032,18.7164580505162
-0.0400006669470246,18.7177620388575
-0.0365051088125271,18.7190272916133
-0.0332285617715301,18.7202546152245
-0.0301754314808913,18.7214441123329
-0.0273455893773593,18.7225955471595
-0.0247355136246823,18.7237085375835
-0.0223390623038884,18.7247826534852
-0.0201480808013488,18.7258174620554
-0.0181529214381114,18.7268125413536
-0.0163429028124793,18.7277674736098
-0.0147067170563886,18.7286818245746
-0.0131497745578855,18.7296058963331
-0.0116534078808332,18.7305537496747
-0.0102218708054341,18.7315271533023
-0.00885906522796413,18.7325282979387
-0.00756868429931127,18.7335597604864
-0.00635416099396995,18.7346246014657
-0.00521861581593052,18.7357264929865
-0.00416480226037117,18.736869891974
-0.00319504988345124,18.7380602803518
-0.00231120436369796,18.7393045076192
-0.00151456316601158,18.7406112962249
-0.000805804037573363,18.7419920181789
-0.000184900902168251,18.7434619504917
0.000348983876144456,18.7450424403124
0.000778879199502484,18.7466821478575
0.00111357554830969,18.7483736609689
0.001368721286962,18.7501354493394
0.00155861118353653,18.7519904174378
0.00169675014455092,18.7539696131848
0.00179631510636768,18.7561179623802
0.00187088457381593,18.7585066533471
0.0019359805317985,18.7612654616707
0.00201411694936042,18.7647022361215
0.00211593500226744,18.7684671183701
0.00224576960656873,18.7723509032144
0.0023944782897516,18.7761426817847
0.00255831444688485,18.7799151004575
0.0027340313695805,18.7837205091092
0.00291963107378751,18.7875987830597
0.00311450085931095,18.791583728461
0.00331927601815643,18.7957065411226
0.0035356270510658,18.7999978828798
0.00376605965199648,18.8044893950686
0.00401379551963549,18.8092150541113
0.00428281918252343,18.8142126339651
0.00457816940271993,18.819525005828
0.00490238890100641,18.8251297410637
0.00523074670600902,18.8305400766006
0.00557351675988227,18.8358922088675
0.00593015241344438,18.8411302670791
0.00630527284459539,18.8462786980527
0.00670256285704723,18.8513428780083
0.00712639726090232,18.8563332054217
0.00758125027193578,18.861255778763
0.00807193359959689,18.866114629887
0.00860364761390628,18.8709114054602
0.00918211249856913,18.8756459573785
0.00981367564258756,18.8803166932759
0.0105054311196001,18.8849211088157
0.011281412565785,18.8895474010938
0.0121568262185786,18.8941945916504
0.0131528042120658,18.8988753174149
0.0142989217094117,18.9036174473756
0.0156427133566588,18.9084875061542
0.0172794974294905,18.913658525441
0.0195129397349624,18.9197706455248
0.0212662386214984,18.9240743740787
0.0231184698881654,18.9283781026326
0.0246908718716467,18.9320139106922
0.0260055655718272,18.9352118338791
0.027109124033883,18.9382132339872
0.0279884067268998,18.9411165769102
0.0285979495863603,18.9438871651578
0.0289386672829722,18.9466421420538
0.0289841850587986,18.9495275412526
0.0286384305915874,18.952835803988
0.0278728596587906,18.9562272243507
0.0267547979136514,18.9596186447133
0.0256612062643818,18.9623321775504
0.0245900015264354,18.9647217385877
0.0235196420598764,18.9669640997774
0.0224478076031721,18.9691279951072
0.021377247033989,18.9712484789365
0.0203116377520541,18.9733475425643
0.0192546603721119,18.9754407112616
0.0182097708951232,18.9775398350633
0.0171801441717331,18.9796545174758
0.0161686686467857,18.9817929369109
0.015177956963691,18.9839623612087
0.0142103573222201,18.9861695017042
0.0132679692046691,18.988420762008
0.012352653159304,18.9907224416907
0.0114660407253482,18.9930809063206
0.0106095498923561,18.9955027241666
0.00978438754369352,18.9979948313939
0.00898700993784341,19.0005799904201
0.00820010094725148,19.0033361962838
0.0074274439787199,19.0062829531191
0.00667281623746779,19.0094437035487
0.00594024444505118,19.0128455744649
0.00523398079029024,19.0165200693542
0.0045584528613362,19.0205039440477
0.00391818088353281,19.0248403469211
0.00331762545753716,19.0295806215387
0.00276093714309041,19.0347876129034
0.00225164238855441,19.0405416922906
0.00179237320741949,19.0469509781746
0.00139968206539989,19.0538693141932
0.00107879093469977,19.0613305986115
0.000831931031062598,19.0693717448924
0.000653356572338023,19.077282473771
0.000497931457731332,19.0866095299236
0.000380404332013004,19.0966095299236
0.000299671805519049,19.1066095299236
0.000245093417963473,19.1166095299236
0.000208908858744526,19.1266095299236
0.000185556967593553,19.1366095299236
0.000171171893764115,19.1466095299236
0.000163126887133057,19.1566095299236
0.000159656166447746,19.1666095299236
0.000159578286863725,19.1766095299236
0.000162110603408111,19.1866095299237
0.000166749444443629,19.1966095299237
0.000173192666428188,19.2066095299237
0.000181289053244238,19.2166095299237
0.000191005740757024,19.2266095299237
0.000202408910183121,19.2366095299237
0.000215655164510988,19.2466095299237
0.000230992320959643,19.2566095299237
0.00024876947646368,19.2666095299237
0.000269457463664113,19.2766095299237
0.00029368245188693,19.2866095299237
0.000322277807718831,19.2966095299237
0.000356363042436207,19.3066095299237
0.000397464919266689,19.3166095299237
0.000447706858124837,19.3266095299237
0.000506217419061049,19.3360396879494
0.000573013293949957,19.3447458635125
0.000649142749855323,19.3527770169509
0.000735875665474914,19.3601860805017
0.000834666890382854,19.3670224122417
0.000947167013324825,19.3733318069874
0.00107524487452745,19.3791567673196
0.00122101587867304,19.3845367510048
0.0013868754583676,19.3895083913482
0.00157553667396096,19.3941057069563
0.00179007585129457,19.3983603039547
0.00203398574195202,19.4023015701105
0.00231124142836132,19.4059568599419
0.00262638083361145,19.4093516811302
0.00298460743322098,19.4125098889438
0.00339192357022124,19.4154538912227
0.00385530712949264,19.4182048740121
0.00438295545686658,19.4207830680025
0.00498463326398866,19.4232080824572
0.00567219120771915,19.4254993565227
0.00643480324995644,19.4276121619849
0.00727941538097446,19.4295739875033
0.00822000276597558,19.4314206383907
0.00927821015323078,19.4331897685189
0.0104917230037341,19.4349286553449
0.0119555993907556,19.4367343039857
0.0140377828102257,19.4389357498487
0.0156273450111424,19.4404299024411
0.017326451969031,19.4419240550336
0.0188983524634283,19.4432658479972
0.0202902515787039,19.4444676027724
0.0215375106440982,19.4456027034538
0.0226449994267886,19.4467173083024
0.0235982505699836,19.4478499833659
0.0243654255324987,19.449047151668
0.0248846000910159,19.4503888806445
0.0249932339896274,19.4521046665175
0.0245012460432576,19.4538420825491
0.0235044878761817,19.4555794985808
0.0223747829989161,19.4570374639848
0.0211116723650642,19.4584439373279
0.0197138094415206,19.4598794859056
0.0181899180094649,19.4613852504344
0.0165464137424506,19.4629991980752
0.0151480565589556,19.4644290511826
0.0127404677081845,19.4671473717851
0.0104970138972618,19.4700788537665
0.0087297920034342,19.472776980382
0.00731405865988441,19.4752894298624
0.00609522327493098,19.4777999540981
0.00502576154768757,19.480367712625
0.004084457924586,19.4830175342929
0.00325495247146815,19.4857725831669
0.00256201914686702,19.4884927422828
0.0020046609767522,19.4910602584452
0.00154667015808547,19.4935099277334
0.00116088922292642,19.495884821218
0.000827697171230135,19.4982297677373
0.000532407311124284,19.500594626385
0.000261617844941313,19.5030572947046
-6.73414680257709e-06,19.5058395018043
-0.000201485430970578,19.5081148509044
-0.000377694244254984,19.5103902000045
-0.000514125829341872,19.5123104562561
-0.00062753373633761,19.5140213915185
-0.000731039062269769,19.5156795443548
-0.000831905961652727,19.5173881590849
-0.000937118473797527,19.5192710708628
-0.00105983011883118,19.5215996028665
-0.00127919090073819,19.5261161758253
-0.00146663162227592,19.530330843517
-0.00161546110835373,19.5339069928544
-0.00176470494124271,19.5377035784479
-0.00194292766374298,19.5425696117676
-0.00212092025336229,19.5480907015319
-0.00223860681184605,19.5529080669384
-0.002291248622869,19.5572467231317
-0.00226792290967335,19.5611338421662
-0.00216080561216456,19.5646317121649
-0.00196345813484917,19.5678163975323
-0.00166906147796487,19.5707589661005
-0.00126954401741581,19.5735184692903
-0.000753127157884993,19.576152598085
-9.59747520171578e-05,19.5787408983559
0.000755603921173999,19.5814120815348
0.00193989389940202,19.5844295344396
0.00344501408476339,19.5876262784876
0.00530474163503509,19.5910145769288
0.00657361305226599,19.5930722470771
0.00797191186312896,19.5951299172254
0.00942218938911773,19.5970451932345
0.0108998415889495,19.598782477497
0.0124697798572334,19.6004142955616
0.0141926317389126,19.6019855740457
0.0160701410738674,19.6034784954592
0.0181575710421282,19.604919372971
0.0204758475789906,19.6063035987932
0.0230635778257535,19.6076372753645
0.0259554050591551,19.6089219334914
0.0291846243906864,19.610157648863
0.0327995068857241,19.6113490204344
0.0368498234801372,19.6124987222136
0.0413933649329038,19.613609751563
0.0464956697021973,19.6146849142667
0.0522390722889165,19.6157282274608
0.0587190107802055,19.6167433242481
0.0660502398140491,19.6177340575957
0.0743725889336346,19.6187045979241
0.0838583893546246,19.6196595032001
0.0947258703307075,19.6206040945739
0.10725608982652,19.6215446403077
0.121821974888798,19.6224889043796
0.13893844866738,19.6234471076397
0.15935702279084,19.6244337770594
0.183026035564465,19.625423511621
0.210526289749581,19.6264247174332
0.242673549468448,19.6274514893291
0.280651011578989,19.628526228256
0.325242487130863,19.6296625973809
0.367134620301123,19.6306586145258
0.401833615771744,19.6314657398858
0.431757811720695,19.6321764888898
0.457918956842623,19.6328382936529
0.480501161779436,19.6334787032566
0.499245267263011,19.6341198351488
0.513451854483438,19.6347853248056
0.521696253298476,19.635508548793
0.521068962001663,19.6363154743731
0.509251373288525,19.6371389024522
0.484988412215443,19.6379953788041
0.446611860919493,19.638897264071
0.392232887736024,19.6398533068159
0.347406459015416,19.6405092120752
0.297365501744813,19.6411651173345
0.252815989951717,19.6417105221819
0.214787436234788,19.6421628725182
0.181466749058733,19.6425587845287
0.151662144239121,19.642919882421
0.124666806279972,19.6432591651599
0.100005190443815,19.6435857914128
0.0773003196230001,19.6439076125574
0.0561778479205232,19.6442333459294
0.0361019577464177,19.6445769283314
0.0156258363418731,19.6449781025877
0.00130260071837998,19.6453043801045
-0.00600608372853602,19.6454915154435
-0.0126856971197792,19.6456786507826
-0.0185670539399569,19.6458593650463
-0.0245597641045815,19.6460629327065
-0.0303920401826948,19.6462853554803
-0.0358847726944208,19.6465240067746
-0.0409379433045623,19.6467778375424
-0.0454987174370703,19.6470468302301
-0.0495424776173274,19.647331686693
-0.053055049084765,19.6476336745635
-0.0560425397907963,19.6479559296826
-0.0584717275516545,19.64829509343
-0.0603974779233969,19.6486579741748
-0.061834434948087,19.6490480846357
-0.0627965581362793,19.6494696975329
-0.0632960103020805,19.6499281259906
-0.0633415518190656,19.6504300683132
-0.0629365762645488,19.6509841376081
-0.0620743348045245,19.6516029348996
-0.0607339209835979,19.6523030405474
-0.0588721081340061,19.6531086737038
-0.0564007999393848,19.6540599433504
-0.0531119930903154,19.6552396266244
-0.049045107424773,19.6566491920648
-0.0450966683896444,19.6580096780138
-0.0413223521059303,19.6593279329581
-0.0377499306548359,19.6606069150856
-0.0343935456045493,19.6618478130611
-0.0312596283985723,19.6630509181257
-0.0283495068296821,19.6642160814882
-0.0256607713940064,19.6653429549779
-0.0231881434339756,19.6664311160241
-0.020924127420821,19.6674801283484
-0.0188595563729986,19.6684895649523
-0.0169840708885932,19.6694590076012
-0.0152865445538407,19.6703880305856
-0.0137092294500202,19.671303836563
-0.0121906451787811,19.672243019314
-0.0107354563896619,19.6732070471585
-0.00934762550485632,19.6741979929977
-0.00803092642608068,19.6752182854677
-0.00678889103278664,19.6762707992584
-0.00562475772938192,19.6773589705356
-0.00454141770822507,19.6784869519909
-0.00354135891610498,19.6796598258881
-0.00262660730549164,19.6808839047123
-0.00179866430769059,19.6821671690628
-0.00105843835104628,19.6835199301727
-0.000406166165856456,19.6849558802657
0.000158684615710345,19.6864938590772
0.000627114906595381,19.688119522516
0.000994057973622731,19.6897903232186
0.00127605759867699,19.6915245586946
0.0014877757471,19.6933430046751
0.00164295492323701,19.6952733186219
0.00175482372501931,19.6973544984873
0.00183669947257927,19.6996461231529
0.00190311867208757,19.7022506065539
0.00197292077928354,19.7053837080061
0.00206637083409993,19.7091179775628
0.00218924694868859,19.7130646912159
0.00233183035456159,19.7168814069157
0.0024907320685509,19.7206539399703
0.0026624301540688,19.7244421824099
0.00284446083439175,19.7282896023065
0.00303574490565354,19.7322317324204
0.00323650914672831,19.7363004393774
0.00344808562496238,19.7405263822127
0.00367270054756644,19.7449406948316
0.00391331597998346,19.7495763291358
0.00417360876703299,19.7544695103776
0.0044581608958624,19.7596610779858
0.00477296491888683,19.7651978703217
0.00509856376757974,19.7706730073365
0.00543556391331131,19.7760561373763
0.00578603422690116,19.7813366917256
0.00615327297957733,19.7865200471342
0.00654115467147899,19.7916162375016
0.00695385972669932,19.7966350610954
0.00739578850658807,19.8015840036179
0.0078716091938763,19.8064679697127
0.00838634618245808,19.8112894550661
0.00894549551180715,19.8160489717586
0.00955513874968261,19.8207454453289
0.0102220544966762,19.8253766495866
0.0109622804093815,19.8299898045546
0.0117962016137088,19.8346284735351
0.0127414138813397,19.839293664713
0.0138236274285701,19.8440063864754
0.015081420352696,19.8488135057309
0.0165845813996977,19.8538309903058
0.0185086033584226,19.859411443646
0.0209824851079859,19.8656789880084
0.0225539673185065,19.8693607375412
0.0241539238789079,19.8730424870739
0.025548803083704,19.8763518005009
0.0267277072726474,19.8794047887316
0.0276995532042659,19.8823604836456
0.0284062867854449,19.8851661908107
0.0288461543770396,19.8879123670491
0.0290049553840607,19.8907289358677
0.0288224546996687,19.8938259149802
0.0280273318691852,19.8979403745758
0.0271761605345604,19.9007259602079
0.026122590846513,19.90351154584
0.0250530372607712,19.9059914111737
0.0239837748826388,19.9082844819567
0.0229124169360232,19.910476855692
0.0218408822329431,19.9126129436296
0.0207726731824835,19.9147191219457
0.0197115182598212,19.9168132439962
0.0186609835634324,19.9189085249205
0.0176243679099736,19.9210154173606
0.0166046836418441,19.9231426408521
0.0156046610370077,19.9252978094156
0.0146267611699975,19.9274878415253
0.0136731905288651,19.9297192470575
0.012745910284831,19.9319983542057
0.011846651849669,19.934331478186
0.0109769241073624,19.9367250850154
0.010138022177878,19.9391859423959
0.00933104502997225,19.9417212433962
0.00853916029258149,19.9444011600158
0.00775989098301368,19.9472627359888
0.00699698309470012,19.9503277412821
0.00625435725707253,19.9536216304003
0.00553617355807755,19.9571739110707
0.0048467884822568,19.9610189598512
0.00419069693854821,19.9651969850282
0.00357241254601117,19.969755472206
0.00299625272190377,19.9747517679308
0.00246605749830482,19.9802576423579
0.00198485981280783,19.9863677453654
0.0015622513820542,19.9930779859878
0.00128962873523379,19.9984346621291
0.00122035574681011,20
