ecg,time
0.000211787205997856,15.0062607109647
0.00018869403763065,15.0162607109647
0.000175180655403192,15.0262607109647
0.00016850695924202,15.0362607109647
0.000166839629692944,15.0462607109647
0.000168978243567912,15.0562607109647
0.000174157000252131,15.0662607109647
0.000181914802317247,15.0762607109647
0.000192014596031645,15.0862607109647
0.000204394976868713,15.0962607109647
0.000219143464101549,15.1062607109647
0.000236486294996266,15.1162607109647
0.000256793124041005,15.1262607109647
0.000280597474688135,15.1362607109647
0.000308636264259807,15.1462607109647
0.000341915167223993,15.1562607109647
0.000381812117348516,15.1662607109647
0.000430240778836213,15.1762607109647
0.000486502618941189,15.1857345362105
0.000550407934160952,15.1944957540885
0.000622869957522621,15.2025899366005
0.000705020727289324,15.2100679269617
0.000798165361965701,15.2169772465724
0.000903786991778291,15.2233620606103
0.00102356563739629,15.2292634407908
0.00115940322065603,15.2347195982897
0.00131345368085887,15.2397660775544
0.00148815539406131,15.2444359448162
0.00168627124583814,15.2487599733512
0.0019109334144208,15.2527668216841
0.00216569928177109,15.2564831928137
0.00245461644024861,15.2599339918199
0.00278230565047572,15.2631424926998
0.00315406524650866,15.2661305097966
0.00357600460090213,15.2689185733732
0.00405522349506893,15.2715261305797
0.00460005718344003,15.2739717840721
0.00522042386354537,15.2762735864365
0.00592734442170445,15.278446646676
0.00670714972380086,15.280443842012
0.00756867018732427,15.2822978343995
0.00852529345733762,15.2840412969911
0.00959721993198768,15.2857077363338
0.0108184616213879,15.2873376056346
0.012283700446637,15.2890228376279
0.0142721052965979,15.2909880584509
0.0160008216050788,15.2924981887789
0.0178737551377639,15.294008319107
0.0196033667987592,15.2953456811489
0.0211204638532163,15.296519631315
0.0224809685556191,15.2976169311464
0.02369800552196,15.2986870769544
0.0247610861453252,15.2997678712329
0.0256421948997531,15.300901739153
0.0262870212504684,15.3021568345992
0.0265662769426874,15.3037056606139
0.0262131586559429,15.305468136223
0.025253826443033,15.3072306118321
0.0241289674583311,15.3086707405218
0.0228598675059036,15.3100443090201
0.0214418537499597,15.311444581294
0.0198830598147683,15.3129152073567
0.0181900185878276,15.3144946148251
0.0168014974955198,15.3158189918031
0.015490864321495,15.317143368781
0.0129950799328755,15.3199342101585
0.0109277005424381,15.322606479558
0.00923151220373417,15.3251462635881
0.007826016251875,15.3275826331109
0.00664445912817033,15.3299520050804
0.00563048665560963,15.3323055938483
0.00473037533794441,15.3347340650813
0.00388184363895026,15.3374284471661
0.00313849766604819,15.3402459011013
0.00272457533458403,15.3420705136157
0.00235681008795268,15.3438951261302
0.00205206454735886,15.3455901235579
0.00178495217249712,15.3472466513277
0.00153659145716847,15.3489653484894
0.00129101027426352,15.3508775955659
0.00102186658080044,15.3532895341663
0.000670984002474902,15.3571438846559
0.000417869747715277,15.3607107782679
0.000238829049320942,15.3639071091982
8.77040215707337e-05,15.3673658934553
-4.77126957900895e-05,15.3716734628516
-0.000146309390020449,15.3772291015166
-0.00016256351088129,15.3820479330445
-0.000113803092228026,15.3864416873036
-4.4981669258578e-06,15.390411703788
0.000164384005461878,15.3940034811456
0.000394360341474194,15.3972647941244
0.000688631960130993,15.4002415731902
0.00105239941244975,15.4029816774121
0.00149415038894782,15.4055370706337
0.00202703346329552,15.4079614239181
0.00267268029635149,15.4103162201129
0.00347228067587605,15.4126892873265
0.00448883708611812,15.4151716498255
0.00582940259748251,15.4178838868709
0.00747882820632615,15.4206691319785
0.00915921885415997,15.4230732560294
0.010767699662972,15.4250564556308
0.0123814951553949,15.4267868905277
0.0141143581532754,15.4284036190136
0.0159738832883559,15.4299083847305
0.0180305119759167,15.4313476651358
0.0203130230598422,15.4327246448887
0.0228583062817779,15.4340455703666
0.0257112911227468,15.4353175988408
0.0289071938077838,15.4365409879115
0.0324984009620019,15.437721203675
0.0365353134975535,15.4388604168373
0.0410759771813004,15.4399612389224
0.0461923195033456,15.4410274933385
0.0519655167042698,15.4420623799839
0.0584910630896895,15.443069193004
0.065884402227269,15.4440516263454
0.0742879307074819,15.4450139209161
0.0838756994731313,15.4459605318659
0.0948662997156941,15.4468965336554
0.10754029828774,15.4478279085412
0.122266684079103,15.4487619458572
0.139551569911629,15.4497082154619
0.160122145434243,15.4506800016727
0.18406995434128,15.4516583769096
0.211873607778601,15.4526462314065
0.244327479560385,15.4536564240691
0.282563821494601,15.4547091611037
0.32820685259607,15.4558372187106
0.362739279421914,15.45663383606
0.398242592246484,15.4574304534094
0.429834460161958,15.4581453617431
0.457511073357149,15.4588034645318
0.481588515106722,15.4594343709694
0.501937003015527,15.4600611661205
0.517994570890307,15.4607069678532
0.528563051574206,15.461402789291
0.531009644450738,15.4621986332775
0.522365885210179,15.4630082502585
0.501471728740987,15.46384974187
0.466681780875019,15.4647373863291
0.416024771168239,15.4656808350391
0.368276913483982,15.4664039963795
0.313715918821457,15.4671271577199
0.265559609687711,15.4677139469186
0.225171493443764,15.4681877416128
0.19019595346043,15.4685951783773
0.159117113059656,15.468962674063
0.131082419797804,15.4693052155259
0.105547373301229,15.4696327895544
0.0821032594936432,15.469953452815
0.0603737437707577,15.4702754754143
0.0398804902381568,15.4706107273256
0.0195721542909267,15.4709873675688
0.00300168815460961,15.4713437352407
-0.0047997310027678,15.4715333465603
-0.0119282285263758,15.47172295788
-0.0180912545841496,15.471902674211
-0.0241224959510575,15.4720964218773
-0.0300839761302136,15.4723101650188
-0.0357628629498279,15.472540816424
-0.0410322119162917,15.4727868137292
-0.0458230496527926,15.4730477904658
-0.0501010473500315,15.4733241910569
-0.05385155279041,15.4736170680807
-0.0572961712929038,15.4739537210215
-0.0599123729567498,15.474283863199
-0.0620149180693221,15.4746363330855
-0.0636211413414096,15.4750147193835
-0.0647453844805449,15.4754230106672
-0.0654006276953389,15.4758661501368
-0.0655969374264059,15.4763503440609
-0.0653396167561023,15.476883524676
-0.0646257281415376,15.4774767446136
-0.063438860663595,15.4781452964984
-0.0617435832993756,15.4789104484918
-0.0594684008527041,15.4798060190596
-0.056455326346508,15.4808961516024
-0.0523141530738629,15.4823271781999
-0.0482706189172174,15.4837038840194
-0.0443878474498153,15.4850374393163
-0.0407003550542951,15.4863314717888
-0.0372258862143489,15.4875874900739
-0.0339731995931518,15.4888059290644
-0.030945336856457,15.4899866926107
-0.0281412339638587,15.4911294392977
-0.0255566854419278,15.4922337319926
-0.0231850380997602,15.4932991126759
-0.0210177593273377,15.4943251341487
-0.019044934546956,15.4953113653213
-0.0172557111529958,15.4962573791977
-0.0156374447910499,15.4971634486576
-0.0140753325675847,15.4980924568578
-0.0125745442579895,15.4990455158523
-0.0111390864788561,15.5000245675588
-0.00977279795427084,15.5010318763709
-0.00847929210529474,15.5020701123013
-0.00726190531533645,15.5031424532472
-0.00612364244718111,15.5042527212041
-0.00506711955242362,15.5054055675338
-0.00409450324728365,15.506606731304
-0.00320744553938197,15.507863410233
-0.00240701168077315,15.5091848123188
-0.00169359636184312,15.5105830119151
-0.00106681906820306,15.5120743508914
-0.000525379493580646,15.5136818944663
-9.17407678476386e-05,15.5153309757723
0.000250625124189106,15.5170360274764
0.000517105881592841,15.5188158020566
0.00072205193362608,15.5206946609141
0.000879191352666852,15.5227060316637
0.0010021953755589,15.5248991171685
0.00110565358792716,15.5273538474682
0.00120737722851296,15.5302221966015
0.00133722080321794,15.5339002713607
0.00148810835432104,15.5377065335652
0.00168304451285014,15.5419873032483
0.00193368848197966,15.5469246229934
0.00216353810755852,15.5511823286714
0.00238331642066176,15.555151498093
0.00259896793619118,15.5590072955468
0.00281412501501566,15.562836966416
0.00303187422534297,15.566696073488
0.00325522018394245,15.5706263157976
0.00348724059530987,15.5746628771408
0.00373113908489132,15.5788376676763
0.00399034418403839,15.5831819562225
0.00426861652873291,15.5877278704994
0.00457024787263495,15.5925098339472
0.0049004070160137,15.5975658814878
0.005265727990005,15.6029388611793
0.00563917738074932,15.6081785382007
0.0060295113763011,15.6133779541497
0.0064363284426075,15.6184885870422
0.00686394951474245,15.6235212851567
0.00731660800020073,15.628479205502
0.00779933957828661,15.6333691169571
0.00831760421902101,15.6381960413859
0.00887732532895335,15.642963017078
0.00948494724563053,15.6476710114489
0.0101475467786141,15.6523193701049
0.0108812779990958,15.6569564892692
0.0117062650795215,15.6616258050296
0.0126400646481691,15.6663295832076
0.0137082994133074,15.6710902725876
0.0149493673684364,15.6759565653396
0.0164327621611824,15.6810481893068
0.0183340919759507,15.6867311466766
0.0207562929201755,15.693073862877
0.0222966196652302,15.6968147400126
0.0238609426474131,15.7005556171481
0.0252214585536793,15.703920106962
0.0263683419422762,15.7070280485422
0.0273093015234674,15.7100404519159
0.0279878484819501,15.7129070204382
0.0283999650496956,15.7157164282624
0.0285298859603737,15.7186034582828
0.0283134984617052,15.7217910918971
0.027449340528223,15.7261083940868
0.0265805985631264,15.7289205128533
0.0255206329659935,15.7317326316198
0.0244463495598003,15.7342525518656
0.0233729507857342,15.7365928549437
0.0222986043346275,15.7388359845475
0.0212253713371965,15.7410253557347
0.020156751136188,15.7431871685641
0.0190964498996119,15.7453393522778
0.0180480169445486,15.7474952974913
0.0170147454206194,15.7496656772049
0.0159996493382628,15.7518594623801
0.0150054669853359,15.7540845399346
0.0140346722546887,15.7563481187376
0.013089483627644,15.7586570249718
0.0121718773711361,15.7610179172899
0.011283596942361,15.7634374678714
0.0104261585922757,15.7659225308882
0.00960086819230907,15.7684802688328
0.00880882206376813,15.7711183237469
0.00803943968795995,15.7738879898448
0.00728455047174497,15.776846378165
0.0065479764846268,15.7800156010753
0.00583359523406575,15.7834217955689
0.00514547186444696,15.7870952048007
0.00448781231343697,15.7910709454592
0.00386486889750839,15.7953901156466
0.00328079217351541,15.8001015046602
0.00273942013008146,15.8052644840598
0.00224397265798152,15.8109546638188
0.00179687365411635,15.817272207777
0.00140508608696198,15.8242459423793
0.00107690724592294,15.8317701937602
0.000817197431962493,15.839958678835
0.000646560639779668,15.8475749057885
0.000499177343010629,15.8565146025018
0.000386780180167477,15.8660279876047
0.000304497907012694,15.8760279876047
0.000248919118527186,15.8860279876047
0.000212432774324988,15.8960279876047
0.00018946463467529,15.9060279876047
0.000176043970091766,15.9160279876047
0.000169442551345608,15.9260279876047
0.000167837135254473,15.9360279876047
0.000170033409787616,15.9460279876047
0.000175268993505012,15.9560279876047
0.00018308507914978,15.9660279876047
0.00019324667267149,15.9760279876047
0.00020569456219378,15.9860279876047
0.00022051874855529,15.9960279876047
0.000237948397525303,16.0060279876047
0.000258356784320763,16.0160279876047
0.000282282116138233,16.0260279876047
0.000310467607117442,16.0360279876047
0.000343927678244316,16.0460279876047
0.000384052782987422,16.0560279876047
0.000432775056105686,16.0660279876047
0.000489228490927754,16.0754752064328
0.000553334114310313,16.0842112456223
0.000626013404056574,16.0922825276598
0.000708401628495972,16.0997397058735
0.000801806489131297,16.1066300979055
0.000907713682182494,16.1129976877429
0.00102780604310282,16.1188833858772
0.00116398868795874,16.1243252587454
0.00131841919386582,16.1293587200832
0.00149354002744571,16.1340167180985
0.00169211876070463,16.1383299194044
0.00191729289050897,16.1423268856575
0.00217262582637486,16.1460342313487
0.00246217213500921,16.1494767808678
0.00279056056352418,16.1526777347446
0.00316309880093482,16.1556588400592
0.00358590721945637,16.1584405654582
0.00406609871610713,16.1610423017682
0.0046120245368669,16.1634825999796
0.00523362274400774,16.1657794652321
0.00594158426015267,16.1679469819588
0.00672248897380937,16.1699392366595
0.00758518900174023,16.1717888033531
0.00854308907399743,16.1735282438859
0.00961641525984861,16.1751909621972
0.0108392233142921,16.1768173039221
0.012307214649194,16.178499955143
0.01429960112842,16.1804623907613
0.0160306993055659,16.181969480685
0.017906126985753,16.1834765706087
0.0196387405237289,16.1848117908872
0.0211586479394898,16.1859839789502
0.022521786629152,16.1870796926515
0.0237413067237463,16.1881483550004
0.0248067159584044,16.189227731662
0.0256899695510456,16.1903602299546
0.0263366818041812,16.1916140208432
0.0266172890135535,16.1931618474667
0.026264601971452,16.1949218942964
0.0253052956823057,16.1966819411262
0.0241798947829635,16.1981205412272
0.0229097413132388,16.1994930062444
0.0214902152948826,16.2008924175563
0.0199294462736986,16.2023624061154
0.0182339338518303,16.2039414381463
0.0168495827354838,16.2052591943327
0.0155423675194391,16.2065769505191
0.0130212728183849,16.2093902700763
0.0109356909191532,16.2120836029485
0.00922743569881537,16.2146421916163
0.00781443813235401,16.2170951037282
0.00662882622221442,16.2194785743048
0.00561361594534695,16.2218431273797
0.0047151782910143,16.2242770387377
0.00386974270543488,16.2269737342051
0.00312927609957369,16.2297939598328
0.00271295554337553,16.2316398277779
0.00234362544068648,16.233485695723
0.0020390899874112,16.235194215792
0.00177341485991505,16.2368575147983
0.00152740660904684,16.238576903504
0.00128536548589226,16.240480352289
0.00102273396237098,16.2428546631935
0.000674205499414793,16.2467150999232
0.000420159496659479,16.2503359678483
0.000242961423265192,16.2535490093532
9.50929276423776e-05,16.2569965243497
-3.61410514300127e-05,16.2612627410291
-0.000131401153293874,16.2668211641179
-0.000144598768981371,16.2716384054312
-9.28861672119245e-05,16.2760327088053
1.93225615699802e-05,16.2800043857202
0.000191108107873156,16.2835987706833
0.000424010706769565,16.2868632261572
0.000721193510286598,16.2898429281539
0.00108785191655703,16.2925856610314
0.00153240193132631,16.2951428367601
0.00206770233352073,16.2975668753282
0.00271450733480527,16.2999166965235
0.0035120535109284,16.3022760443065
0.00451888848797163,16.3047286412912
0.00582917173625436,16.3073766281074
0.00743489454174295,16.3100895142165
0.00910932442637124,16.3124872422447
0.0107282998164727,16.3144833264473
0.0123526581715918,16.316223804569
0.0140921909725516,16.3178453079728
0.0159590536155482,16.3193549121108
0.0180192728201112,16.3207960176298
0.020307548408522,16.3221762118272
0.0228541518507027,16.3234978897651
0.0257078788736433,16.32477068483
0.0289034197600923,16.3259946361371
0.0324938146927667,16.327175464541
0.0365304596701178,16.3283155758539
0.0410698286325688,16.3294171002802
0.0461847855159482,16.3304841061667
0.0519566637782339,16.3315197968806
0.0584816064976387,16.3325275402436
0.0658743371096217,16.3335108921095
0.0742780126424573,16.3344741812623
0.0838671825871213,16.3354218866137
0.0948612172303265,16.336359117142
0.107541985851588,16.3372919089709
0.122281018261075,16.3382276530159
0.139588187634679,16.3391760332848
0.160199397330315,16.3401506125588
0.184166970494527,16.3411307503214
0.211999869326238,16.3421208366442
0.244499781187132,16.3431339877645
0.282814692387236,16.34419091455
0.328381768897154,16.3453202192904
0.371479527367148,16.3463139915505
0.406803475852223,16.3471096758417
0.437158867278072,16.3478074242233
0.463701149994941,16.3484569223516
0.486650760340446,16.3490861758019
0.505755503290208,16.349717589679
0.520304264437666,16.3503754889379
0.528816508217991,16.3510953805649
0.528252508818624,16.3518944228203
0.516349777108035,16.3527121712112
0.491814618191096,16.3535657587639
0.452900052555943,16.3544680688645
0.397612377044508,16.3554277949566
0.351603226344465,16.3560921263709
0.30018070900663,16.3567564577851
0.254585293451569,16.3573062392608
0.215842873808317,16.3577600184075
0.181999930651174,16.3581559637746
0.151784334407548,16.3585164315497
0.124450147254654,16.3588547192394
0.0995007000627515,16.3591801122228
0.0765460853442064,16.3595005103456
0.0552031371642717,16.359824624293
0.0349295020612899,16.3601662919163
0.0142772308985306,16.3605646833028
0.00664453503981288,16.3607300669995
-0.000450964152406229,16.3608954506961
-0.00845713880089342,16.3610986789667
-0.0151051124067224,16.3612841522583
-0.0210505821163553,16.3614662480597
-0.0270724307896454,16.3616704833889
-0.0329100239531961,16.3618930954634
-0.038393479121039,16.3621316793175
-0.0434281726681432,16.3623853207794
-0.0479644516348706,16.3626540875499
-0.051979646784167,16.3629387410584
-0.0554599431795221,16.3632405965021
-0.058383408674224,16.3635592035733
-0.0607825441629679,16.3638982478421
-0.0626772008821068,16.3642612305333
-0.0640817908342482,16.3646516796001
-0.0650102398691724,16.3650739430715
-0.0654745108954988,16.3655334372936
-0.065482950190806,16.3660370063278
-0.0650382360611065,16.3665934775991
-0.0641321966986484,16.3672158816546
-0.0627418705648186,16.3679213049997
-0.0608201814773163,16.3687350617279
-0.0582705213783335,16.3696997842225
-0.0548579830538372,16.3709066835285
-0.0507492274316951,16.3723141406766
-0.0467626549733089,16.3736739848955
-0.042952437960215,16.3749922759909
-0.0393454871399469,16.3762717114664
-0.0359556395539675,16.3775133336817
-0.0327892516788742,16.3787173470317
-0.0298476723762013,16.3798835486513
-0.0271285495844119,16.3810115551612
-0.0246266706121855,16.3821009202059
-0.0223346005328823,16.3831511910603
-0.0202432214724676,16.3841619293296
-0.0183422093435444,16.3851327091371
-0.016620459307632,16.386063100157
-0.0150234399035804,16.3869780340603
-0.0134846369177079,16.387916310195
-0.0120087442665227,16.3888793664337
-0.0105997081545442,16.3898692636198
-0.00926128416840275,16.3908884155091
-0.00799698234904199,16.3919396784093
-0.00681001435035615,16.3930264654068
-0.00570323784110233,16.3941528997058
-0.00467909793482038,16.3953240251456
-0.00373956488225197,16.3965461029776
-0.00288606640508009,16.3978270435915
-0.0021194114961818,16.3991770587257
-0.00143969955502266,16.4006096935569
-0.000846202625589485,16.402143558351
-0.000347339575603546,16.4037678683528
4.953177725329e-05,16.4054366674652
0.000361278594709443,16.4071682525632
0.000602832884035127,16.4089832024255
0.000788258083832248,16.4109088671892
0.000931191351499939,16.4129837179594
0.00104552372210493,16.4152663310092
0.00114671086542172,16.4178568688697
0.00125539416794712,16.4209642505725
0.00139284563552803,16.4246977000518
0.00155860043730753,16.4286386633613
0.00177644848327198,16.4331831421699
0.00201567996878881,16.437747239149
0.00224073283948898,16.4418489161126
0.00245926202145531,16.4457565885084
0.00267554642791551,16.4495946121509
0.00289275271883181,16.4534330774284
0.00311382948069026,16.4573202403025
0.0033417707857108,16.4612944573797
0.00357968681496011,16.4653891188298
0.00383087206754906,16.4696356662854
0.00409889157036625,16.4740655802391
0.00438771724050759,16.4787118304154
0.00470198106991,16.483610293395
0.00504740797907615,16.4888009447023
0.00541825844467861,16.4941400118056
0.00579891856616015,16.4993584982509
0.0061966407894669,16.5045219837678
0.00661231917933069,16.5095979755832
0.00705055381732705,16.5145979281046
0.00751585454902742,16.5195257802006
0.00801348883731008,16.5243881328139
0.00854910350364332,16.5291890669178
0.0091288399345993,16.5339307195461
0.00975939937119272,16.5386132733832
0.0104481793600465,16.5432356149786
0.0112197404426583,16.5478897030129
0.0120887211263794,16.5525714608644
0.0130765128723577,16.5572959624999
0.0142129114481994,16.5620932033257
0.0155460639680986,16.5670339154349
0.0171735561226914,16.5723028326412
0.0194169899748865,16.5786059667478
0.0211174453411625,16.5829074024087
0.0229043871195164,16.5872088380697
0.0244279190851666,16.5908764601067
0.0257021658201768,16.5941198309309
0.0267678452248657,16.5971730414392
0.0276094214915629,16.6001312109242
0.0281826991794493,16.6029609081458
0.0284867245244582,16.6057827968453
0.0284918538412246,16.6087516129064
0.0280906838858008,16.6121931332207
0.0273058465202522,16.6155650169948
0.0261949179114638,16.6189369007689
0.0250996708876329,16.6216885303449
0.0240242123438207,16.6241288598187
0.0229502575178783,16.6264242766266
0.0218759648046062,16.6286423797225
0.0208040979349268,16.6308183833043
0.0197383078971254,16.6329745912612
0.0186822605951159,16.6351268483144
0.0176394104269661,16.637287317324
0.0166129408784619,16.6394659097997
0.0156057572802762,16.6416711093928
0.0146204920075525,16.6439104967768
0.0136595171133168,16.6461911002895
0.0127249556756969,16.648519653627
0.0118186895401541,16.6509028046481
0.0109423734008709,16.6533472738498
0.0100974391528777,16.6558600197918
0.00928510929797983,16.6584483737992
0.00850640217064239,16.6611202013616
0.0077421976850264,16.6639613396247
0.0069940218563119,16.6669992261194
0.00626565088404787,16.6702577162955
0.00556104040389296,16.6737644667051
0.00488431972125563,16.6775515103563
0.00423972566260863,16.6816561471991
0.00363149242900258,16.6861222190513
0.0030636788766761,16.6910021842117
0.00253991258069595,16.6963609486594
0.00206311773491402,16.7022825068721
0.0016354034974533,16.7088794049827
0.00126929277495188,16.7160565534965
0.00103800195877962,16.7217447127638
0.000857418822353106,16.727432872031
0.000668451596093323,16.7354104060326
0.000518524982021476,16.7440858086614
0.000399061170068872,16.7536886170669
0.000312517784717352,16.7636886170669
0.000253895790225938,16.7736886170669
0.000215221377374802,16.7836886170669
0.00019066614595655,16.7936886170669
0.000176071358889955,16.8036886170669
0.000168570645684305,16.8136886170669
0.000166241544087917,16.8236886170669
0.000167819052517247,16.8336886170669
0.000172489394881535,16.8436886170669
0.000179754467282026,16.8536886170669
0.000189346870715583,16.8636886170669
0.000201178065171893,16.8736886170669
0.000215308701828378,16.8836886170669
0.000231935630949421,16.8936886170669
0.00025139357207804,16.9036886170669
0.000274171803593619,16.9136886170669
0.000300948513464154,16.9236886170669
0.000332648525497658,16.9336886170669
0.00037053494011853,16.9436886170669
0.000416353397572175,16.9536886170669
0.000470504286769454,16.9633509952581
0.000532071097173052,16.9722947119875
0.00060188466481855,16.9805585162011
0.000681023574815265,16.988193772744
0.000770740725005987,16.9952487625444
0.000872463003786341,17.0017683700194
0.000987807447090752,17.0077943409627
0.00111860472044917,17.0133655215042
0.00126692780395495,17.0185180568772
0.00143512359384531,17.0232855768855
0.00162585028000804,17.0276993798011
0.0018421205343267,17.0317886113436
0.00208735396525907,17.0355804271874
0.00236543803273295,17.0391001470089
0.00268080584441806,17.0423714171066
0.00303853207037896,17.0454163798713
0.00344445640789173,17.0482558441476
0.00390534648629485,17.050909475175
0.00442911826510028,17.0533960183956
0.00502514576115223,17.0557335695205
0.00570471366452226,17.0579399324582
0.00646100557404511,17.059982100776
0.00729577960368422,17.0618712812209
0.0082207173752481,17.0636398359914
0.00925324353238536,17.065320284472
0.0104214601469059,17.0669494330753
0.0117837055669593,17.0685859445672
0.0135447752909037,17.0704082794855
0.0155426838931468,17.0722092999781
0.0172326232263206,17.0735931212128
0.0190155636144213,17.0749769424475
0.0206109434870385,17.0761961748636
0.0220361979081658,17.0773130646276
0.0233163078149495,17.0783860121138
0.0244484329063841,17.0794549100186
0.0254117156280691,17.0805585000654
0.0261645188052577,17.0817507097476
0.0266197935021312,17.0831423801272
0.0264480918538745,17.0852184401662
0.0257658337899829,17.0867030153802
0.0247216388126176,17.0881875905941
0.0235180635946445,17.0895631669789
0.0221597603514186,17.0909430378699
0.0206554554059093,17.0923777529255
0.0190136883189397,17.0939050837544
0.0179525244744367,17.09489361383
0.0169160010974496,17.0958821439056
0.0156194615418,17.097184192805
0.0130760177721933,17.1000110651186
0.0109736919212315,17.1027165107211
0.00925445941267343,17.105283829212
0.00783505368469119,17.1077413792643
0.00664684605045783,17.1101240432262
0.00563276259157048,17.1124792910657
0.00474052120241749,17.1148869156582
0.00390377822772022,17.1175394751411
0.00315934188689701,17.120352608541
0.00273223901553374,17.1222330608751
0.00235419741901352,17.1241135132091
0.00204614097117193,17.1258363839528
0.00178054122794218,17.1274945443299
0.00153693775062678,17.1291908044889
0.00129996151915238,17.1310430159491
0.00104864354456059,17.1332878940049
0.000696227982553708,17.1371238188109
0.000424723106116745,17.14094452503
0.000241788961920467,17.1442514255055
9.38003402924693e-05,17.1477013466694
-3.66299462951424e-05,17.1519271189365
-0.000133602253250129,17.1575209764436
-0.000148097097275786,17.1623575080285
-9.77969429403687e-05,17.166771221178
1.28386495484449e-05,17.1707597376662
0.000182861131945726,17.1743686943121
0.000413751509142592,17.1776449968189
0.000708555809572886,17.1806334014195
0.00107242228689959,17.1833824082472
0.00151362691776981,17.1859433915515
0.00204472487782841,17.1883683037799
0.00268532802396153,17.1907134083633
0.00347255055618043,17.1930593610615
0.00446549035846665,17.1954955749525
0.00575751674516905,17.1981250791182
0.00735939330292465,17.2008486329657
0.0090460645330134,17.2032761990979
0.0106757127654116,17.2052935651583
0.0123055344077821,17.2070462436047
0.0140493857677282,17.2086774435112
0.015909836204208,17.2101871858478
0.0179677262735152,17.2116321614172
0.0202464836712154,17.2130121204986
0.0227851705400275,17.2143352587744
0.0256297435932293,17.2156094158653
0.0288143935883876,17.2168344610325
0.0323924113762272,17.2180163067238
0.0364143675942244,17.2191571737378
0.0409376826874317,17.2202595217926
0.0460343794186323,17.2213272541511
0.0517853518129721,17.2223635592546
0.0582854849178476,17.2233716876822
0.0656500944213495,17.2243553864513
0.0740208336593098,17.225318873533
0.0835709386489399,17.2262666003169
0.0945179615543772,17.2272036402143
0.107141128033691,17.2281359766464
0.121807561732713,17.2290708957646
0.139021128699468,17.230017983036
0.159505835970129,17.2309905397515
0.183359944515398,17.2319699071922
0.211055507368613,17.2329587301213
0.24338425342002,17.2339698839993
0.281473863010028,17.2350235555086
0.326930902542717,17.2361521688905
0.361466455570968,17.2369521968757
0.396992113889199,17.2377522248608
0.428603634471234,17.2384697759647
0.456295617006287,17.2391298484391
0.48038914943124,17.239762206271
0.500759838137229,17.2403899656101
0.516853785988036,17.2410361401404
0.527490237238959,17.2417313666417
0.530077122456482,17.2425280633148
0.521601444514499,17.2433380357986
0.500913324935274,17.2441793670242
0.466380849100905,17.245066336764
0.416046725553175,17.2460086257063
0.368365542881827,17.2467336767744
0.3138247936454,17.2474587278424
0.265668849928151,17.248046851583
0.225284025955543,17.2485214807561
0.190313525324372,17.2489294872034
0.159239635295809,17.2492974046026
0.13120937337821,17.2496402699498
0.105678427080897,17.2499680910767
0.0822386624010619,17.2502889279914
0.0605150044071261,17.2506110324128
0.0400325348961374,17.2509461992114
0.0197553345899236,17.2513222076549
0.00362192342751981,17.2516682090883
-0.00427046288819828,17.2518590027086
-0.0114808026497938,17.2520497963288
-0.0177029173458897,17.2522303227253
-0.0237259641586201,17.252422746269
-0.029696246489513,17.2526354165656
-0.0353953802203676,17.2528651661862
-0.0406914594889841,17.2531103317739
-0.0455125464368063,17.2533704807656
-0.0498225319519735,17.2536460113925
-0.0536059157959706,17.2539379398125
-0.0570857157880085,17.2542733785303
-0.0597343483919868,17.2546023035686
-0.0618685990029191,17.2549533727774
-0.0635057598466284,17.2553301305706
-0.0646601903407246,17.2557365101054
-0.0653449907652454,17.2561773826088
-0.0655704604757203,17.2566588575533
-0.0653422779396943,17.2571887318514
-0.0646582514412802,17.2577777636997
-0.0635029583987733,17.2584409844941
-0.0618426448676908,17.2591990839285
-0.059609260272809,17.2600846852576
-0.0566542526579249,17.2611586422133
-0.0525274767269764,17.262587705949
-0.0484781392405695,17.263966812956
-0.0445867310190603,17.2653024627007
-0.0408892572867465,17.2665984212398
-0.037404120954558,17.2678562902975
-0.0341404569995275,17.2690765534697
-0.0311015569309137,17.2702591393842
-0.0282865390690432,17.2714037186414
-0.0256913371973274,17.2725098593625
-0.0233094050856505,17.2735771053765
-0.0211322903523373,17.2746050099042
-0.0191501353601052,17.2755931420788
-0.0173521239286061,17.2765410757498
-0.0157268786203672,17.2774483657484
-0.0141616988679667,17.2783762839575
-0.0126576102390322,17.2793281886865
-0.0112186597903874,17.280305988893
-0.00984869482143193,17.2813119323992
-0.00855133977912514,17.282348668369
-0.00732994436210089,17.2834193484328
-0.00618752912860466,17.2845277610404
-0.00512672829284382,17.2856785140064
-0.00414972920232789,17.2868772887347
-0.00325820731041861,17.2881312047147
-0.00245325427375294,17.2894493605979
-0.0017352945935042,17.2908436720597
-0.00110398184408341,17.2923302393613
-0.000558055908977402,17.2939317356357
-0.000119039934321975,17.2955786813535
0.000227908141191424,17.2972806727597
0.000498280527499547,17.2990563874436
0.00070647465814681,17.3009298536727
0.000866246627051732,17.3029339511867
0.000991266782392669,17.3051168899396
0.00109606785285225,17.3075565435324
0.00119824714719804,17.310399538119
0.00132664572667104,17.3140194958876
0.00147706642076669,17.317814950452
0.00167026992917837,17.3220609391051
0.00192121804941541,17.3269994430317
0.00215276060946054,17.3312762234824
0.00237389180262808,17.335253934664
0.00259070531345619,17.3391132615085
0.00280688518852415,17.3429435663248
0.00302553630680394,17.3468013019307
0.00324967204085962,17.3507285678933
0.00348237879005889,17.3547607607063
0.00372686769223202,17.3589298696675
0.00398657383949828,17.3632671602148
0.00426526198589872,17.3678046930393
0.00456722213582637,17.3725767626202
0.00489761006062178,17.3776212185253
0.00526302625254321,17.3829806616083
0.00563754699520602,17.3882219970648
0.00602864615191689,17.3934191733247
0.00643632620502688,17.398529536594
0.00686473880262015,17.4035616277428
0.00731815979624538,17.4085190505566
0.00780161627986843,17.4134083449421
0.00832058619662777,17.418234587756
0.00888100793145253,17.4230008254585
0.00948934318526302,17.4277080496765
0.0101526857754281,17.432355622931
0.0108873962223366,17.4369930316531
0.0117134675009915,17.4416625110437
0.0126485451225516,17.4463666362294
0.0137183349790928,17.4511279828866
0.014961419442918,17.4559956443963
0.0164477769702106,17.4610904538225
0.0183550672466972,17.4667831637854
0.0207774219607148,17.473119198202
0.0223159302112241,17.4768537128949
0.0238775171875288,17.4805882275879
0.0252353992350536,17.4839484593115
0.0263799674281442,17.4870544731833
0.0273185282151409,17.4900665675236
0.0279939650512106,17.4929318077988
0.0284029229501946,17.4957412679134
0.0285292957230504,17.4986302122364
0.0283080204347264,17.5018237536797
0.0274294501754786,17.5061725022885
0.0265586645174318,17.5089745947544
0.025499027622506,17.5117766872203
0.0244249516724365,17.5142914649317
0.0233515569953618,17.5166291778032
0.0222772165196031,17.518870872809
0.0212040525802125,17.5210594470286
0.0201355765781872,17.5232208751765
0.019075493864096,17.5253729688576
0.0180273494106498,17.5275290498173
0.0169944311488844,17.5296997477706
0.0159797477904831,17.5318940052908
0.0149860325059197,17.5341196902036
0.0140157543067499,17.5363839984501
0.0130711270068398,17.5386937476191
0.0121541223990025,17.5410555909256
0.0112664796476899,17.5434761974784
0.0104097108504857,17.545962420312
0.00958511787304921,17.5485214222804
0.00879379317175477,17.551160847049
0.00802465635592154,17.5539339226478
0.00727008875678089,17.5568960961846
0.00653390938699667,17.5600695648748
0.00581999995616561,17.5634805352011
0.00513242893973429,17.5671593329124
0.00447540428794682,17.5711411734388
0.00385317800172989,17.5754672777918
0.00326989660158634,17.5801865995223
0.00272938954367675,17.5853587428903
0.00223486202347071,17.5910596871065
0.00178872183871463,17.5973901415596
0.00139820769342339,17.6043733168949
0.00107117101609294,17.6119089040968
0.000812292340848949,17.620111262309
0.0006413761936805,17.6277860220142
0.000495098022262915,17.6367253137192
0.000383251054568841,17.6462660264804
0.000301642418289134,17.6562660264804
0.000246498762007822,17.6662660264804
0.000210275760762952,17.6762660264804
0.00018744755894449,17.6862660264804
0.000174077207687118,17.6962660264804
0.000167458912785195,17.7062660264804
0.000165783536108414,17.7162660264804
0.000167864928878489,17.7262660264804
0.000172944545277973,17.7362660264804
0.000180564030322668,17.7462660264804
0.000190485904656744,17.7562660264804
0.000202645604329018,17.7662660264804
0.000217124651956205,17.7762660264804
0.000234139990610356,17.7862660264804
0.000254047850936287,17.7962660264804
0.000277362846281344,17.8062660264804
0.000304795337041494,17.8162660264804
0.000337313358911732,17.8262660264804
0.000376240596772687,17.8362660264804
0.00042341075388238,17.8462660264804
0.000478630686389794,17.8558238533093
0.000541378331274799,17.8646665952588
0.000612528371071104,17.8728367422394
0.00069318709574014,17.8803853243128
0.000784633991423651,17.8873601635309
0.000888324376004944,17.8938057143906
0.00100590708119331,17.8997633231087
0.00113924872071919,17.905271462259
0.00129046311607163,17.910365925724
0.00146194322958983,17.915080015217
0.00165639995313418,17.9194447243147
0.00187690597260821,17.9234889166058
0.00212695004589601,17.9272394859037
0.00241049978472382,17.9307215117057
0.00273208206930968,17.9339584236272
0.00309688310229941,17.9369721715297
0.00351087661945476,17.9397833978636
0.00398099486192066,17.9424116326633
0.00451536082040954,17.9448755241214
0.00512361594090702,17.9471931196179
0.0058174034919868,17.9493822440928
0.00658553922312952,17.9513997223754
0.00743370416150687,17.9532691944479
0.00837440186711138,17.9550231419419
0.00942634175843911,17.9566944439438
0.0106203105498894,17.9583214553494
0.0120316547865934,17.9599786132636
0.0138946150220624,17.9618609307592
0.0157496026259701,17.9635061269699
0.0177846496030246,17.9651513231806
0.0195554448853933,17.9665153618984
0.021089158137136,17.9676944353134
0.0224627226860486,17.9687922432466
0.023692561156348,17.9698605554783
0.0247693268110163,17.9709373321684
0.025666114383684,17.972064242505
0.0263307493503476,17.9733068005695
0.026642018121038,17.974825201571
0.0263219320707327,17.9766123048247
0.0253683540676268,17.9783994080784
0.0242454169799351,17.9798447859422
0.0229792859956088,17.9812170303592
0.0215635283331801,17.982614276945
0.0200059745393974,17.984080965709
0.0183132487603071,17.9856554904217
0.0169857048223477,17.9869134739569
0.0157277488519436,17.9881714574922
0.0131745305593403,17.9909925757886
0.011061671402998,17.9936934480794
0.00933278636770685,17.9962562605396
0.00790475964582293,17.9987091794966
0.00670894674020667,18.0010868266252
0.00568821892495129,18.0034361813319
0.00479031092452458,18.0058358214225
0.00394937445386945,18.0084737401936
0.00319851742328998,18.0112788886654
0.00276591744935103,18.0131612615457
0.00238302032042114,18.0150436344261
0.00207142909601042,18.0167658411657
0.00180315296302861,18.0184207015745
0.00155734326564458,18.0201111981665
0.0013185074745964,18.0219537357454
0.00106586609392379,18.0241786074852
0.000711490568929532,18.0279723623503
0.000434453628104711,18.0317980600386
0.000247743378448682,18.0351057335256
9.69374465620236e-05,18.0385405620601
-3.65788636584363e-05,18.0427350949202
-0.000139196908749006,18.0483605005033
-0.000157967466889094,18.0532141616992
-0.00011161592696357,18.0576443318749
-4.79930984161193e-06,18.0616469388955
0.000161396859800759,18.0652678957533
0.000388372367067355,18.0685543166371
0.00067912640029764,18.0715512188826
0.0010387053668366,18.0743069445237
0.00147530242987665,18.0768732276898
0.00200141286556437,18.0793025309992
0.00263663649779922,18.0816517905822
0.00341813612331001,18.0840026160436
0.0044063241530078,18.0864482335192
0.00569991374950727,18.0891014817519
0.0073181039478971,18.0918706313494
0.00901190127275283,18.0943219153376
0.0106376470204363,18.0963452976793
0.0122618449904738,18.0981016089479
0.0139984436586858,18.0997350172371
0.0158517608333801,18.1012471003428
0.01790205754935,18.1026942971142
0.0201675700401579,18.1040733424504
0.0226962107873053,18.1053980465251
0.0255286854735321,18.1066731775027
0.02870117034905,18.1078995664433
0.0322655903671856,18.1090826089757
0.0362708495419877,18.1102241542038
0.0407766515402011,18.1113274172282
0.0458533568759801,18.1123959250077
0.0515812955249084,18.1134328539369
0.0580536915971657,18.1144412992642
0.0653868803372939,18.1154252922503
0.07372055440609,18.1163888921123
0.0832263882605976,18.1173365183189
0.0941197797356904,18.1182732019818
0.106676820709602,18.1192048623656
0.121259474902866,18.1201386624981
0.138364299245607,18.1210840565107
0.158701162790925,18.1220540307278
0.182423805358255,18.1230323420799
0.209959677686981,18.124019503374
0.242088586225063,18.1250280948832
0.279914148738554,18.12607767447
0.325253822253449,18.1272054456767
0.360016909166745,18.128010681122
0.395850417123019,18.1288159165674
0.427723931945282,18.1295363668296
0.455637090577775,18.1301974586072
0.479944545719968,18.1308296352751
0.500544577754829,18.1314562176191
0.516906780116173,18.1321001072133
0.527889936410936,18.1327914080387
0.530989021851322,18.133584913
0.523081583825515,18.134393219148
0.503016021537448,18.1352322817325
0.469176405049851,18.1361166648936
0.419606015529936,18.1370562787003
0.371567456312756,18.1377927242789
0.316384938878205,18.1385291698575
0.267708576065487,18.139124302316
0.226992944190854,18.1396025887153
0.191798239126318,18.1400126062684
0.160555184278651,18.1403817058064
0.132388388881172,18.1407252572673
0.106743401893688,18.1410534073329
0.0832076058404192,18.1413742571673
0.0614056815418976,18.1416960075771
0.0408701939717836,18.1420301983248
0.0206099951193554,18.142403329006
0.00558225799377081,18.1427211196538
-0.00260925531578594,18.1429150578028
-0.0100886169338318,18.1431089959519
-0.01649998758165,18.1432913608146
-0.0225008359405192,18.1434790380709
-0.0285049064483131,18.1436877533581
-0.0342751827391742,18.1439140829773
-0.0396632516021217,18.144156043174
-0.0445873005737833,18.1444129911749
-0.0490053087849495,18.1446851785665
-0.0528992486690174,18.144973506227
-0.056414140386459,18.1452957303873
-0.0591854127781943,18.1456194899041
-0.0614400029351378,18.1459648461783
-0.0631939702897025,18.1463350761435
-0.0644617454188099,18.1467339218262
-0.0652568678101418,18.147166010746
-0.0655904557581372,18.1476371284704
-0.0654694689879256,18.1481546248498
-0.064894173839457,18.1487282702561
-0.0638524154938556,18.149372283175
-0.0623156741032449,18.1501055410345
-0.0602262447355455,18.1509570484221
-0.0574622881487431,18.1519782628899
-0.0536949530174181,18.1532933082286
-0.0496130625734233,18.1546853941222
-0.0456718684861164,18.1560328504438
-0.041916785868092,18.1573398582907
-0.0383699997636974,18.1586084840541
-0.0350427940764734,18.1598394504514
-0.0319398991764326,18.1610328020733
-0.0290614984431656,18.1621882605641
-0.026404350929372,18.1633054114185
-0.0239625535768164,18.1643837995908
-0.021728143086161,18.1654229734377
-0.0196916144047027,18.1664224976666
-0.017842381804362,18.1673819464602
-0.0161691901119232,18.1683008829231
-0.0145881498297484,18.1692222593756
-0.0130667819729513,18.1701672907586
-0.0116094517461971,18.1711376497849
-0.0102200579192254,18.1721354881337
-0.00890229260968042,18.1731633338715
-0.00765958796263957,18.1742241864852
-0.00649506254621088,18.1753216406905
-0.00541146499111787,18.1764600536195
-0.00441111451096825,18.1776447759645
-0.00349583736034263,18.1788824805375
-0.00266689727039811,18.1801816449733
-0.00192491606194993,18.1815532897738
-0.00126977707193778,18.183012163874
-0.000700496437267889,18.1845787725708
-0.000232396846978721,18.1862137220632
0.000138731137167928,18.1878983290034
0.000429018318713452,18.1896509636663
0.00065311322286312,18.1914938135109
0.000824901721037691,18.1934567736898
0.000957999651005343,18.1955827338502
0.00106654398352311,18.1979388299225
0.00116685782008086,18.2006450190048
0.00128270376979775,18.2039741369319
0.00142470159580096,18.2077242418222
0.00160188532402165,18.2117962867545
0.00183791842016697,18.2165921439566
0.0020756799206655,18.2210648368121
0.00229935795326631,18.2251252882159
0.00251671363147637,18.2290154519532
0.00273207675676652,18.2328481030013
0.00294873923973335,18.236688967039
0.0031697500219637,18.2405843289275
0.00339817481751847,18.244571649884
0.00363716731385985,18.2486838189223
0.00389006346639815,18.2529521689237
0.00416047801126312,18.2574082759516
0.00445246168144042,18.2620854065071
0.00477077974243778,18.2670199079049
0.00512138291357126,18.2722523976274
0.00549335418618405,18.2775633734663
0.00587701670652716,18.2827738620434
0.00627773462904208,18.2879205984855
0.00669726004237225,18.2929821491091
0.00714015032242437,18.2979682627523
0.0076110471688191,18.3028833857954
0.00811529808949544,18.3077337900279
0.00865864351791167,18.3125232286908
0.00924733101189592,18.3172534932094
0.00988818930385916,18.3219244995063
0.010590641358781,18.3265467297381
0.011379414983515,18.3312064122095
0.0122690438799402,18.3358947433561
0.0132823617301288,18.3406299768696
0.0144515887295071,18.345447162129
0.015830632509952,18.3504301805496
0.017535810471186,18.3558072329076
0.0199518171265038,18.3624151336969
0.021571932092673,18.36643787644
0.0232514492974003,18.3704606191831
0.0247115103619231,18.3740003562352
0.0259405762229183,18.3771885544099
0.0269636929017998,18.3802221339167
0.0277491609101524,18.3831435739856
0.0282678956547932,18.3859612006537
0.0285143676981894,18.3887983884897
0.0284496019241738,18.3918259962409
0.0279285666491034,18.3954644744223
0.0271185680107562,18.3986289987809
0.0260333507307283,18.4017935231394
0.0249475614903989,18.4044715654268
0.0238732409777386,18.406884007645
0.0227991857871108,18.4091655052483
0.0217250292671785,18.4113759428742
0.0206537947080848,18.4135479850808
0.0195891641762698,18.415702762272
0.0185347809277892,18.4178554766741
0.0174940632864369,18.4200179047161
0.0164701552805293,18.4221997153399
0.0154659231776688,18.4244092371241
0.0144839623245017,18.4266539519433
0.0135266083991257,18.4289408321726
0.0125959508669207,18.4312765833641
0.0116938390668664,18.4336678506085
0.0108218941429104,18.436121379664
0.00998152019472173,18.4386441619344
0.00917390872646283,18.4412435940068
0.00839900546572324,18.443931390515
0.00763680225494601,18.4467988031292
0.00689117109607848,18.4498659962401
0.00616588694506836,18.4531574190001
0.00546493158435814,18.456701298934
0.00479245474923822,18.4605303429926
0.00415270114842028,18.4646826741191
0.00354989264106112,18.4692031862888
0.00298804463956564,18.4741457950818
0.00247070051009519,18.4795776154663
0.00200067207342418,18.4855860147106
0.00157996300034446,18.4922883826048
0.00122289775187089,18.4995431195283
0.000929030754586825,18.5074045151276
0.000759090914901427,18.5137121994429
0.00058091364913579,18.5225657970147
0.000449237308839384,18.5316698121686
0.000346979763061638,18.5416698121686
0.000277124312320681,18.5516698121686
0.000230467953079732,18.5616698121686
0.000200296146637236,18.5716698121686
0.000181754882363795,18.5816698121686
0.000171450353576138,18.5916698121686
0.000167082872939347,18.6016698121686
0.000167127822485941,18.6116698121686
0.000170593638719027,18.6216698121686
0.000176857431214691,18.6316698121686
0.000185560335287611,18.6416698121686
0.00019654295924822,18.6516698121686
0.000209807104836671,18.6616698121686
0.000225496170285213,18.6716698121686
0.000243890948173684,18.6816698121686
0.00026542028184206,18.6916698121686
0.000290688301321325,18.7016698121686
0.000320522673623616,18.7116698121686
0.000356052375170225,18.7216698121686
0.000398830223157949,18.7316698121686
0.000450628221169657,18.7415991764945
0.00050961867206498,18.7507995957527
0.000576533891331757,18.7593004794108
0.000652391827918587,18.7671542910313
0.000738389484373192,18.7744106860012
0.000835895241517999,18.7811158125772
0.000946460755827844,18.787312572435
0.0010718427852297,18.7930408758712
0.00121403021479193,18.7983378573225
0.00137527532854099,18.8032380620213
0.00155812810070577,18.8077736327633
0.00176547854246008,18.8119744926787
0.00200060480208052,18.8158685158452
0.00226723163261987,18.8194816819373
0.00256960204680476,18.8228382365349
0.00291256599945141,18.8259608600947
0.00330169497288464,18.8288708381679
0.00374342932585877,18.8315882433962
0.00424527743980956,18.8341321480481
0.00481609257575085,18.8365208775368
0.0054664702145071,18.8387723347216
0.00619845095413585,18.8408758819674
0.00700606031378641,18.842815571321
0.00789951430443656,18.8446238493516
0.00889409289160155,18.8463331177554
0.0100136066841246,18.8479782023506
0.0113002503274851,18.8496045766943
0.0129007567982125,18.8513483359227
0.0152664608496995,18.8535527574397
0.0169387522353536,18.8549423300182
0.0187118470904226,18.8563319025967
0.0203333337997149,18.8575755500379
0.021779405508752,18.8587057400445
0.0230788996465641,18.8597844973315
0.0242323224519611,18.8608533065565
0.0252215073638443,18.8619501827904
0.0260088904647323,18.8631251541247
0.0265184545515056,18.8644740683137
0.026509295075226,18.8663420105928
0.0259236575232202,18.8678920918741
0.0249170873442694,18.8694421731555
0.0237494300072938,18.8708314713489
0.0224273699801811,18.8722061139116
0.0209576938026,18.8736257843217
0.0193495340185158,18.8751291620156
0.0176073129108553,18.8767567635255
0.0162361729054237,18.8780932846231
0.013707047153635,18.8808094589402
0.0115013931426195,18.8835375081688
0.00969589324433337,18.8861261435159
0.00820720327571095,18.8885996155252
0.00696379233231642,18.890991344115
0.005906397655072,18.8933455966337
0.00498207228447002,18.8957334437912
0.0041293720386793,18.8983123101796
0.00335605763614441,18.90108891223
0.00289188231169704,18.9030315195744
0.00248260146981185,18.9049741269187
0.00215437459424503,18.9067309992786
0.00187635349480564,18.9083941211021
0.00162473828314827,18.9100719676254
0.00138350289365641,18.9118732853868
0.00113417588931136,18.9139880077839
0.000822492850966711,18.9171237733374
0.000526607997793494,18.9208588132303
0.000325686828409045,18.924078552034
0.000167334098659142,18.9272768088779
2.69153227380937e-05,18.9310017521792
-9.64819283875258e-05,18.9359440345075
-0.000154738668103933,18.9411540143249
-0.000141067965318951,18.9457959179531
-6.48859533914819e-05,18.9500081374722
7.1120841007306e-05,18.9538189015429
0.000266900271077215,18.9572671510936
0.00052486222799783,18.9604044097195
0.000849105921124548,18.963277947079
0.00124595149475333,18.9659358245823
0.0017254408845232,18.9684297026708
0.00230412717325745,18.9708175772311
0.00301059033815977,18.9731700622798
0.00388831277178355,18.9755610132798
0.00501905700016158,18.9781054934846
0.0064944952644634,18.9808646071922
0.00818953161278811,18.9835242577215
0.00983791703343849,18.9857311902252
0.0114438477482074,18.9875932074372
0.0131168797107937,18.9892810189742
0.0148971735730516,18.9908414288649
0.0168556586746679,18.9923283700081
0.0190030965306991,18.9937360216945
0.0213994622359633,18.9950892287736
0.0240725219515652,18.9963871105309
0.0270702613128185,18.9976374140028
0.0304349637933727,18.9988422975514
0.034213006179193,19.0000039011582
0.038463018290335,19.0011262456643
0.0432482227526236,19.0022121471259
0.0486399420168465,19.0032642044189
0.0547288476041394,19.0042864614907
0.0616194656259838,19.0052824569144
0.0694379601129151,19.0062560117364
0.0783382912457942,19.007211272491
0.0885117437341168,19.0081528977007
0.100202926929485,19.0090864570964
0.113727992021529,19.010018483141
0.129510139661266,19.0109571870727
0.148139932665099,19.0119135372967
0.170198377719278,19.0128913183882
0.195757630340139,19.0138731883558
0.225495517250445,19.0148697830404
0.260329366525019,19.0158965352959
0.301659794070379,19.016980144964
0.338740645849841,19.0178705358284
0.37780664042951,19.0187609266928
0.412110867739826,19.0195311515443
0.441924153314078,19.0202181681292
0.468001220804436,19.0208620073925
0.490474194209955,19.0214890376895
0.509032005897919,19.0221215508926
0.5228819611637,19.0227848275679
0.530368273643082,19.0235175910221
0.528300707993149,19.0243172675193
0.514728964372213,19.0251384408327
0.488286248263957,19.0259978313377
0.447165803109139,19.0269077295296
0.389348725447411,19.0278765485141
0.344040576046806,19.028514646504
0.293910244733489,19.0291527444938
0.249387416756705,19.0296854796749
0.211346585859144,19.0301296071079
0.177995804375771,19.0305197401052
0.148159862379439,19.0308765064851
0.121135593771698,19.0312124658259
0.0964450143752977,19.0315366038471
0.073703647068495,19.0318567950408
0.0525191312991831,19.0321820873133
0.0322993761827867,19.0325277410436
0.0112516362528201,19.0329422991525
3.80059119996356e-05,19.0331967692124
-0.00736065658216462,19.0333825293227
-0.0141238712104626,19.0335682894329
-0.0200171009964912,19.0337456914477
-0.0260487413242758,19.0339461850965
-0.0319366972667572,19.0341656744307
-0.0374933934900511,19.0344014185778
-0.0426136630862184,19.0346522887517
-0.0472415930360323,19.034918208948
-0.0513507262554273,19.0351998334345
-0.054927437750763,19.0354983865367
-0.0580355248631091,19.0358239657464
-0.0605109420022878,19.0361597624467
-0.0624785875665566,19.0365189155774
-0.0639538972009334,19.0369049756409
-0.0649509780880362,19.0373221612069
-0.0654821848810116,19.0377757176866
-0.0655565046709507,19.0382722579091
-0.0651775821895073,19.0388202832589
-0.0643391909728367,19.0394321013399
-0.0630207602146162,19.0401241268427
-0.0611795945124067,19.0409201469246
-0.0587288164185927,19.0418593677564
-0.0554651338146282,19.0430218556262
-0.0513425538092562,19.0444374963773
-0.0473332465813244,19.0458035545654
-0.0434949819298472,19.0471275391173
-0.0398572341151567,19.0484124617449
-0.0364351973586333,19.0496595203942
-0.0332360836565386,19.0508689953239
-0.0302618547922475,19.052040717786
-0.0275106295612066,19.0531743167874
-0.0249775644228801,19.0542693475399
-0.0226555106522424,19.0553253543292
-0.0205355635064973,19.056341895033
-0.0186075464584997,19.0573185418015
-0.016860443536973,19.0582548658542
-0.0152553971942897,19.0591664347129
-0.013707796573572,19.0601011896206
-0.0122225126556006,19.0610604452689
-0.0108035152980774,19.0620462165438
-0.00945459234388942,19.0630608594683
-0.00817929379654263,19.0641071582552
-0.00698087939195274,19.0651884348388
-0.00586226342787694,19.0663086954699
-0.00482595669755347,19.0674728312558
-0.0038740048586757,19.0686868996869
-0.00300792177813258,19.0699585321276
-0.00222861498223558,19.0712975456885
-0.00153629769406743,19.0727169042084
-0.000930376505113166,19.074234315152
-0.000415333617204346,19.0758535226245
-4.98836007897146e-06,19.0775145730579
0.000317948195149017,19.0792358135244
0.000568560076830736,19.0810370545347
0.000761009882746756,19.0829444541471
0.000908956055894764,19.0849944517857
0.00102618432029344,19.0872417969693
0.00112777223034268,19.0897782121262
0.00123311192034431,19.0927878833176
0.00136808859645948,19.0965228609942
0.00152770546608454,19.100406899589
0.00173634796765013,19.1048457548651
0.00198228218438392,19.1095962277109
0.00220968637934486,19.1137683758974
0.00242872499959464,19.1177034005823
0.00264452334696884,19.1215481939124
0.00286051737700092,19.125380606184
0.0030797521373146,19.129252243887
0.0033052453543811,19.1332030342078
0.00354009811175587,19.1372671735999
0.00378756216553482,19.141476286437
0.00405113420503556,19.1458617058909
0.00433467826895619,19.15045593329
0.00464265205256995,19.1552940708025
0.0049804945619338,19.1604150707538
0.00535008403192694,19.1657881923604
0.00572702218811617,19.1710098625463
0.00612154035378805,19.1761917118767
0.00653313221693515,19.1812827949404
0.00696652633323059,19.1862976958126
0.00742602345525583,19.1912389854562
0.00791681393154005,19.1961136742341
0.00844445555113543,19.2009262188041
0.00901499509390899,19.205679198877
0.00963501849729994,19.2103731532855
0.0103117778606973,19.2150071672981
0.0110659472633141,19.2196535339909
0.0119146659523156,19.2243293983049
0.0128775377052082,19.2290440155818
0.0139823187908812,19.2338235491555
0.0152723107093854,19.2387277202602
0.01683059241526,19.2439076566586
0.0188961787584095,19.249876929959
0.0206977130357344,19.2545297888108
0.022617504594025,19.2591826476627
0.0242012718029808,19.2629808913513
0.0255122154483165,19.2662751197396
0.0266107534652594,19.2693478236666
0.0274959103803983,19.2723383469446
0.028110903101965,19.2751808542698
0.0284581075992235,19.2779952177778
0.0285140070664975,19.2809271580302
0.0281916620097218,19.2842526472306
0.0271951492690766,19.2886092989962
0.0263013474349665,19.2913087925293
0.0252432074498963,19.2940082860625
0.0241706341416049,19.2964680284681
0.0230970499843652,19.2987773892574
0.022022702880914,19.3010034449667
0.0209503023788704,19.3031836221503
0.0198834698588159,19.3053414380154
0.0188258902308724,19.3074934047219
0.0177810519749886,19.3096520828485
0.0167521770552507,19.3118276310386
0.0157422084738186,19.3140286911691
0.0147538151116123,19.3162629427632
0.0137894046464235,19.3185374698921
0.0128511326804904,19.3208590344335
0.0119409136774315,19.3232342835843
0.0110604335153051,19.3256699153265
0.0102111529090406,19.328172848261
0.00939432333135625,19.3307503495247
0.00861098976641681,19.3334102021825
0.00784492514437497,19.3362262597463
0.00709435474885248,19.339236239818
0.00636307047580996,19.3424633847589
0.00565500190500404,19.3459348132915
0.00497425765477135,19.3496819233428
0.00432506514469517,19.3537412432657
0.00371166791625426,19.3581556343322
0.00313815765259368,19.3629762598794
0.00260824773464423,19.3682659410231
0.00212496253344714,19.3741056612598
0.00169051836096314,19.3806035032986
0.00131561012745068,19.3877080928559
0.00100257167430422,19.3953892377813
0.000808320925747547,19.4019265257234
0.000625570507111062,19.4102835729688
0.000480256851946895,19.4194764378762
0.000370623101689823,19.4292569948049
0.000293246803374903,19.4392569948049
0.000241183766719282,19.4492569948049
0.000207180006928934,19.4592569948049
0.000185941031525844,19.4692569948049
0.000173721156209261,19.4792569948049
0.000167961114714213,19.4892569948049
0.000166956114727643,19.4992569948049
0.000169591996649755,19.5092569948049
0.000175160717232728,19.5192569948049
0.0001832413647401,19.5292569948049
0.000193626448832343,19.5392569948049
0.000206277649409763,19.5492569948049
0.000221301784061857,19.5592569948049
0.00023894269989627,19.5692569948049
0.000259587915276655,19.5792569948049
0.000283791136964952,19.5892569948049
0.00031231428130632,19.5992569948049
0.000346196232641721,19.6092569948049
0.000386861417234906,19.6192569948049
0.000436291388308666,19.6292569948049
0.000493263119409355,19.6386479536774
0.000557937178917006,19.6473299073773
0.000631259084152493,19.6553512421696
0.000714377679288548,19.6627623822147
0.000808613451184926,19.6696103578653
0.000915465722173767,19.6759388884064
0.00103663251494376,19.6817886412086
0.00117403611064458,19.6871974575558
0.00132985351211399,19.6922005420452
0.00150654913603514,19.6968306494546
0.00170691557937221,19.7011182681423
0.00193411894259384,19.7050917952395
0.00219175540653006,19.7087776932133
0.0024839176987458,19.7122006474456
0.00281527915511749,19.7153837329138
0.00319120050527993,19.7183485842294
0.00361786611066802,19.7211155716952
0.00410246753960687,19.7237040040415
0.00465345532752144,19.7261323690338
0.00528089654128544,19.7284186327057
0.00599373688601205,19.7305716377028
0.00678003618983886,19.7325518075053
0.00764890315271906,19.7343916519252
0.00861408086814741,19.7361236343922
0.00969642784633343,19.7377813407146
0.0109313893202623,19.7394059147356
0.0124236737752698,19.741097849114
0.0144747932365939,19.7430948780047
0.0162254658454814,19.7446028844841
0.018116106937061,19.7461108909636
0.0198232629623703,19.7474224827088
0.021325171003025,19.7485824444703
0.0226734181024111,19.7496726666197
0.0238777525328053,19.7507402038811
0.0249257447834113,19.7518226147724
0.0257871937022345,19.752963775911
0.0264032936781193,19.7542371956744
0.0266264251118452,19.7558427863075
0.0262135858354356,19.7575578151249
0.0252368420990207,19.7592728439423
0.0241017656273596,19.7606982373168
0.0228197729968254,19.7620701093893
0.0213885820680227,19.7634732789635
0.0198166321851194,19.7649499955639
0.0181100084215959,19.7665390531089
0.0162947531591791,19.7682911101039
0.0148573246350128,19.769784793231
0.0124581441743051,19.7725609456017
0.0104759041246107,19.7752171583773
0.0088493394209436,19.7777447300102
0.00750020560930304,19.7801736538242
0.00636389567882422,19.7825420262455
0.00538546449187458,19.7849050235763
0.00451076496131342,19.7873651429716
0.00369051148626849,19.7900869426045
0.00312220095051652,19.7922987795038
0.00262969483879878,19.7945106164032
0.00226769566842158,19.7963662714329
0.00197411302756381,19.7980551048922
0.0017150496646358,19.7997169513289
0.00147251131940927,19.8014547418652
0.00123050023599153,19.8034102612777
0.000959387327558094,19.8059460260577
0.000620212857890411,19.8098622808413
0.000384103822153514,19.8133681453757
0.000214292285767726,19.8165665594455
6.94768246537952e-05,19.8200936661436
-5.90714661374793e-05,19.8245542583107
-0.000142182923893054,19.8300064133672
-0.000146959485335581,19.834771907899
-8.7737044787193e-05,19.83911173266
3.16148675349636e-05,19.8430341851366
0.000210523183679039,19.846584045015
0.000450780460413405,19.8498092740529
0.000755833121407634,19.8527558345094
0.00113114059832837,19.8554712272835
0.00158550084915989,19.8580068014499
0.00213260694910181,19.8604161598099
0.00279585291950272,19.8627636967355
0.00361389976324679,19.8651249864537
0.00465406037026152,19.8676001425237
0.00601314966516882,19.8702843638215
0.00765714327620443,19.8730006048171
0.00932950875749385,19.8753465319228
0.0109449813567275,19.8773013630955
0.0125763992779535,19.8790182448843
0.0143266554737018,19.8806206624426
0.0162228342923849,19.8821259779117
0.0183071230000915,19.8835563500046
0.0206284490338226,19.8849295620466
0.0232108840818473,19.886243694431
0.0261058138135,19.8875095259471
0.0293493130902579,19.8887273879598
0.0329936044293666,19.8899023173013
0.0370918214839332,19.8910370369173
0.0417009981418593,19.8921335467798
0.0468953930552631,19.8931959265194
0.0527582448898351,19.8942274364758
0.059388324667494,19.8952315325856
0.0669027540865902,19.8962117292559
0.0754478308880364,19.897172334265
0.085203262853397,19.8981179326073
0.0963949845121016,19.8990537177993
0.109314071036656,19.8999858498057
0.124346336978641,19.9009219601636
0.14202149728611,19.9018719757916
0.163111467270004,19.9028500660285
0.187539448116538,19.9038302000162
0.215920538774615,19.9048215360315
0.249086750727219,19.9058377636313
0.28824804509747,19.9069010033578
0.334461974714959,19.9080314496024
0.376458779871302,19.9089925358329
0.41110211052396,19.9097714017228
0.44099628415044,19.9104605845344
0.467134899629938,19.9111055905564
0.48967178598709,19.9117332242386
0.508305156112342,19.9123657845198
0.522255747469452,19.9130283702743
0.529898321550919,19.9137591000382
0.528065985831261,19.914558852972
0.514759954407073,19.9153796078201
0.488626054783527,19.9162381357006
0.447868954745638,19.9171468059751
0.390476384778682,19.9181140698077
0.34508597812784,19.9187560068831
0.29478813411658,19.9193979439584
0.250123781741805,19.9199332137322
0.211990411466548,19.9203788126305
0.178574771816151,19.920769856764
0.148688794951874,19.9211272202283
0.121623697208975,19.9214635686501
0.0968991499640773,19.9217879301558
0.074130229877767,19.9221081797195
0.0529264655962568,19.9224333063546
0.0327046812444958,19.9227783244962
0.0117361088535015,19.923190058309
0.000126378227181478,19.9234529080186
-0.00728333788199775,19.9236388554233
-0.0140565362506398,19.9238248028279
-0.0199488657906497,19.9240020859344
-0.0259792794549137,19.9242024053083
-0.0318686565946101,19.9244217649862
-0.037428385283555,19.9246574038523
-0.042552612875898,19.9249081781234
-0.0471850197040365,19.9251740020292
-0.0512989021752071,19.9254555228501
-0.0548804524067673,19.9257539592221
-0.0579924484591636,19.9260792728434
-0.0604728351010824,19.9264149009922
-0.0624453899398862,19.9267738559669
-0.0639255248340463,19.9271596788807
-0.0649273509307124,19.9275765782127
-0.0654632449559722,19.9280297860644
-0.0655422370751449,19.9285258970352
-0.0651680431225431,19.9290733864988
-0.0643345834031747,19.9296845064917
-0.0630214812427411,19.9303756163266
-0.0611864003583705,19.9311703803775
-0.0587432569492338,19.9321077322811
-0.0554912410674463,19.9332668806952
-0.0513685594074787,19.9346830489651
-0.0473585667033107,19.9360494464536
-0.0435192636265202,19.9373737101585
-0.0398803029780141,19.9386588807597
-0.0364569664082994,19.939906171383
-0.0332565154185487,19.9411158704443
-0.0302809440414107,19.9422878136
-0.0275283936714884,19.9434216322225
-0.0249940375875843,19.9445168827749
-0.0226707396082921,19.9455731101994
-0.0205496041200028,19.9465898727407
-0.0186204609125178,19.9475667428157
-0.0168722978753543,19.9485032919336
-0.0152668478211391,19.9494147374912
-0.0137188117538016,19.950349363151
-0.01223306737666,19.9513084790149
-0.0108135853363878,19.9522940983043
-0.00946415453300837,19.9533085749392
-0.00818832626259997,19.9543546904985
-0.00698936179636925,19.9554357635805
-0.00587017721504378,19.9565557961536
-0.00483328534462581,19.9577196737341
-0.00388073412304888,19.9589334463596
-0.00301403994282663,19.9602047352066
-0.00223411310844677,19.9615433430097
-0.00154116988957288,19.9629622124994
-0.000934620229379787,19.9644790185042
-0.000418794334430463,19.9660980441681
-7.76596685268978e-06,19.9677588143919
0.000315772039741122,19.9694796794775
0.000566911434178498,19.9712804222137
0.000759821175491505,19.9731871579121
0.000908164169421156,19.9752362535539
0.00102572777192683,19.9774823234364
0.00112758510912703,19.9800167962603
0.00123310337705487,19.9830230229331
0.00136835410560455,19.9867581980613
0.00152811910496169,19.9906402459777
0.0017368539831257,19.995075444656
0.00199237786142497,20
