ecg,time
0.0135474113809485,15.0023236913312
0.0147736875081452,15.0071785055216
0.016232823416636,15.0122422173001
0.0180820829354938,15.0178381379696
0.0205058306462563,15.0242503265546
0.0220652315458959,15.0280564901365
0.023657241980066,15.0318626537184
0.0250445002158717,15.0352726009628
0.0262144520921785,15.0384026143037
0.0271789152776192,15.0414212856549
0.0278877745352234,15.0443040260481
0.0283303818914187,15.0471164797124
0.0284941142180795,15.0499894686518
0.028323273527737,15.0531280600637
0.0275794318104547,15.057196701186
0.0267293954523647,15.0601064954871
0.0256657011824008,15.0630162897882
0.0245895420117457,15.0655856273975
0.0235164264547378,15.0679514025228
0.0224424285624506,15.0702096498129
0.0213690169892486,15.0724086085696
0.0202995787359775,15.0745765296926
0.0192378279078523,15.0767324080694
0.0181873536363437,15.0788902631376
0.0171514967175114,15.0810611706408
0.0161333192671338,15.0832543752079
0.0151356063311941,15.0854779576868
0.0141608762973269,15.0877392703854
0.0132113904547574,15.090045248376
0.0122891666208844,15.0924026349562
0.0113959877549978,15.0948181725984
0.0105334091714501,15.0972987728749
0.0097027746211707,15.0998516490111
0.00890521736125524,15.1024844897007
0.00813510795812229,15.1052299693433
0.00737893605382506,15.1081614395222
0.00664055880394476,15.1113003150606
0.00592381588074291,15.1146722056779
0.0052327394748572,15.1183067261384
0.0045715101414341,15.1222382431647
0.00394436910064599,15.1265069310401
0.00335548030736649,15.1311603658894
0.00280872798144507,15.1362562150604
0.0023074224204348,15.1418674349742
0.00185409411375208,15.1480902498379
0.00145338819523337,15.1549984555206
0.00111721824162804,15.1624438028962
0.000851709626252429,15.1705353948718
0.000682193053453409,15.1778049536021
0.000528350103022941,15.1866935176862
0.000412549723204146,15.1960028003374
0.000325729762290268,15.2060028003374
0.000267372595271684,15.2160028003374
0.000229395499264123,15.2260028003374
0.000205883810560187,15.2360028003374
0.00019263284066561,15.2460028003374
0.000186765262902738,15.2560028003374
0.000186372908268428,15.2660028003374
0.000190224289107123,15.2760028003374
0.000197557082957363,15.2860028003374
0.000207944751386299,15.2960028003374
0.000221216267652769,15.3060028003374
0.00023741153589187,15.3160028003374
0.000256762487795248,15.3260028003374
0.000279696095918609,15.3360028003374
0.000306860118807012,15.3460028003374
0.000339176588512934,15.3560028003374
0.000377933597071193,15.3660028003374
0.000424935006122786,15.3760028003374
0.000479081340442269,15.3854163477873
0.00054044929049314,15.3941333207521
0.000609889905508559,15.4021991474409
0.000688453286344669,15.4096619035177
0.00077735226428957,15.4165666066845
0.000877965534789001,15.4229552545469
0.000991854899683979,15.428867051354
0.00112078843366019,15.4343386018477
0.00126676856336738,15.4394040625096
0.0014320611517491,15.4440952981108
0.0016192325385033,15.4484420416875
0.00183118933875841,15.452472050995
0.00207122883363528,15.4562112408728
0.00234309542979839,15.4596838142703
0.00265105286744617,15.462912407055
0.00299997367143787,15.4659182367099
0.00339545033449874,15.4687212458909
0.003843942736996,15.4713402671133
0.00435297431071081,15.4737932151557
0.00493140154860302,15.4760973097869
0.00558980196682942,15.4782693674145
0.00632911650102175,15.4802963330995
0.00714349910565514,15.482164354602
0.00804265380451295,15.4839039426449
0.00904087779589442,15.4855451444654
0.0101599262904552,15.4871194109469
0.0114369287825799,15.4886658600052
0.0130052088775009,15.4903042056194
0.0151798921098513,15.4922540917687
0.0169764539456635,15.4936812601789
0.0189112516921396,15.4951084285891
0.0206797825762478,15.4963669395431
0.0222422236664381,15.4974853809676
0.0236478592105668,15.4985392878362
0.0249060774737342,15.4995736592401
0.0260038635533325,15.5006252652903
0.0269097675162802,15.5017380279153
0.0275619575432032,15.5029874610829
0.0277997597722487,15.5045890478721
0.027376540755391,15.506246418006
0.0263888183687459,15.5079037881399
0.0252351810084161,15.5092935372734
0.0239235064068181,15.5106415771771
0.022452345768761,15.5120278286985
0.0208298526815884,15.5134940235109
0.0190610111124082,15.5150801945447
0.0175682555381408,15.5164536243292
0.0161627119539485,15.5178270541136
0.0137920305692625,15.5203789033943
0.0117378119033681,15.5229090184871
0.00991616058449043,15.5255014258124
0.00836967899592203,15.528064404752
0.00708907162566395,15.5305408288593
0.00597638315222222,15.5330582896032
0.00516927738248703,15.5351783731228
0.00455026879879439,15.5370297130423
0.00402302126834141,15.5388075545956
0.00354398621836101,15.5406290833956
0.0030824462028999,15.5426252369411
0.00259692366630939,15.5450681628295
0.0020805108018627,15.5482218410847
0.00164213520824389,15.5516015023064
0.00131989576742579,15.5547732396726
0.00105422288300143,15.5581632832245
0.000826827919855768,15.5621777844059
0.000662726736162312,15.566809761312
0.00058847314184312,15.571919230693
0.00061412145609107,15.5764596759568
0.000719309779580824,15.5805950346415
0.000895103796063064,15.5843482812888
0.00113797190826501,15.5877641671063
0.00144789621939357,15.5908877047735
0.00182780825379113,15.5937653188406
0.002284322908126,15.5964474411087
0.00282821345729333,15.5989843083463
0.00347714795288695,15.6014315985624
0.00425961975029633,15.603852871394
0.00522079002908528,15.6063217337152
0.00641520409461506,15.6088910913691
0.00783188001244765,15.6114662648818
0.00935499955691148,15.6138322667678
0.0108872410510208,15.6158889757544
0.0124477909241095,15.6177110997728
0.014091633117215,15.6193823670719
0.0158558009876349,15.6209407374397
0.0177944379859288,15.6224238028498
0.0199353613471279,15.623837450161
0.0223200036041059,15.6251931256193
0.0249867890508448,15.6264960236276
0.0279734223494266,15.6277486817194
0.0313288141756319,15.6289562961783
0.0350984636304398,15.6301204310448
0.039342260462536,15.6312453113721
0.0441262499185195,15.6323342095406
0.0495264875715332,15.6333903037695
0.0556308722394503,15.6344166821576
0.0625499245001046,15.6354175518309
0.0704145541160304,15.6363969163994
0.0793857365265003,15.637359204083
0.0896640279161449,15.6383093592147
0.101507962228526,15.6392533775212
0.115257597304709,15.6401985775935
0.131376447432284,15.6411543910976
0.150529923251628,15.6421339396091
0.17296574458613,15.6431252286284
0.199020001312115,15.6441248794022
0.229435997796798,15.6451456839903
0.265258696540919,15.6462070472306
0.308164064786392,15.6473441343269
0.342884312653476,15.6481966101423
0.378927377071774,15.6490490859577
0.410999290534423,15.6498064407579
0.439066256815699,15.6504953429097
0.463537243151047,15.6511483740022
0.4843731537413,15.6517894321712
0.501137091039202,15.6524403916304
0.512880709697395,15.6531274141141
0.517661079088213,15.6538920489391
0.512356816972259,15.6547058721831
0.49543202867136,15.6555428869691
0.465456954379005,15.6564178823548
0.420666326687854,15.6573412734286
0.373397664220085,15.6581133570948
0.318101826171298,15.6588854407609
0.279472318500189,15.6593770825012
0.239024706238032,15.6598687242415
0.202697943338061,15.6603016569712
0.170499343701786,15.6606871459073
0.141566707879786,15.6610419481074
0.115289727202125,15.661377569799
0.0912331454762995,15.6617026080568
0.0690334064089227,15.6620248898083
0.0483002850100992,15.6623538414169
0.0283988801842684,15.6627064055193
0.00711308535691669,15.6631439393091
-0.00217768292053211,15.6633636812741
-0.0105745051113801,15.6635834232391
-0.0170344711830128,15.6637700128446
-0.0229883451037841,15.6639591806047
-0.0289488191572094,15.6641696159361
-0.0346803110902788,15.6643978769127
-0.0400337114663703,15.6646419161101
-0.0449268767798435,15.6649010575535
-0.0493176029567317,15.6651755371702
-0.0531847273415352,15.665466249453
-0.0566963006740715,15.6657936980851
-0.05944059038669,15.6661202455666
-0.0616710681150364,15.6664684789356
-0.0634038575362233,15.6668417163473
-0.0646531565567069,15.6672437060462
-0.0654322726180588,15.6676790786169
-0.0657521147684276,15.6681536172544
-0.0656194831230267,15.6686746593812
-0.0650345126995819,15.6692519911519
-0.0639851042316306,15.6698997498729
-0.0624431372607567,15.6706366833675
-0.0603520007616652,15.6714914953291
-0.0575929392307219,15.6725147969672
-0.0538498009128777,15.6738269428606
-0.0497973284693584,15.6752151824538
-0.0458867351775037,15.6765582837239
-0.0421627454580201,15.6778604827157
-0.0386470524033056,15.67912393269
-0.0353505674625679,15.680349421824
-0.0322776955284771,15.6815370464846
-0.0294283284737136,15.6826865705993
-0.0267989722398131,15.6837976145197
-0.0243835157365755,15.6848697515577
-0.0221738381582063,15.6859025522045
-0.0201603293513071,15.6868955969755
-0.0183323502916197,15.6878484692032
-0.016678641168203,15.6887607339815
-0.0150979848410984,15.6896859961958
-0.0135774039430852,15.6906350990231
-0.0121210689565748,15.6916098539179
-0.010732836661116,15.6926124690756
-0.00941634346878557,15.6936455433564
-0.0081749520699309,15.6947121648259
-0.00701169614759417,15.6958160406314
-0.00592922184763715,15.6969616730004
-0.00492972535549056,15.698154603587
-0.00401488515194792,15.6994017625309
-0.00318578614228755,15.7007119843532
-0.00244283034683285,15.7020968025564
-0.00178562382751556,15.7035717378425
-0.00121281851223877,15.7051585281139
-0.000744092287160236,15.7068004109921
-0.000368985687386306,15.7084950713331
-7.15926854059344e-05,15.7102610345533
0.000162784381369888,15.7121215373111
0.000348222388073618,15.7141081657385
0.000498756222474421,15.7162668042389
0.000629367334417075,15.7186705732525
0.000758233561036017,15.7214540337914
0.000914613087249665,15.7249429579899
0.00109662715576617,15.7287159785352
0.00132046560423726,15.7328836484798
0.00158905378420623,15.7374578953112
0.00184797163399453,15.7416422320275
0.00210202099727376,15.7456567125141
0.00235438406149773,15.7496161803933
0.00260773067761089,15.7535883524222
0.00286488172711115,15.7576212402794
0.00312894053074251,15.7617536885559
0.00340330713543991,15.7660203991802
0.00369166884347054,15.7704544240709
0.00399808227898826,15.7750893239607
0.00432714777462055,15.7799607395425
0.00468434366882845,15.7851076190858
0.00506927067378062,15.7904716887733
0.00546001261411809,15.7957019203175
0.0058660789534034,15.8008933626716
0.00628720935145039,15.8059988646202
0.0067279225342686,15.8110293313398
0.00719242629064869,15.8159860793156
0.00768588869848054,15.8208760348514
0.0082138049603184,15.8257035422673
0.00878216492080917,15.83047146302
0.00939746786375768,15.8351806053876
0.0100668504913152,15.8398302844953
0.010806369158508,15.8444676279756
0.0116364395924871,15.8491376590475
0.0125745659679512,15.8538423497124
0.0136463674929854,15.8586041543108
0.0148901754866248,15.8634715683997
0.0163752423345062,15.8685637000054
0.0182759890262931,15.8742437443633
0.0207006327043406,15.8805945407341
0.0222434110611049,15.8843424257318
0.0238104620138696,15.8880903107294
0.0251733136549621,15.8914601690513
0.0263221375810411,15.8945718223014
0.0272649869239752,15.8975868739635
0.0279458867292037,15.9004570641941
0.0283602827499808,15.9032692432588
0.028492634453059,15.9061580841391
0.0282794818598764,15.9093457041504
0.027423825446257,15.9136510205452
0.0265567259892727,15.9164714116026
0.0254971135057241,15.91929180266
0.0244231483791963,15.9218172050996
0.023350093797819,15.924161596408
0.0222760339739744,15.9264082424755
0.0212030123762231,15.9286008823779
0.0201345303601642,15.9307658760455
0.0190742998111319,15.9329212528226
0.0180258760899554,15.9350804776104
0.0169925579439167,15.9372542862154
0.0159773644827588,15.9394517081549
0.0149830387738451,15.9416806888521
0.0140120591790378,15.9439484990019
0.0130666486194915,15.9462620321743
0.0121487879011048,15.9486280223334
0.0112602250880418,15.9510532277706
0.0104024814969003,15.9535446016282
0.00957686852011374,15.9561094216184
0.00878448868150646,15.958755464685
0.00801630803682864,15.961528523332
0.00726266299827406,15.9644906538585
0.00652739395942568,15.9676639306476
0.00581437347682966,15.9710745373208
0.00512765991132566,15.9747527737532
0.00447144993489185,15.9787338291683
0.00384998330952625,15.9830589015577
0.00326739433593102,15.9877769262928
0.00272750202805719,15.9929474902212
0.00223350299581681,15.9986465674156
0.00178779868354631,16.0049748949559
0.00139746000255516,16.0119590515018
0.0010705869673199,16.0194953833758
0.000845171318075145,16.0266510633517
0.000668445945207831,16.0343522186197
0.000515346531836524,16.0434322443798
0.00040113267783245,16.0529317126165
0.000317764201931648,16.0629317126165
0.000261885961572262,16.0729317126165
0.000225654996247916,16.0829317126165
0.000203349186633514,16.0929317126165
0.000190922568504138,16.1029317126165
0.00018561816181458,16.1129317126165
0.000185611931983924,16.1229317126165
0.000189728619006279,16.1329317126165
0.000197243230075216,16.1429317126165
0.000207754452703443,16.1529317126165
0.000221108670724115,16.1629317126165
0.000237357934004744,16.1729317126165
0.000256742633313548,16.1829317126165
0.000279695577786752,16.1929317126165
0.000306868503143489,16.2029317126165
0.000339186115851469,16.2129317126165
0.000377938286876075,16.2229317126165
0.000424930071205598,16.2329317126165
0.000479035606976579,16.2423407737761
0.000540351690203426,16.2510537435101
0.000609730125200992,16.2591161438683
0.00068822023967116,16.2665759689491
0.000777033555421701,16.273478161834
0.000877547129714242,16.2798646568948
0.000991320853470036,16.285774604371
0.00112012061563902,16.2912445623811
0.00126594634093309,16.2963086469816
0.00143106102986965,16.3009986877739
0.00161802773369257,16.3053443869642
0.00182974927137689,16.3093734749337
0.00206951849134077,16.3131118419693
0.00234107462058308,16.3165836688527
0.00264867524841756,16.3198115711107
0.00299718551832862,16.3228167470634
0.00339218892881655,16.325619120863
0.0038401341863703,16.3282375065053
0.00434853053033561,16.3306897992567
0.00492621592003668,16.3329931971326
0.00558374283503677,16.3351644906157
0.00632233595424715,16.3371913628917
0.00713588246347614,16.3390590512762
0.00803402216894869,16.3407980165968
0.00903095630471859,16.342438244621
0.0101482544832753,16.3440110465449
0.0114226240528582,16.3455552064212
0.012985221580673,16.3471885895661
0.0151430389615161,16.3491249349344
0.0169419546994225,16.3505545299183
0.0188814441981009,16.3519841249022
0.0206591610020317,16.3532467553133
0.0222283225270431,16.3543666205089
0.0236398073362706,16.3554205206098
0.0249038628225462,16.3564539245664
0.0260079554012275,16.357503588967
0.0269211769166833,16.3586130118502
0.0275828498821739,16.3598562379058
0.0278375632342658,16.3614406854384
0.0274311225416091,16.3631052619121
0.0264500974447034,16.3647698383858
0.0252998504002109,16.3661612046613
0.0239913164492716,16.3675082373637
0.0225227671517357,16.3688924488038
0.0209023364885126,16.3703558474616
0.019135130807979,16.3719383481795
0.0176907365649046,16.373262070239
0.0163268242837281,16.3745857922986
0.0139309107263078,16.3771433209346
0.0118596509121175,16.3796720494576
0.0100333266964447,16.3822457361745
0.00846549233221365,16.3848169477827
0.00717225669686584,16.3872914338677
0.0060490839272503,16.3898047810659
0.00520800295175427,16.3919939835352
0.00457663002743041,16.3938708003689
0.00404589646242055,16.3956510843416
0.00356812072179467,16.3974575573465
0.00311246304449571,16.399413399084
0.00264212407987473,16.4017502368081
0.00211958381553866,16.4048865367525
0.00167514933008016,16.4082476470409
0.00134739830595732,16.4114048623708
0.00108004481302418,16.4147265659995
0.000851416814863997,16.4186032772583
0.0006781140117884,16.4231764940302
0.000591360289579744,16.4282973877397
0.000606332869674122,16.4329070484577
0.000702358966210708,16.4371009545951
0.000869661591087682,16.440907092935
0.00110413982155333,16.4443690806241
0.00140537054773465,16.4475317981764
0.00177586416502665,16.4504413003046
0.00222159968520314,16.4531471329797
0.00275257639572084,16.4556992490477
0.00338502120261235,16.4581516579383
0.00414511664185908,16.4605657243884
0.00507441739925589,16.4630123239718
0.00622671749840879,16.4655504157222
0.00761124793275157,16.4681238907672
0.00912616054828406,16.4705256617371
0.0106631697289061,16.4726277197016
0.0122218075910167,16.4744803868988
0.0138568677048042,16.4761727335909
0.0156042657076969,16.4777449148197
0.0175213688468394,16.4792396434573
0.0196327475396394,16.4806613798151
0.0219840294389128,16.4820252589587
0.0246097347829624,16.4833346424343
0.0275507698535153,16.4845940408663
0.0308539119170377,16.4858079172524
0.0345630363588045,16.4869775718772
0.0387386440211722,16.4881077770114
0.0434447167200747,16.4892015377682
0.0487537605035665,16.4902616487546
0.0547551372051615,16.4912918832771
0.0615551248733374,16.4922960863769
0.0692810700840519,16.4932782047157
0.0780892446106819,16.494242594104
0.0881732844948931,16.4951940513213
0.0997837516572208,16.4961385281348
0.113247087625533,16.4970830794596
0.129006236708946,16.4980367717701
0.14769193813759,16.499012080057
0.169675335324534,16.5000029949916
0.195190335064777,16.5010008225175
0.224950522654916,16.5020177485324
0.259946245927167,16.5030719145677
0.301763478801291,16.504196132366
0.337044597382474,16.5050708077322
0.37389102084051,16.5059454830984
0.406634523748306,16.5067169690025
0.435245296115011,16.507413491871
0.460228390683938,16.5080700902014
0.481606648614327,16.5087115336435
0.499002390584745,16.5093596186575
0.511558161121328,16.5100394158937
0.517533797620809,16.510789043754
0.513830765001132,16.5116009102699
0.49867879701053,16.5124335130145
0.470710077224632,16.513302221538
0.428195426580353,16.5142180444334
0.369247320268482,16.5151898476386
0.326343681839327,16.5157910859159
0.279425846706854,16.5163923241932
0.237477037700557,16.5169019158022
0.201207099610362,16.5173340583693
0.169158545187871,16.5177180048362
0.140353188366167,16.5180717562368
0.114182091161977,16.5184067427262
0.0902145675126301,16.518731492243
0.0680881355853619,16.519053844517
0.0474081987810707,16.5193833807626
0.0275172702199546,16.5197377003329
0.0059947484554171,16.5201838501889
-0.00280877913477432,16.5203939848786
-0.0107972935597163,16.5206041195684
-0.0172111034356537,16.5207898917874
-0.0231692984382673,16.5209797382144
-0.0291261445106773,16.5211907422689
-0.0348483230812929,16.5214194861414
-0.0401892124690853,16.5216639715938
-0.0450681604138015,16.521923554851
-0.049443851826855,16.5221984939333
-0.0532953187846075,16.5224897003608
-0.0567728993340481,16.5228158881114
-0.0595047565598157,16.523142899642
-0.0617233462970544,16.5234916862926
-0.0634445847962994,16.5238655572178
-0.0646826650119343,16.5242682789791
-0.0654508557310301,16.524704505962
-0.0657599898815357,16.525180052873
-0.0656167464775569,16.5257023004181
-0.0650210282581931,16.526281130813
-0.0639604227762031,16.5269307574927
-0.0624063208665867,16.5276700983931
-0.0603011680852647,16.5285281884682
-0.0575238855522958,16.5295564597343
-0.0537489355946148,16.5308785812886
-0.0496993611546022,16.5322655340951
-0.0457932583764283,16.5336075174594
-0.0420745147057673,16.5349086830856
-0.0385644508495391,16.5361711348008
-0.0352737704980892,16.5373956355287
-0.0322067423334953,16.5385822691528
-0.029363159243888,16.5397307938434
-0.0267394513939716,16.5408408277046
-0.024329449248992,16.5419119435288
-0.022124987909985,16.5429437119749
-0.0201164257356741,16.5439357137695
-0.0182931033867159,16.5448875320709
-0.0166437506138928,16.545798731103
-0.0150645108207971,16.5467245906599
-0.013545472095332,16.5476743213595
-0.0120907757419507,16.5486497562239
-0.0107042736497221,16.5496531122732
-0.00938959583045833,16.5506869994888
-0.00815009717212128,16.5517545199167
-0.0069888020692728,16.5528593985179
-0.00590834579208058,16.5540061605859
-0.00491091193759416,16.5552003782284
-0.00399816449619527,16.5564490227558
-0.00317117168496487,16.5577609859923
-0.00243031614346366,16.5591478841553
-0.00177518096450152,16.5606253630297
-0.00120438977436858,16.5622153616428
-0.000738211115001239,16.5638583546146
-0.000365198452771396,16.5655546194264
-6.95023017274784e-05,16.567322712289
0.000163554646302329,16.5691860406576
0.000348041370477614,16.5711764684037
0.000498004391483312,16.5733403766042
0.000628474184099418,16.5757518929198
0.000757776314693229,16.5785480999907
0.000915753675473971,16.5820644497855
0.00109873534950598,16.5858419591596
0.00132434528445148,16.590026049972
0.00159388098479431,16.5946032579888
0.00185330423904605,16.598788285131
0.0021076271350322,16.6028027379794
0.0023601426643983,16.6067617974483
0.00261358869135198,16.6107333014517
0.00287082811847331,16.6147653064313
0.00313499021093901,16.6188966802844
0.00340949002792021,16.623162127213
0.00369802377541711,16.6275946908555
0.0040046542677558,16.6322279144697
0.00433398779948073,16.6370974130944
0.0046915096578035,16.6422420969787
0.0050768482381064,16.6476040592037
0.00546805578919278,16.6528322950038
0.00587465599774659,16.6580218837326
0.00629638948885541,16.6631257076418
0.00673777659736924,16.6681545896626
0.00720303361844134,16.6731098319464
0.00769733915960669,16.6779983262909
0.00822620222059567,16.6828243933637
0.00879562886668374,16.6875908723653
0.00941213684587548,16.6922985529788
0.0100828837798621,16.6969467391317
0.0108243725238876,16.7015849563176
0.0116567186423488,16.7062555683072
0.0125976253265655,16.7109612436888
0.0136729056515822,16.71572475354
0.0149213285796982,16.7205955675816
0.0164133100788683,16.7256954748219
0.0183282179342762,16.731399173004
0.020752980637328,16.7377339190229
0.0222912168858423,16.7414664413759
0.0238515243810522,16.7451989637289
0.0252079092186606,16.7485585470281
0.0263510565719467,16.7516655525492
0.0272880425269598,16.7546798634026
0.0279613843417982,16.7575468834949
0.0283681118348513,16.7603592217873
0.0284918590511295,16.763252714996
0.0282668650836587,16.7664546363496
0.0273763362677253,16.7708362416328
0.026504299641384,16.7736325233154
0.0254454555281307,16.7764288049981
0.0243719695395512,16.7789418537172
0.0232989045293321,16.7812800456246
0.0222248366026798,16.7835232869664
0.0211519559125493,16.7857140701038
0.020083792504296,16.787878213108
0.0190240559388274,16.7900334635339
0.017976290742472,16.7921931225631
0.016943782660402,16.7943678246391
0.0159295376064728,16.7965665344903
0.0149362858405796,16.7987971560748
0.0139664934948379,16.8010669344629
0.013022371776514,16.803382749285
0.0121058902273166,16.8057513297622
0.0112187861892994,16.8081794368047
0.0103625705884626,16.810674033235
0.00953854488370172,16.8132424127664
0.0087478021297221,16.8158923747347
0.00798022487420997,16.8186739445178
0.00722736829736501,16.8216455366026
0.00649306695879729,16.8248294322962
0.00578120346095457,16.8282519927304
0.00509584404666131,16.8319437297787
0.00444118998875622,16.8359400877962
0.00382148001491194,16.840282583691
0.00324083827911455,16.8450205807914
0.00270306272669072,16.8502142734652
0.00221131414820586,16.8559405959752
0.00176795505465144,16.8623017082931
0.0013807680107751,16.8693095953154
0.0010567233141082,16.8768743757193
0.000851080323471843,16.8834441694787
0.000663875830978989,16.8915765576366
0.00051359293132064,16.900544603701
0.000398930050046238,16.9101246687655
0.000316115217113599,16.9201246687655
0.000260623322845854,16.9301246687655
0.000224654552689103,16.9401246687655
0.000202520679292427,16.9501246687655
0.000190202158371771,16.9601246687655
0.000184961167921131,16.9701246687655
0.00018498665055851,16.9801246687655
0.000189111748090784,16.9901246687655
0.000196616736044764,17.0001246687655
0.000207103437199106,17.0101246687655
0.000220419827088465,17.0201246687655
0.000236618308033822,17.0301246687655
0.000255938500198547,17.0401246687655
0.000278811286729091,17.0501246687655
0.000305885132218643,17.0601246687655
0.00033807972865591,17.0701246687655
0.000376677477143765,17.0801246687655
0.000423472282201333,17.0901246687655
0.000477421941499675,17.0995472769754
0.000538569369318517,17.1082732580739
0.000607761338472927,17.1163476675438
0.000686044327254331,17.1238185578563
0.000774627184868067,17.1307309438407
0.00087488413822289,17.1371268255596
0.000988371924792237,17.1430454131436
0.00111685285364041,17.1485233198344
0.00126232277070726,17.153594712835
0.00142704006527756,17.1582914689053
0.00161356249311903,17.1626433335148
0.00182478681779434,17.1666780767354
0.00206399894464673,17.1704216256222
0.00233493002429471,17.1738981946744
0.00264182826752262,17.1771304299343
0.00298954770217613,17.1801395572627
0.0033836585799868,17.1829455253697
0.00383059354054779,17.1855671694303
0.00433784189028445,17.1880224021514
0.0049142163419468,17.1903284346185
0.0055702363591217,17.1925020646014
0.00630757616954978,17.1945321224497
0.00711974081892608,17.1964024614715
0.00801630538646977,17.1981435549508
0.00901138438933211,17.1997854043706
0.0101263847807889,17.2013592712933
0.0113976547596416,17.2029037434462
0.0129539607362096,17.2045348235841
0.0150960502321313,17.2064624422066
0.0168955338462928,17.2078959809462
0.0188373938375571,17.2093295196858
0.0206204082111945,17.210596676289
0.0221929869658093,17.2117187109424
0.0236072967926827,17.2127735648226
0.0248742488403183,17.2138071241075
0.0259816844812368,17.2148561625485
0.0268991259296521,17.2159638718407
0.0275668100806699,17.2172031874074
0.0278333777506659,17.2187754489115
0.0274395433288213,17.2204471297829
0.026463477047178,17.2221188106542
0.0253160338557302,17.22351235526
0.0240104671559485,17.2248592947055
0.0225447868164899,17.2262424899664
0.0209271132608347,17.2277041737372
0.019162668876973,17.2292841489657
0.0177482455560351,17.2305782486237
0.0164103337018559,17.2318723482818
0.0140058710004806,17.234427564885
0.0119292066302819,17.2369500983945
0.0101033282066355,17.2395077849971
0.00852209284320905,17.2420838756538
0.00722064520086798,17.24455736754
0.00609059218080376,17.2470683645221
0.00522901784799616,17.2492973796421
0.00459078010709468,17.2511861512956
0.00405827955404242,17.2529648408186
0.00358118432278101,17.2547601867641
0.00312842732527815,17.2566917954776
0.00266515302294052,17.2589729209986
0.0021381926165043,17.262098826323
0.00168934982004114,17.2654486008835
0.00135746650202862,17.2685976185805
0.00108806342386142,17.2718827424194
0.000857294606885008,17.2756910862509
0.000677533623369307,17.280231629566
0.000582402301535741,17.2853128490538
0.000588677050434967,17.2899749015677
0.000677038809995061,17.2942075553554
0.000837097579862649,17.2980489769161
0.00106436450707327,17.3015414823004
0.00135814847235583,17.304729951952
0.00172072365501231,17.3076605831575
0.00215769158464251,17.3103824915736
0.00267867907324217,17.3129460171103
0.00329925336950589,17.3154048737377
0.00404472478072257,17.3178204324001
0.00495567899873502,17.3202642861269
0.00608748973627556,17.3228019424363
0.00746083070233434,17.3253970594929
0.00897483748473086,17.327833982829
0.0105125076357772,17.3299670574739
0.0120644084081889,17.3318376429198
0.0136890912866644,17.3335431710341
0.0154205029837059,17.3351235782241
0.0173192160658044,17.3366259034444
0.0194068688858452,17.3380528155395
0.0217324213387753,17.3394223038413
0.0243267486096222,17.3407358486859
0.0272341165162759,17.3419999497636
0.0304990115784964,17.343218137493
0.0341649481287477,17.3443917811769
0.0382916091946436,17.3455256546259
0.0429419154309605,17.346622723066
0.0481861635163353,17.3476855712096
0.0541140619756038,17.348718348613
0.0608290601743346,17.3497246908179
0.0684558932109558,17.350708502509
0.0771464194291716,17.3516739825322
0.0870913048199135,17.3526260438245
0.0985337031112825,17.3535704337109
0.11179019579343,17.3545140242361
0.127288359527209,17.3554655876726
0.145632900696114,17.3564370776716
0.167289403528486,17.3574272143213
0.192413782684681,17.3584230966704
0.221697137656952,17.3594364168243
0.256089361123075,17.3604843454217
0.297076616822615,17.3615970689373
0.332935437118718,17.362491488771
0.37056813783597,17.3633859086048
0.403869473107189,17.3641679687343
0.43291243296641,17.3648696633686
0.458293915748555,17.365528375685
0.480086324551726,17.3661696631786
0.497954355022623,17.3668153673064
0.511100714937028,17.3674899389852
0.517910901618784,17.3682295124817
0.515335209317387,17.3690397305688
0.501416234254801,17.3698690606989
0.474828234878274,17.3707332980499
0.433865241464287,17.371643918019
0.376643554985767,17.3726096299296
0.333063584101987,17.3732301253719
0.285056049780091,17.3738506208143
0.242193985423468,17.3743729871476
0.205299099108503,17.3748124647876
0.17279364846038,17.3752008213566
0.143627134216607,17.3755573072192
0.117157214276535,17.3758938986712
0.0929380685712522,17.3762193374007
0.0706031764106391,17.3765414422316
0.0497679438433111,17.3768694121855
0.0298296063820463,17.3772192286618
0.00884444006951684,17.3776446115164
-0.00136223775738419,17.3778826656228
-0.00865717182610036,17.3780701891464
-0.0153234733556299,17.3782577126699
-0.0212061253552463,17.3784392449188
-0.0271929680855627,17.3786435578416
-0.0330146894531841,17.3788666813646
-0.0384941997651915,17.3791060191888
-0.0435327315320932,17.3793605437808
-0.0480782076106652,17.3796302535685
-0.0521062614022477,17.3799158635048
-0.055858630458929,17.3802441009022
-0.058750619762552,17.3805649329566
-0.0611240908466119,17.3809066079325
-0.0629958095475151,17.3812723645775
-0.0643799626453439,17.3816657396447
-0.0652902630568154,17.3820910933594
-0.0657384600589542,17.3825538531738
-0.0657327034241876,17.3830608711725
-0.0652755172753233,17.3836209760665
-0.0643585307165983,17.3842472561721
-0.0629588630197984,17.3849567268799
-0.0610298266308254,17.3857746083524
-0.0584760193764532,17.3867432532985
-0.0550669059953674,17.3879527450342
-0.0509837693353926,17.3893564714691
-0.0470243582504807,17.3907123105346
-0.0432420465447667,17.3920262208224
-0.0396631297807594,17.3933009595647
-0.0363010474467853,17.3945376183428
-0.0331618384248077,17.3957364430704
-0.0302465765755366,17.3968972664575
-0.0275526728161859,17.3980197355248
-0.0250747184533136,17.3991034293932
-0.0228051279018638,17.4001479158169
-0.0207346799111069,17.4011527716048
-0.0188529941560445,17.4021175803998
-0.0171489542989925,17.403041915202
-0.015551870258469,17.4039603868463
-0.0140133668017818,17.4049023617662
-0.0125379540116721,17.4058694052205
-0.0111295416475156,17.406863627419
-0.00979183624569374,17.4078875038654
-0.00852828625386751,17.4089439678618
-0.00734202766513401,17.410036529825
-0.00623582649231962,17.4111694379552
-0.00521201761445544,17.4123478996355
-0.00427243883277415,17.4135783949271
-0.00341835782715734,17.4148691350204
-0.0026503876275856,17.4162307592746
-0.00196838215283243,17.4176774470902
-0.00137129472858351,17.419228802659
-0.000871676502974943,17.4208587828988
-0.00047090408828345,17.4225360182139
-0.000152362867334846,17.4242788217206
9.89041873586272e-05,17.4261086188032
0.000297103869993532,17.4280540900804
0.000456201943384204,17.4301560017756
0.00059074531932371,17.4324773345176
0.000717562075351467,17.4351282747311
0.000860874319776552,17.4383490308603
0.00103558333004507,17.4420883880261
0.00124348406527641,17.4460962301691
0.00151117098468379,17.4507674378249
0.00177314763790205,17.4550562378863
0.00202817455252924,17.4591112215105
0.00228019865046754,17.4630773897207
0.00253210486462121,17.4670346685547
0.00278673480592741,17.4710364963209
0.00304714024831965,17.4751241814109
0.0033166497577327,17.4793335927243
0.00359884897463587,17.4836980140254
0.00389764737646814,17.488250575006
0.00421741424814011,17.4930259318252
0.00456324895864555,17.4980616074657
0.00494147926743764,17.5033992771731
0.005328709095103,17.5086587177955
0.00572967383076093,17.5138710642975
0.00614510878345551,17.5190044614791
0.00657869169969984,17.5240610192741
0.0070344748485447,17.5290420601464
0.0075174242069683,17.5339542205968
0.00803289252471167,17.5388024403435
0.00858671383662893,17.5435902809392
0.00918520655872527,17.5483192239466
0.00983528188412386,17.5529890564226
0.0105469347637346,17.5576130786744
0.0113447483666118,17.5622744337824
0.0122435084331581,17.566965203026
0.0132663275773214,17.5717040487241
0.0144459732245057,17.5765271756068
0.015837619552295,17.5815213138512
0.0175618114554724,17.5869244319453
0.0199814114531751,17.5935111204311
0.0215936550982039,17.5975048534268
0.0232616077161836,17.6014985864226
0.0247138054931721,17.6050247125451
0.0259368130182298,17.608208117206
0.0269539658769594,17.61124174181
0.0277315269223981,17.6141610333302
0.0282423962225916,17.6169800953599
0.0284803493637326,17.6198230340716
0.0284048794941349,17.6228639364115
0.0278638084996644,17.6265426880743
0.0270502852811984,17.6296805463145
0.0259687205455751,17.6328184045548
0.024884660432049,17.6354874167888
0.0238108533394903,17.6378977087893
0.02273707730994,17.640179449384
0.0216632048991092,17.6423913250221
0.0205923111241757,17.6445655986796
0.0195280887459376,17.646723229655
0.0184741806230893,17.6488793421052
0.0174340011116682,17.651045682155
0.0164106891561865,17.6532319174796
0.0154071055677848,17.6554463962219
0.0144258404791238,17.6576966362155
0.0134692244779184,17.6599896613565
0.0125393423702509,17.6623322438115
0.0116380394563469,17.66473111115
0.010766933195052,17.6671931102802
0.00992742500344178,17.66972535363
0.00912070450802032,17.6723353831079
0.00834737276950281,17.6750327287179
0.00758692343686325,17.6779107154967
0.00684324292796347,17.68098961835
0.00612011019104927,17.6842940576651
0.00542150809501632,17.6878524652523
0.00475158334432172,17.6916977948581
0.0041145712047914,17.6958684793837
0.0035146751138146,17.7004098231411
0.00295588137407646,17.7053763145274
0.0024416875338905,17.7108359798402
0.00197485309516921,17.7168775811601
0.00155733475586628,17.7236205630544
0.00120400887530438,17.7309076702742
0.000918113737138001,17.7388075004307
0.000712292498830608,17.7469231146427
0.000562003767801886,17.7550594438858
0.000434314489528436,17.7645316264413
0.000340350115731017,17.7745316264413
0.000276847879468442,17.7845316264413
0.000235176812426722,17.7945316264413
0.000209021137686029,17.8045316264413
0.000193859279667017,17.8145316264413
0.000186572614251578,17.8245316264413
0.000185079082513924,17.8345316264413
0.000188025326445275,17.8445316264413
0.000194562429637687,17.8545316264413
0.000204198985097056,17.8645316264413
0.000216711266747226,17.8745316264413
0.000232091919791338,17.8845316264413
0.000250525665902448,17.8945316264413
0.000272387049887005,17.9045316264413
0.000298260022216247,17.9145316264413
0.000328983194280503,17.9245316264414
0.000365729542125496,17.9345316264414
0.00041013711562132,17.9445316264414
0.000462268530473947,17.9541475792754
0.000521431385752184,17.9630600670376
0.000588393836848131,17.971307334723
0.000664155529805286,17.9789381145908
0.000749882222247286,17.9859983138706
0.000846902884397508,17.9925307595038
0.00095672395746424,17.9985754245938
0.00108105093862789,18.0041696331425
0.00122181519046646,18.0093482203695
0.00138120265030855,18.0141436852602
0.00156168823251616,18.0185863499148
0.00176607476992466,18.0227045183983
0.00199754060055662,18.0265246167182
0.0022596928215816,18.030071320121
0.00255663591514395,18.0333676942398
0.0028930543031003,18.0364353448163
0.00327431716904231,18.039294560289
0.00370661390174913,18.0419644686709
0.00419713319545102,18.0444632219895
0.00475430862638187,18.0468082073776
0.00538816561743018,18.0490163138014
0.00610715708368081,18.0510946003409
0.00689902840335314,18.0530049154928
0.00777238882816748,18.0547779002596
0.00874008638245012,18.0564438320554
0.00982118436766814,18.0580332903869
0.0110469698301926,18.0595821077105
0.0125126995659045,18.0611793338252
0.0144459201095585,18.0629921629375
0.0163772265870634,18.0645815102807
0.018497002988485,18.0661708576238
0.0203436537232812,18.067489372169
0.0219448583661566,18.068629587434
0.0233813136127955,18.0696920410319
0.0246705786564968,18.0707270387358
0.025803437010061,18.0717717080502
0.0267525385739946,18.0728671999419
0.0274644312256906,18.0740790115748
0.0278133526025628,18.0755706044372
0.0275109662945124,18.0773046948674
0.0265624655789973,18.0790387852976
0.0254298423153589,18.080450327262
0.0241420861217257,18.0817975524803
0.0226939716106822,18.08317490134
0.021093205175985,18.0846264909788
0.0193456528945533,18.0861915775089
0.0187059253941397,18.0867684674044
0.018075286350778,18.0873453572999
0.0170069680040902,18.0883575838865
0.0145212999411022,18.0909234669599
0.0123755524971464,18.0934502425662
0.0104977153016227,18.0959950643584
0.00883971211879289,18.0986060933807
0.00749258216468987,18.1010810104596
0.00632738157847963,18.1035808166047
0.00539643060906644,18.1059111407308
0.00472624524859593,18.1078380292595
0.00417613723525717,18.1096254591611
0.00368806637857115,18.1114115217879
0.0032293364140198,18.1133115416568
0.0027671182042571,18.115511911375
0.00222547057116143,18.1186038403589
0.00176281265328753,18.1219141342952
0.00141640449373187,18.1250535199947
0.00113770473364081,18.1282814723636
0.00089860824825862,18.1319795743428
0.000705116154290674,18.136434970515
0.000593360799519058,18.1414097588643
0.000582169853387352,18.1461697487383
0.000656209664582797,18.1504715713076
0.000803451071005316,18.1543781195844
0.00101849935253139,18.1579284058659
0.00130000830995208,18.1611664457247
0.00164978987231064,18.1641390026207
0.00207280485621539,18.1668944970206
0.00257796261338446,18.1694833747818
0.00317958396677858,18.1719583110987
0.00390122876325544,18.1743799660769
0.00478063969990954,18.1768184234019
0.00587259727625271,18.1793450816262
0.00721195424545986,18.1819526196557
0.00870997942281403,18.1844321454282
0.0102450958112092,18.1866184624396
0.0117869669464545,18.1885248962899
0.0133944704981735,18.1902558907368
0.0151006153877976,18.1918539443788
0.0169682155998671,18.1933709648515
0.0190171341587876,18.1948092252507
0.0212986307448254,18.1961894881901
0.0238403123350627,18.1975118127562
0.0266894652639421,18.1987848691084
0.0298858997360896,18.2000105394322
0.0334765273533291,18.2011918806185
0.0375176382278404,18.2023328592561
0.0420694255505951,18.2034361675537
0.0472020672711034,18.2045048285932
0.0530020445972558,18.205542803339
0.0595693929206697,18.2065536614679
0.0670245561186415,18.2075412454896
0.0755130130905652,18.2085095911756
0.0852195105828597,18.2094636916609
0.0963759987527317,18.2104090472378
0.109283804980486,18.2113522781849
0.124347250052484,18.2123017551499
0.142131648803157,18.2132686746914
0.163236475699308,18.2142588243571
0.187705994321939,18.2152530333656
0.216198099843978,18.2162623388168
0.249605852531861,18.217302658318
0.289282738364987,18.2184008360862
0.334751900402562,18.2195421552316
0.374026536369464,18.2204738804459
0.406991791521144,18.2212490197617
0.435643658776961,18.2219450699988
0.460657092817783,18.2226010086249
0.48206486356803,18.2232418193705
0.4994903988355,18.223889326756
0.512076163463114,18.2245686460285
0.518079299286774,18.2253180320185
0.51439498194786,18.2261294449878
0.499254022237594,18.2269617103439
0.471286355056215,18.227830236837
0.428758057227886,18.2287460613889
0.369776075192171,18.2297180193755
0.326799201624867,18.230319941884
0.279793094810135,18.2309218643924
0.237773935052299,18.2314318677634
0.201454193107362,18.2318641964668
0.169368156520429,18.2322482118953
0.140532754383987,18.2326019688775
0.114336592506412,18.2329369208643
0.0903476569834525,18.2332616053868
0.0682027265287955,18.2335838634139
0.0475069397946338,18.2339132667192
0.0276036007592049,18.2342673714304
0.00608349107532351,18.2347128471015
-0.00275273643462925,18.2349234578692
-0.0107690569049083,18.235134068637
-0.0171879253535058,18.2353197860569
-0.0231475934963929,18.235509468585
-0.0291069254179171,18.2357203146951
-0.0348322149413897,18.2359489040437
-0.0401765046364383,18.2361932339173
-0.045058937450365,18.2364526572422
-0.0494380757291143,18.2367274294666
-0.0532931113169058,18.2370184598817
-0.0567856218501301,18.2373456405488
-0.0595189076920211,18.2376725463998
-0.0617386366610307,18.2380212060784
-0.0634608827001579,18.2383949437522
-0.0646998496966581,18.2387975258198
-0.0654688158337131,18.2392336064098
-0.0657786223770488,18.2397090001639
-0.0656359544331776,18.2402310880953
-0.065040719843607,18.2408097511693
-0.0639805025966928,18.2414592059665
-0.0624266748512842,18.2421983751138
-0.0603216338054428,18.2430563048065
-0.0575441690818654,18.2440844593449
-0.0537682178955804,18.2454066542978
-0.0497171963894784,18.2467937810249
-0.045809561307807,18.248135959199
-0.0420892405694166,18.2494373384685
-0.0385775828668203,18.2507000192668
-0.0352853133078002,18.2519247618742
-0.0322167188619238,18.2531116480331
-0.0293716086036392,18.2542604341388
-0.0267464264923173,18.25537073682
-0.0243350144276617,18.2564421276658
-0.022129216255462,18.2574741763995
-0.0201193965121318,18.258466463087
-0.0182948994684815,18.2594185705192
-0.0166444561656044,18.2603300628679
-0.0150649528014035,18.2612557518404
-0.0135456237339345,18.2622053036581
-0.012090618476056,18.2631805452691
-0.010703790451989,18.2641836911754
-0.00938877172522428,18.2652173482016
-0.00814891972698094,18.2662846144388
-0.00698726192855144,18.2673892098202
-0.00590643727721012,18.2685356531391
-0.00490863372285353,18.2697295079293
-0.00399552039311951,18.2709777339162
-0.00316817160107693,18.2722892068043
-0.00242697732582085,18.273675519543
-0.00177152971913103,18.2751522827246
-0.00120046407567742,18.2767413787647
-0.000733873413584949,18.2783840557331
-0.000360585663975154,18.2800798659851
-6.4738560851387e-05,18.2818473566889
0.000168347099274553,18.2837098870878
0.000352737250816352,18.2856992426451
0.000502467420520595,18.2878616641499
0.000632541857032177,18.2902709944222
0.000761221341373509,18.2930636012463
0.00091812593101236,18.2965721761665
0.0011001756798168,18.3003483905598
0.00132456670150334,18.3045278185077
0.001594077375472,18.3091210233474
0.00185301562574972,18.3133110082348
0.00210662894715499,18.3173256741279
0.00235830347028956,18.3212824194211
0.00261080867014905,18.3252498947285
0.00286701559656821,18.3292765078041
0.00313004903728177,18.3334012747505
0.00340331218787639,18.3376589524148
0.00369048238966174,18.3420825612612
0.00399559616444092,18.3467055690323
0.00432322229031373,18.3515634692628
0.00467878984364879,18.3566950107989
0.00506350108388729,18.3620647741593
0.00545355942670205,18.367294200937
0.00585913446883966,18.3724881304863
0.00627966636097589,18.3775955447025
0.00671971312475788,18.3826280740206
0.00718343147040616,18.3875865810264
0.00767598573096336,18.3924781125071
0.00820285870009255,18.3973070387022
0.00877003208815414,18.4020763023931
0.00938399377058763,18.4067867722703
0.0100518656318771,18.4114378054857
0.0107892716657769,18.416074203428
0.011616915854242,18.4207435781145
0.0125521066710651,18.4254472185357
0.0136202684018915,18.4302072576236
0.0148592926334622,18.4350712099753
0.0163372688158206,18.4401555032463
0.0182237531420025,18.4458120252852
0.0206481614133277,18.4521792377676
0.022195485154408,18.455942814807
0.0237693305437018,18.4597063918464
0.0251387467266102,18.4630868575366
0.0262932981506924,18.4662033310587
0.0272420404663275,18.4692192260549
0.0279305515008706,18.4720926962085
0.0283526533962408,18.4749048002835
0.0284936216170286,18.477789090603
0.0282922209508834,18.4809627269369
0.0274695062153366,18.4851969303046
0.0266072264287355,18.4880416190069
0.0255466842546584,18.4908863077092
0.0244721806347914,18.4934239308163
0.023399122295904,18.495774363851
0.022325074867584,18.4980242988425
0.0212519297912842,18.5002187181775
0.0201831583593857,18.5023845139344
0.0191224739894866,18.5045399895519
0.0180734422082513,18.506698767934
0.0170393741838191,18.5088716817742
0.0160233016776462,18.5110678216955
0.0150279800863799,18.5132951712526
0.0140558995364112,18.5155610236108
0.0131092942214526,18.5178722830581
0.0121901558052936,18.5202356847784
0.0113002426112151,18.522657980658
0.010441085916084,18.5251461096884
0.0096140065861417,18.5277073283529
0.00882011611341867,18.530349385007
0.00805135708723729,18.5331142678821
0.00729695738116685,18.5360673068327
0.00656076213437546,18.5392303810199
0.0058466343348939,18.5426295032599
0.00515862480522772,18.5462947694494
0.00450092574667947,18.5502611235447
0.00387777775999066,18.5545694575382
0.00329332451090574,18.5592682985421
0.00275140485868856,18.5644166557745
0.00225524953061019,18.5700895931372
0.00180729789720249,18.5763864927391
0.00141391928529866,18.5833479763127
0.00108432140009776,18.5908571455929
0.000817759618641948,18.5993663326145
0.000663349283351567,18.6063006978369
0.000509178990862405,18.6155678930926
0.000398995688994628,18.6248685030283
0.000316404878692171,18.6348685030283
0.000261044959958731,18.6448685030283
0.000225179398562693,18.6548685030283
0.00020314568904774,18.6648685030283
0.000190930502049591,18.6748685030283
0.000185797222179838,18.6848685030283
0.00018593684196849,18.6948685030283
0.000190186165046003,18.7048685030283
0.00019783012608252,18.7148685030283
0.00020847584334331,18.7248685030283
0.000221977396346836,18.7348685030283
0.000238394634004179,18.7448685030283
0.000257976735275516,18.7548685030283
0.000281167292798503,18.7648685030283
0.000308632116072144,18.7748685030283
0.000341315130198666,18.7848685030283
0.00038053342203741,18.7948685030283
0.000428131871607954,18.8048685030283
0.000482713823109026,18.8142336986889
0.000544555428680472,18.8229041249995
0.000614528136281739,18.8309268937544
0.000693693504335556,18.8383498922429
0.00078327482529515,18.8452179002182
0.000884661772714361,18.8515726964638
0.000999428315293011,18.8574532842198
0.00112935626806757,18.8628960814618
0.00127646358723268,18.8679350703587
0.00144303363480124,18.8726019541214
0.00163165267830144,18.8769263166748
0.00184525003587725,18.8809357777632
0.00208714882644697,18.8846561235861
0.00236112340992023,18.8881114386866
0.0026714721788496,18.8913242512943
0.00302310853550638,18.8943156811365
0.00342167361779843,18.8971055834791
0.00387368616918555,18.8997127153391
0.00438674254012416,18.9021549290998
0.0049697915939706,18.9044493978319
0.0056335316716208,18.9066129121904
0.00637725805456286,18.9086282880837
0.00719653032152866,18.9104866579236
0.00810128915316671,18.9122184870633
0.00910615174297484,18.9138537706333
0.0102334787573838,18.9154241509407
0.0115217528140244,18.9169694934272
0.0131133098983944,18.9186164768358
0.0153491263400819,18.9206008519738
0.0171008469685286,18.9219813933047
0.0189794027704696,18.9233619346356
0.0207363067040698,18.924610337129
0.0222945164844874,18.9257254053701
0.0236968821163219,18.9267777491512
0.024951679047599,18.9278116474839
0.026045382225504,18.928863854615
0.0269459382897509,18.929978731197
0.0275901927601325,18.93123339752
0.0278112806313524,18.9328526277994
0.0273705328432389,18.9345008249491
0.0263749629440923,18.9361490220989
0.0252166413936322,18.9375357219956
0.023900119094255,18.938883802934
0.0224241840000031,18.9402714738933
0.0207969670897595,18.9417401874847
0.0190232524329973,18.9433301750612
0.0171228940498284,18.9450959875725
0.0156913894528142,18.946525293409
0.0133853159027573,18.949069010147
0.0113847437888244,18.9515979368357
0.00960219149314579,18.9542062374124
0.00811447010627364,18.9567435495742
0.00686771241274083,18.9592251706002
0.00578324854908972,18.9617537199934
0.00502017655875041,18.9638175866661
0.00442485930537928,18.9656468093785
0.00391202711382303,18.9674224352502
0.003442076693134,18.9692585927126
0.00298466520892706,18.9712957055644
0.00249330800698904,18.9738561661505
0.00199174888595682,18.9770483449102
0.00158273972062261,18.9803329126251
0.00127432506394598,18.9834868416726
0.00101639486746578,18.9869189562578
0.000796092662506146,18.9910246142568
0.000642844203663106,18.995728406721
0.000582509328531237,19.0007692762599
0.000618367580441327,19.0052649676906
0.000732201652023627,19.009356762781
0.000915862456897659,19.01307097857
0.0011663218839437,19.0164524348428
0.00148390461399479,19.019546110897
0.00187193452357707,19.0223990627311
0.00233737593039574,19.0250613978575
0.00289155782642251,19.027583698417
0.00355311577776921,19.0300225635226
0.00435190615670752,19.0324422219964
0.0053350334262096,19.0349168571133
0.00655534995162909,19.037491507838
0.00798762318288615,19.0400480202796
0.00951645249173297,19.0423830553189
0.0110523009431329,19.0444117616048
0.0126238433815936,19.0462178771611
0.0142792103696739,19.0478741272204
0.0160650074376813,19.0494260541129
0.0180241391088931,19.0508999012531
0.0201935669827841,19.0523081789614
0.022607813268897,19.0536571544311
0.0253103692998119,19.0549547361919
0.02833596972565,19.056201746381
0.0317356435374229,19.0574041126521
0.0355574315712744,19.0585639377505
0.0398586546168319,19.0596843606019
0.0447080938705877,19.0607691841676
0.0501834354458782,19.0618216462922
0.0563742725942722,19.0628448332202
0.0633930260228518,19.0638429092231
0.0713738004508822,19.0648199550235
0.0804815096610226,19.0657804517703
0.0909231466537323,19.0667295157884
0.102962956524972,19.0676730852672
0.11695294861591,19.068618738127
0.133374087534152,19.0695762079016
0.152921383881445,19.0705591560054
0.175736973171004,19.0715506543103
0.202244171157486,19.0725516970657
0.233211509290113,19.0735755807422
0.269731759262947,19.0746428148274
0.313103479079256,19.0757792453924
0.347428194335443,19.0766157745159
0.382901640543385,19.0774523036394
0.414487433210437,19.07819932082
0.442150170552295,19.0788825089893
0.466233381669333,19.079532837084
0.486652356971692,19.0801736540903
0.502922938749296,19.0808269912092
0.514019753996925,19.0815200233653
0.517818249203805,19.082297486131
0.51122879444835,19.083112964961
0.492871809170171,19.0839536036037
0.461268618958282,19.0848337144035
0.414626789545153,19.0857632798233
0.367917078926124,19.0865090751834
0.313841150389139,19.0872548705435
0.265846842963941,19.0878580240809
0.225609436830272,19.0883421643502
0.190776545793679,19.0887567817597
0.15982118099111,19.0891296885691
0.13189162287802,19.089476466433
0.106449013435731,19.0898073530525
0.0830936239583238,19.0901304481099
0.0614652941839194,19.0904538125519
0.0411259440291053,19.0907884640382
0.0211941033835204,19.0911584152517
0.00588297923343575,19.091484098895
-0.00266847294032808,19.0916881269758
-0.0104506833386499,19.0918921550566
-0.0169016816764529,19.092078081893
-0.0228512495456139,19.0922666289995
-0.0288152702285758,19.0924765719772
-0.0345549367181717,19.0927044090605
-0.0399190721778542,19.0929480523802
-0.0448243142763612,19.0932068001527
-0.0492277336033563,19.0934808705687
-0.0531080790995658,19.0937711444032
-0.0566517953160611,19.0940999816936
-0.059405971372896,19.0944261455156
-0.0616458081413079,19.094773919745
-0.0633876575416699,19.095146636242
-0.0646457251684629,19.0955480296664
-0.0654333504908047,19.0959827129246
-0.065761501947631,19.0964564459293
-0.0656370714032456,19.0969765343014
-0.0650603666684159,19.0975526928671
-0.0640195187537725,19.0981990042724
-0.0624867589254364,19.0989340933026
-0.060406147817507,19.0997864257433
-0.057660568331937,19.1008060288206
-0.0539403920957545,19.1021109396702
-0.0498853450481111,19.1035002027254
-0.045970941210276,19.1048442031946
-0.042242534712886,19.1061472455465
-0.0387221111752421,19.1074115186434
-0.0354207481821991,19.1086378284466
-0.0323429615918342,19.1098262797921
-0.0294887253706521,19.1109766402103
-0.0268546090959378,19.1120885311591
-0.0244345513231522,19.113161525873
-0.0222204690143739,19.1141951943522
-0.0202027792769102,19.1151891166893
-0.0183708609178754,19.1161428761859
-0.0167134636045106,19.1170560385348
-0.01513160417553,19.1179807950352
-0.0136097114541291,19.1189293665742
-0.0121519806013639,19.1199035463678
-0.0107622724623812,19.120905535168
-0.00944422879418137,19.1219379224637
-0.00820121880683207,19.1230037845473
-0.00703628394906244,19.1241068135758
-0.00595207945691996,19.1252514923784
-0.00495081203176359,19.126443337015
-0.00403417224187933,19.1276892430489
-0.00320325888757973,19.1289979969163
-0.00245849008795604,19.1303810627811
-0.00179949092189134,19.1318538566246
-0.00122493665500696,19.1334379482495
-0.000754003597517827,19.1350789001454
-0.000377072513881045,19.1367722131761
-7.81889141524797e-05,19.1385363882106
0.000157362433399796,19.1403945191251
0.000343665647510943,19.1423779603693
0.000494746710846069,19.1445321830456
0.000625547429993697,19.1469294726139
0.00075412550297705,19.149702313645
0.000909268234329968,19.1531686298899
0.00109054987151383,19.1569380589748
0.0013129736323634,19.1610921946166
0.00158284095537737,19.1656977790443
0.001842210945085,19.1698942767282
0.00209630457737556,19.1739126150148
0.00234847420401801,19.1778715883223
0.00260145162254507,19.1818403850033
0.00285808198851811,19.185867673447
0.00312147409076021,19.1899925904686
0.00339502451857324,19.1942499718508
0.0036824080470608,19.1986728694889
0.00398766006716511,19.2032947568056
0.00431534636655081,19.2081511110991
0.0046708880289218,19.2132806487868
0.00505574652287073,19.2186517315696
0.00544582458226635,19.2238815340395
0.00585140317166435,19.2290764766995
0.00627186604709356,19.2341848158445
0.00671177968069672,19.239218334841
0.00717528505486655,19.2441777575061
0.00766754348206293,19.2490701614931
0.00819403114366365,19.2538999209345
0.00876072367972643,19.2586700015324
0.00937410134636739,19.2633812909267
0.0100412768066228,19.2680331603495
0.0107776180066735,19.2726690110575
0.0116040057345482,19.2773380168997
0.0125376334287333,19.2820410585765
0.013603814394168,19.2868000881674
0.0148401894581453,19.2916620595684
0.0163141879543737,19.2967418751096
0.0181926356231001,19.3023850649662
0.0206170020282092,19.3087618505056
0.0221669901466803,19.312534539415
0.0237447983150986,19.3163072283243
0.0251180605132515,19.319693913821
0.0262759518134887,19.3228132304403
0.0272281151959826,19.3258296658429
0.0279210379766735,19.3287050812635
0.0283475947224427,19.3315172027615
0.0284935244582633,19.3343989626734
0.0282988303240585,19.3375647777461
0.027494187249692,19.3417605010822
0.0266346327229492,19.344619198794
0.0255735045204086,19.3474778965057
0.0244986798264662,19.3500224755183
0.0234256223723061,19.3523763221575
0.0223515899556533,19.3546281181486
0.0212783851460977,19.3568235557311
0.0202094616496377,19.3589898276351
0.0191485334943842,19.3611453915013
0.0180991717515129,19.3633039590865
0.0170646944165191,19.3654764177437
0.0160481402165716,19.3676718928429
0.0150522713386804,19.369898389987
0.0140795843888905,19.3721632158146
0.013132319774476,19.3744732817213
0.0122124751557067,19.3768353249188
0.0113218145280366,19.3792560953436
0.0104618746961165,19.3817425260189
0.00963398180593083,19.3843018638739
0.00883925237676292,19.3869418440262
0.00807018842499745,19.389702295581
0.00731538754143109,19.392650407991
0.0065786977360457,19.3958079534002
0.00586397670387502,19.3992008519844
0.00517527105591346,19.4028590889305
0.00451677040599855,19.4068174750585
0.00389271560251303,19.4111167362811
0.00330725510664881,19.4158051785554
0.00276423826351858,19.4209414981501
0.00226691403673039,19.4266002662419
0.00181774232652864,19.4328801278984
0.00142270143875298,19.4398293735437
0.00109161141901735,19.4473238831455
0.000826730718665426,19.4556784927003
0.0006692618949881,19.4626553984524
0.000514643191989562,19.4718318252427
0.000402912269695448,19.4811203629954
0.000318979187499519,19.4911203629954
0.0002626550375018,19.5011203629954
0.000226095512585273,19.5111203629954
0.000203558961125689,19.5211203629954
0.000190971650726884,19.5311203629954
0.000185552174710431,19.5411203629954
0.000185459400862437,19.5511203629954
0.000189507224300137,19.5611203629954
0.000196963702144954,19.5711203629954
0.00020742264287377,19.5811203629954
0.000220726602120565,19.5911203629954
0.000236924328635353,19.6011203629954
0.000256253104832007,19.6111203629954
0.000279142511218951,19.6211203629954
0.000306240566571866,19.6311203629954
0.000338467291424011,19.6411203629954
0.0003771062173543,19.6511203629954
0.000423953349381959,19.6611203629954
0.000477952510838001,19.6705408190077
0.000539154466908697,19.6792646961145
0.000608406734405385,19.6873371314869
0.000686756398090185,19.6948061760046
0.000775412990980299,19.7017168392226
0.000875751511871071,19.7081111156879
0.000989329576509343,19.7140282100776
0.0011179104996696,19.7195047302912
0.00126349128461909,19.7245748382406
0.00142833164053323,19.7292704055641
0.00161499085204517,19.7336211728962
0.00182636744628167,19.7376549058346
0.0020657493774649,19.7413975272407
0.00233687019397138,19.7448732477582
0.00264398092441829,19.7481047100265
0.00299193896642105,19.7511131370111
0.00338631862871613,19.7539184750821
0.00383355752551653,19.7565395578071
0.00434115119903854,19.758994297245
0.00491792035476961,19.7612999050957
0.00557439504032533,19.7634731815855
0.0063121146107571,19.7655026099013
0.00712470231462586,19.7673724650392
0.00802175638294265,19.7691132255019
0.00901742383318578,19.7707548990467
0.010133173258171,19.7723287787433
0.0114054903711806,19.7738735431304
0.0129639568764623,19.7755058552402
0.0151117780341351,19.7774372801599
0.0169107847867298,19.7788696373469
0.0188514405732175,19.7803019945339
0.0206319524537758,19.7815675845765
0.0222028059607743,19.78268895717
0.0236156515754046,19.7837436182877
0.0248811304633389,19.7847772936769
0.0259869343724405,19.7858267537618
0.0269024176905118,19.7869353140009
0.0275674639111724,19.7881763478426
0.0278291553748167,19.789753556362
0.0274302698232431,19.7914226223205
0.0264522967446034,19.793091688279
0.0253038533707521,19.7944845318388
0.0239972766603138,19.7958316344306
0.0225306846373271,19.7972153283997
0.0209122074670101,19.7986777566442
0.0191470290319696,19.8002587592782
0.0177207471862546,19.8015648867426
0.0163725685497679,19.8028710142069
0.0139723010838145,19.8054269990899
0.0118976019942652,19.8079529853466
0.0100696791475621,19.8105207924785
0.0084947681419353,19.8130948117641
0.00719728849077385,19.8155688275467
0.00607056233758819,19.8180809960779
0.00522239263696573,19.8202811119151
0.00458812933409694,19.8221608037462
0.0040561127808936,19.8239399742472
0.00357783725861848,19.8257424201934
0.00312236422594479,19.8276901216274
0.0026534585708524,19.830008756302
0.00212871012456292,19.8331401529998
0.00168211609974421,19.8364957209132
0.00135244265452507,19.839647957557
0.00108375254227928,19.8429563519713
0.000853634077265674,19.8468105217013
0.000677503809863123,19.8513696795759
0.0005871381404478,19.8564731681955
0.000598428318874314,19.8611027960884
0.00069120342694908,19.8653112820735
0.000855439697414297,19.8691306542331
0.00108687748304921,19.8726040628465
0.00138498844716978,19.8757764410232
0.00175219455636034,19.8786939384203
0.00219433437790084,19.8814059662327
0.00272128840559992,19.8839627285526
0.00334908211177902,19.8864182704275
0.00410368134665356,19.8888342247945
0.00502653239662146,19.8912822187734
0.00617248119325075,19.8938242637373
0.00755500363971388,19.8964108568375
0.00907038399328001,19.8988278621485
0.0106066558369631,19.9009410056573
0.0121613110163671,19.9027995377356
0.0137912578304125,19.9044964299789
0.015531407136142,19.9060713768227
0.0174405872882009,19.9075688901443
0.0195419402576661,19.9089924683297
0.021882650174373,19.9103585044896
0.0244955103482123,19.9116694396998
0.0274229985766936,19.9129306818661
0.030710894788795,19.9141462704249
0.0344027554924959,19.9153174727716
0.0385588942645222,19.9164491125115
0.0432428127245079,19.917544162909
0.0485260034695993,19.9186053121728
0.0544981900240255,19.9196365291282
0.061264408799142,19.9206415529614
0.0689509515550489,19.9216243130294
0.0777124066843403,19.9225891119689
0.0877410467612963,19.9235407736651
0.0992845134946993,19.924485175773
0.112665255698035,19.9254292984231
0.128319968253474,19.9263820870057
0.14686878546351,19.9273558028798
0.168721652282164,19.9283463607763
0.194080474258232,19.9293433548469
0.223649654789821,19.9303587668407
0.258402853398055,19.9314103333933
0.299884362824771,19.9325297637698
0.335365134417895,19.9334114349396
0.372492533491989,19.9342931061094
0.405468588763271,19.9350688983236
0.434263882803792,19.9357675611611
0.459418022938921,19.9364250150484
0.480974586837453,19.9370663493465
0.498574083370862,19.9377133727301
0.511385179628178,19.9383908821664
0.517722762991108,19.9391361248493
0.514505267078656,19.9399472520126
0.499884576119392,19.9407784252469
0.472510735180775,19.9416451999583
0.430664066517091,19.9425587836568
0.37245867899829,19.9435279550272
0.329261179682786,19.9441374073352
0.281874348296772,19.9447468596431
0.239532253973857,19.945261915336
0.202992013147705,19.9456972069737
0.170745084435741,19.9460830510327
0.141782575712278,19.9464379785211
0.115481309149188,19.9467736518718
0.0914041566216452,19.9470986889827
0.0691870144800972,19.9474209168995
0.048439945699213,19.9477497417641
0.0285306887492611,19.9481020190435
0.00726803514136359,19.9485383843647
-0.00209604117515099,19.9487594973772
-0.0105540581124378,19.9489806103897
-0.0170201913015662,19.9491672483689
-0.0229746817589525,19.9493563028017
-0.0289366198732503,19.9495666316394
-0.0346701624311173,19.949794791831
-0.040025913317295,19.9500387314465
-0.0449215546310751,19.9502977713495
-0.0493147781153365,19.9505721451436
-0.0531844935437182,19.9508627454097
-0.0567054996682308,19.9511907744873
-0.0594511178904399,19.9515172485551
-0.0616827510210026,19.9518653934978
-0.0634166160512818,19.9522385358555
-0.0646669168528204,19.9526404230131
-0.0654469674672172,19.953075684409
-0.0657676846150761,19.953550101861
-0.0656358768538764,19.9540710111015
-0.065051691861733,19.9546481935606
-0.0640030423213228,19.9552957848936
-0.0624618193004143,19.9560325280591
-0.0603714276156824,19.9568871183492
-0.0576131446055826,19.9579101483994
-0.0538709553242325,19.9592219057448
-0.0498177012060873,19.9606102891081
-0.0459061910220163,19.9619535372668
-0.0421812090971301,19.9632558891947
-0.0386644820190705,19.9645194985285
-0.035366943827824,19.9657451531683
-0.0322930168616582,19.9669329489163
-0.0294426075291047,19.968082649035
-0.0268122338247866,19.969193873215
-0.0243957945452288,19.9702661941719
-0.0221851766062948,19.9712991819079
-0.0201707755429485,19.9722924165877
-0.0183419560849992,19.9732454813591
-0.0166874604410003,19.9741579413216
-0.0151065625364636,19.9750830909273
-0.013585716562306,19.9760320756276
-0.0121290983917439,19.9770067028524
-0.0107405657076315,19.9780091791397
-0.00942375612901769,19.9790421012704
-0.00818203382440518,19.980108554703
-0.00701843424787294,19.9812122432705
-0.0059356056283565,19.9823576649156
-0.0049357465778753,19.9835503556418
-0.00402053838330927,19.9847972379577
-0.00319106919626372,19.986107135773
-0.002447744831694,19.9874915672871
-0.00179017588205261,19.9889660300841
-0.00121701990174666,19.9905522249409
-0.000747843888275568,19.9921939007357
-0.000372372423864752,19.9938882623771
-7.46894252230514e-05,19.9956538296691
0.000159905949694285,19.9975138076776
0.000282381530078669,19.9987569038388
0.00038410456631201,20
