ecg,time
0.000290037985860083,15.0064338916657
0.000316686716097855,15.0164338916657
0.00034913334199229,15.0264338916657
0.000388633025721458,15.0364338916657
0.000437041970250292,15.0464338916657
0.000492802082974637,15.0557767176348
0.000556221163079425,15.0644179616107
0.000628194635060035,15.0724070054771
0.000709830901459346,15.0797931772565
0.000802416928549039,15.0866224133916
0.000907420134209168,15.0929374382784
0.00102650573085561,15.0987780291594
0.00116156086096396,15.1041812383455
0.00131472383899921,15.1091815764862
0.00148841566153841,15.1138111923542
0.00168537960163172,15.118100047645
0.00190872512063805,15.1220760825476
0.00216198264474892,15.1257653628999
0.00244916799341934,15.1291922288574
0.00277486334689481,15.1323794523165
0.00314432001371022,15.1353483971974
0.00356358879256465,15.1381191851409
0.00403969478907196,15.140710886165
0.00458087581171687,15.1431417439719
0.00519691839696696,15.1454294540205
0.00589965546734375,15.1475915426857
0.00667562979152233,15.1495801449455
0.00753240090770558,15.1514243420298
0.00848278910591043,15.1531562144304
0.00954596563758573,15.1548082910586
0.0107536531314333,15.156418900815
0.0121904870175933,15.1580703498218
0.0140998983895135,15.1599581478216
0.0159339286301171,15.1615528259606
0.017939210891936,15.1631475040996
0.0197149389150063,15.1644950864487
0.0212587424542783,15.1656648487405
0.0226422889158716,15.1667550914298
0.0238814255188769,15.1678167305862
0.024966579778035,15.1688875142943
0.0258705086624493,15.1700091471537
0.0265403103801944,15.17124764386
0.0268521727575003,15.1727661954135
0.0265281222648425,15.1745369416853
0.0255734903902003,15.176307687957
0.0244472679490837,15.1777448074612
0.0231751443102594,15.1791119631278
0.0217512774119275,15.1805054954949
0.020183525450589,15.1819696027467
0.01847833126327,15.1835428416178
0.0178082986049815,15.1841654835615
0.017152122179211,15.1847881255052
0.0146776560783103,15.1873147202076
0.0121320861544875,15.1903015972457
0.0100695974440283,15.1931390104098
0.00844362817719973,15.1957579017783
0.00712234956419964,15.1982375238117
0.00597311434242908,15.2007521456021
0.00497316603782741,15.2033174986118
0.00409222783395549,15.2059861055238
0.00332130136891506,15.208767235494
0.00278619687700547,15.2110409284113
0.00232431035823373,15.2133146213287
0.00197836472690339,15.2152680155702
0.00169585688319942,15.2170697139102
0.0014464282258498,15.2188564424688
0.00121289328652435,15.2207402369089
0.000979030598760858,15.2228894382775
0.000710560601672162,15.2257944544224
0.000405608217173557,15.2299454671006
0.00020614392636737,15.2334706978639
5.98457597932302e-05,15.2367766587421
-6.46175533483348e-05,15.2404936182952
-0.000168931756928961,15.2451873055797
-0.000219893970480316,15.2504211364524
-0.000203049805807616,15.2550615315453
-0.00012653441987056,15.2592919569629
8.02436168317685e-06,15.2631335624581
0.000201485115450344,15.2666263183474
0.0004569405264663,15.2698198228655
0.000779587591072693,15.2727643362839
0.00117716563650267,15.2755100905563
0.00166190185703472,15.2781126277455
0.00225341266436587,15.2806345384973
0.00298305739021848,15.2831474253059
0.00390759734131848,15.2857532011715
0.00510737808060169,15.288544955534
0.00658145616620328,15.2914011131129
0.00810426642183299,15.2938953609736
0.00958463329656117,15.295979604538
0.0110905849351988,15.2978178436705
0.0126673276831963,15.299488600577
0.0143925883079118,15.3010724620614
0.0162762264967039,15.3025658042974
0.018371394806329,15.3039968538699
0.0207100999218064,15.3053700848432
0.0233256724769196,15.3066887776714
0.026261342170079,15.3079589454996
0.0295539888772725,15.3091814498799
0.0332554716550969,15.3103611674053
0.0374192146858717,15.3115008605354
0.0421044513065914,15.3126029456905
0.0473869521417646,15.3136715210767
0.053352978759717,15.3147100530338
0.0601057186441349,15.3157222450298
0.0677693276171477,15.3167119977851
0.0764982484591728,15.3176838535831
0.0864859354459271,15.318642937045
0.0979793058186872,15.3195951861989
0.111303351811753,15.3205478950399
0.126901882624529,15.321510527209
0.145412045732907,15.3224962326811
0.167141856885358,15.3234961553055
0.192366842006669,15.324504075094
0.221808690054909,15.3255329849034
0.256481250256428,15.3266024079485
0.298005684841828,15.3277471949311
0.332617754153975,15.328629053852
0.36868020335815,15.3295109127729
0.400804451049748,15.3302921248959
0.428926650782464,15.3309998465731
0.453466530327648,15.3316676104463
0.474411600111655,15.3323195974512
0.49137228059691,15.332977185536
0.503497402941048,15.3336646486695
0.509100980489811,15.3344177605607
0.505186473023914,15.3352369914862
0.489959324146712,15.3360749401154
0.462092121858318,15.3369463584357
0.419934564951097,15.3378618608459
0.361686654767474,15.3388308907839
0.319977939610307,15.3394219473717
0.274479561446949,15.3400130039596
0.233668028656802,15.3405164942295
0.198212989914295,15.3409459517784
0.1667836521249,15.3413290017225
0.13847778395307,15.3416828309932
0.112725317229416,15.3420185140597
0.0891169644246575,15.3423444318738
0.0673024636329267,15.3426684061604
0.046892189731989,15.3430001661821
0.0272177917085742,15.3433579898194
0.00568104620618671,15.3438150349554
-0.00263988042422608,15.3440185497686
-0.0102151260243872,15.3442220645817
-0.0165400667839907,15.3444088439307
-0.0224683948132619,15.3446015382217
-0.028377456380299,15.3448152798336
-0.0340408424665274,15.3450466993704
-0.0393178015781303,15.3452938780367
-0.0441312481490189,15.3455562302178
-0.0484419964449631,15.3458340591257
-0.0522264394086519,15.3461283153945
-0.0554691906974026,15.3464399349773
-0.0581666406088002,15.3467690025266
-0.0603554204139311,15.3471201981077
-0.0620491621577039,15.3474966183319
-0.0632618810624859,15.3479020407004
-0.0640066803031813,15.3483411337939
-0.0642942367904988,15.3488197263812
-0.064131104100086,15.3493452116927
-0.0635170412018294,15.3499275336571
-0.0624396261446306,15.350580882679
-0.0608704702675518,15.3513241666505
-0.0587526181377412,15.3521863654121
-0.0559665399934404,15.3532187007888
-0.0521922162556055,15.354543737755
-0.0481678336360152,15.3559271634395
-0.0442913426650632,15.3572653294453
-0.0406051629940187,15.3585623920708
-0.0371296353922969,15.3598204922383
-0.0338747165524222,15.3610404274345
-0.0308440503614089,15.3622223129263
-0.0280368930493584,15.3633659348165
-0.0254492163402618,15.3644709354418
-0.0230744677371174,15.3655369078378
-0.0209041726284907,15.3665634385624
-0.0189284495641541,15.3675501194811
-0.0171364642054318,15.3684965396646
-0.0155161468977739,15.36940265688
-0.0139519132321805,15.3703316964923
-0.0124489441765104,15.3712847680635
-0.011011247731232,15.3722638142683
-0.00964266267589596,15.3732710996416
-0.00834680111927833,15.3743092937352
-0.00712699672560144,15.3753815733156
-0.00598625009349255,15.3764917584496
-0.00492717120578237,15.3776444975633
-0.00395191837713714,15.3788455254401
-0.00306213241227186,15.3801020336111
-0.00225886341400883,15.3814232210552
-0.00154248531758278,15.3828211486478
-0.000912588494092853,15.3843121372867
-0.000367830320257899,15.3859192175691
6.92991508641481e-05,15.3875682609118
0.000415185813005875,15.3892731874197
0.000685275823673341,15.391052750797
0.000893985384962913,15.3929312885171
0.00105512931734017,15.394942186578
0.00118250357924604,15.3971345698777
0.00129089731884979,15.3995882033818
0.00139849429624685,15.4024546232657
0.00153607443149389,15.4061280434188
0.00169562394354514,15.4099337382462
0.00189014816617664,15.4139992579705
0.0020977835244471,15.417928607901
0.00231574765832744,15.4218122822677
0.00254202105921189,15.4257131723551
0.00277578985860046,15.4296767840033
0.00301752295740507,15.4337403292967
0.00326880767212387,15.4379372265217
0.00353214648311443,15.4422996783612
0.00381079356960051,15.4468604120322
0.00410870452731201,15.4516542494901
0.00443065973246494,15.4567194723699
0.00478266101487182,15.4620991691385
0.00514645781894254,15.4674593544843
0.00552091785222799,15.4727442717086
0.0059085744866016,15.4779482283697
0.0063123641100202,15.4830663353564
0.00673638380574153,15.4881050861892
0.00718515835548228,15.4930715905224
0.00766361409263106,15.4979724649542
0.00817701289105748,15.5028121838312
0.00873102958765609,15.507593103958
0.00933184939276838,15.5123156685383
0.00998629451169307,15.5169788943658
0.0107065953862471,15.5216093567665
0.0115156262417102,15.5262749141228
0.012429243274297,15.5309715971965
0.013471575463401,15.5357196237824
0.0146776877218269,15.5405603367023
0.0161084969554403,15.54559373086
0.0179053660638896,15.5511061193825
0.0203273032524919,15.5575825228394
0.0219029979034237,15.5614478121884
0.023520426458478,15.5653131015375
0.0249340227707818,15.5687658919714
0.0261264159027939,15.5719148337379
0.0271135661855165,15.5749366547804
0.0278520322175792,15.5778317264853
0.0283244260931492,15.5806437725884
0.0285209470034726,15.5835001606414
0.0283929288639017,15.5865908060759
0.0277462108463331,15.5904634675545
0.026912792197379,15.5934670375156
0.0258428134028522,15.5964706074767
0.0247636237539852,15.5990820050291
0.0236901862375843,15.6014662928465
0.0226161182220227,15.6037335976088
0.0215422316193363,15.6059367191232
0.0204717818458161,15.608105718938
0.0194084752997695,15.6102604915583
0.0183559255880063,15.6124155672153
0.0173175059118126,15.614582335758
0.016296311900038,15.6167702440493
0.0152951607583436,15.6189875073431
0.0143166014017008,15.6212415681936
0.0133629239509465,15.6235394223848
0.0124361738146932,15.6258878530066
0.0115381602372348,15.6282936283026
0.0106704639880639,15.6307636753778
0.0098344535101309,15.633305216807
0.00903128617591609,15.6359259473062
0.00825865106125998,15.6386461659238
0.0074993870179303,15.6415497187812
0.00675737062987106,15.6446574680403
0.00603641590261166,15.6479945613969
0.00534053669617631,15.651590069626
0.00467390558851625,15.6554777180854
0.00404077359216564,15.6596968938543
0.00344534191644578,15.6642941380189
0.00289156750517904,15.6693256528087
0.00238288022932364,15.6748620735309
0.00192194963150814,15.6809961393096
0.00151159283855605,15.6878354614759
0.00116682732311896,15.6951982151673
0.000940548640135861,15.7017809236879
0.000742892922355307,15.7095975016522
0.000582090671125973,15.7182466703449
0.000457340971856162,15.7275481383221
0.000364263882888966,15.7375481383221
0.0003023083588453,15.7475481383221
0.000262662612251124,15.7575481383221
0.000238912394779108,15.7675481383221
0.000226538092973733,15.7775481383221
0.00022248365054866,15.7875481383221
0.000224760983016138,15.7975481383221
0.00023213527877767,15.8075481383221
0.000243908255956012,15.8175481383221
0.000259785651800016,15.8275481383221
0.000279806809660839,15.8375481383221
0.000304320190655513,15.8475481383221
0.000333998606727397,15.8575481383221
0.00036989766873794,15.8675481383221
0.000413571226068473,15.877548138322
0.000465346114198244,15.8872157330723
0.000524307047936973,15.8961740147473
0.000591193710989603,15.9044601378238
0.000667007039705674,15.9121238127476
0.000752928370368253,15.9192118458866
0.0008503110120326,15.9257678336793
0.000960692122039289,15.9318324086324
0.00108581372728356,15.9374434622895
0.00122764932778543,15.9426363276624
0.00138843342502752,15.9474439467922
0.00157069622799762,15.9518970372559
0.00177730386916456,15.9560242542996
0.00201150679042222,15.9598523386753
0.00227699572875679,15.9634062549744
0.00257797256516335,15.9667093380747
0.00291923666293858,15.9697834462766
0.00330629531154323,15.9726491141724
0.0037455069647847,15.9753257200913
0.00424427230302721,15.9778316809599
0.00481129838278515,15.9801846823068
0.00545697580184296,15.982401973118
0.0061855183100074,15.9844788623795
0.00698863943068454,15.9863916543483
0.00787585830282808,15.9881716804644
0.00886134513959832,15.9898500061082
0.00996668641244457,15.9914590840076
0.0112287818596204,15.993039220995
0.0127715588889163,15.994704754418
0.0149134743530366,15.9966892217865
0.016687929239435,15.9981456163676
0.0185986348708238,15.9996020109487
0.0203311231356662,16.0008769318339
0.0218606465827103,16.0020103133003
0.023235592150512,16.0030787318351
0.0244645108787997,16.0041274651753
0.0255340560427159,16.0051936122263
0.0264126294022435,16.0063215582566
0.0270382422821698,16.0075876767575
0.0272494239647206,16.0092101831627
0.0268105515207993,16.0108817374102
0.0258187635958982,16.0125532916577
0.0246677208179378,16.0139552240823
0.0233633345094412,16.0153137662712
0.0219041484898497,16.0167088758186
0.0202984398107663,16.0181821348875
0.0185514791929638,16.0197731617096
0.0166866898207465,16.0215349724979
0.0152155993129707,16.0230313578611
0.0125347223519107,16.0260897436521
0.0103621441362964,16.0290045057396
0.00867887116389741,16.0316558895861
0.00733054162539519,16.0341325607046
0.00616073933246605,16.036637182933
0.00513827008460592,16.0392040139689
0.00424902041853403,16.0418386946407
0.00346597528863684,16.044598688669
0.00278260775964965,16.0474920070033
0.00236744385445273,16.0495603325041
0.00200476585749973,16.0516286580048
0.00171498148897947,16.0535094902456
0.00146955915749877,16.0553063946025
0.00124787309203249,16.0571343623992
0.00103544485074906,16.059119713583
0.0008141694185869,16.061508383495
0.000511220304220033,16.0655534561767
0.000288312205020585,16.0694755895852
0.00014366306443224,16.0728096055759
2.99712574827789e-05,16.0762846809564
-6.2418274593771e-05,16.0804398979434
-0.000117579953053197,16.0859167776909
-0.00010091812866027,16.0906724992284
-2.3808752397337e-05,16.0950277694042
0.000111311095023241,16.0989836635158
0.000304685772153247,16.1025778495662
0.000558881356994575,16.1058586397216
0.000878244806759321,16.1088728992602
0.00126906233711637,16.1116665864446
0.00174094272709213,16.1142892548671
0.00230888131111283,16.1167949264421
0.0029957135363364,16.1192412300961
0.00383433515829192,16.1216863573356
0.00487678751613851,16.1242016897348
0.00615822953231671,16.1267833160545
0.00761041313637207,16.1292524388613
0.00913154457185313,16.1314619478291
0.0106778979086175,16.1333993438967
0.0122771484682815,16.1351363465042
0.0140048400973914,16.1367635687325
0.0158708017441082,16.1382842438119
0.017935206135825,16.1397368840099
0.0202334683696304,16.1411296846954
0.0227897222454932,16.1424617693854
0.0256540456409309,16.1437442116079
0.0288629709087479,16.1449780434693
0.0324677648447446,16.1461683542806
0.0365215115129321,16.1473181412727
0.0410818773070422,16.1484297252988
0.0462229266825739,16.1495072545463
0.0520282765668265,16.1505541338607
0.0585976345994147,16.1515740019615
0.0660499937440312,16.1525706135009
0.0745354505432747,16.1535486565945
0.0842391809078553,16.1545131023291
0.0953975044180509,16.1554697793589
0.108320498800966,16.1564258252339
0.123429161332525,16.1573904086283
0.141326647679833,16.1583763121927
0.162422889702521,16.1593800627202
0.186904926561861,16.160390648979
0.215465116941903,16.1614207354345
0.249068787259883,16.1624891052153
0.289253809331179,16.1636289935433
0.324133727451479,16.1645396893507
0.360672279152733,16.1654503851581
0.393170799971255,16.1662516508206
0.421602617595253,16.1669731735221
0.44644442481371,16.1676504713943
0.467726718697675,16.1683084168848
0.485110161707561,16.1689682344818
0.49782843750711,16.1696530120196
0.504387047939139,16.1703949799704
0.501922354304525,16.1712163968908
0.488369579280627,16.1720531848228
0.462476233748683,16.1729203551737
0.422661810472714,16.1738289077497
0.367183754758326,16.1747881447114
0.325234853686235,16.1754000518518
0.279062670354752,16.1760119589921
0.237639984236608,16.1765298644403
0.201774714438223,16.1769681901954
0.170050219823118,16.1773570436663
0.141512115383411,16.1777148528781
0.115567980474929,16.1780532410583
0.0918005744160992,16.1783807952155
0.0698618532543683,16.1787052762939
0.0493808822927451,16.1790358994952
0.0297672918099989,16.1793887995594
0.00909001746985295,16.1798187011673
-0.000862420293951745,16.1800567107807
-0.00808383025564278,16.1802469968004
-0.014679695009038,16.1804372828201
-0.0205200484414479,16.1806222511434
-0.026445121125189,16.180829965593
-0.0321939403847345,16.1810565004501
-0.0375957831700276,16.1812993135751
-0.042555818304965,16.1815574226997
-0.0470243332570969,16.1818308649718
-0.0509741076957352,16.1821203909947
-0.0545102623031883,16.182439564035
-0.0573511589072203,16.1827637040905
-0.0596792438384576,16.1831090558176
-0.0615092089227068,16.1834786987467
-0.062854978778717,16.1838761881853
-0.0637299993573034,16.1843059061915
-0.0641457548736663,16.184773302226
-0.0641101601949655,16.1852852487835
-0.0636255729961636,16.1858505899907
-0.0626833670398445,16.1864825254365
-0.0612608495991001,16.1871980022474
-0.0593119331852358,16.1880221824626
-0.056742824756255,16.1889972013764
-0.0533280957009968,16.1902121763232
-0.0492798532277258,16.1916105074889
-0.0453615432262251,16.1929606620916
-0.0416245733936457,16.1942684197049
-0.0380937357398766,16.1955365996877
-0.0347813905646649,16.196766350993
-0.0316926954908661,16.197957970952
-0.0288279705195733,16.1991113378459
-0.02618398062042,16.2002261383056
-0.0237547752910745,16.2013019848327
-0.0215323295367767,16.202338471904
-0.0195070821868276,16.203335195832
-0.0176684066606684,16.204291751884
-0.0160050261138668,16.2052077160372
-0.0144249007599223,16.20613106864
-0.0129047555545468,16.207078153604
-0.011448867969046,16.2080507110616
-0.0100611206590416,16.2090509211095
-0.00874518282073947,16.21008134675
-0.00750445713210588,16.211145030627
-0.00634202564859727,16.2122456217326
-0.00526059274624596,16.2133875467744
-0.00426242464136935,16.2145762475512
-0.00334928436123974,16.2158185191536
-0.00252235989238658,16.2171230082277
-0.00178218113660557,16.2185009774472
-0.00112851718013492,16.2199675388754
-0.000560236518211959,16.2215437755631
-9.46102370517083e-05,16.2231821291283
0.00027556495217422,16.2248716156841
0.000566307705139652,16.2266306779394
0.000792282735773114,16.2284820001076
0.000967454716374371,16.2304562728584
0.00110561963850055,16.2325977865333
0.00122128267004454,16.2349764549259
0.00133157497519258,16.2377189299628
0.00146260087339804,16.2411216573133
0.0016204671142101,16.2448818199409
0.00181738546636229,16.248998118703
0.0020282176714459,16.2529607608634
0.0022500105836973,16.2568602641707
0.0024805787673644,16.2607655382024
0.00271882243444497,16.2647250113497
0.00296495179880486,16.2687773389917
0.00322036319934294,16.2729566342154
0.00348743588253939,16.2772953299678
0.00376935306047202,16.2818260275946
0.00407002600189451,16.2865831130883
0.00439418121635958,16.2916041552141
0.00474770497453687,16.2969312236465
0.00511646779690929,16.3022964732343
0.00549456499481861,16.3075724057725
0.0058860972866373,16.3127764349142
0.00629330898593,16.3178938120187
0.00672043023444947,16.3229324110051
0.00717194380567254,16.3278983077427
0.00765283457352452,16.3327982844424
0.00816841197204876,16.3376368442173
0.008724407557389,16.3424164765644
0.00932705707881276,16.3471377100187
0.0099832279912538,16.3517996175603
0.0107054380662189,16.3564302472126
0.0115164030015341,16.3610957970465
0.0124320945128113,16.3657927070197
0.013476735009286,16.3705412935922
0.014685581689997,16.3753832799839
0.0161200129793254,16.3804196648334
0.0179230918444003,16.3859406160694
0.0203458676719861,16.3924093385493
0.0219201627746541,16.3962677765718
0.0235351687885786,16.4001262145943
0.0249461054866588,16.4035738107626
0.0261362634806438,16.4067203051323
0.0271211238804328,16.4097414619756
0.0278563873231117,16.4126347933672
0.0283255925989188,16.4154465157508
0.0285186456441534,16.4183043309056
0.0283861421176974,16.4213996703994
0.0277296872646679,16.4252913593876
0.0268946169821437,16.4282841121049
0.0258255436994788,16.4312768648221
0.0247468093136152,16.4338834143377
0.0236734924948975,16.4362654620261
0.0225995043065546,16.4385315301377
0.0215257336344008,16.4407339159181
0.0204554521984012,16.442902483574
0.0193923686655875,16.4450570282704
0.0183400952082692,16.4472120218149
0.0173020026393359,16.4493788157061
0.0162811839930448,16.451566829383
0.01528045399828,16.4537842566456
0.0143023592195417,16.4560385218765
0.013349187592729,16.458336604049
0.0124229824411155,16.4606852695363
0.0115255510036873,16.4630912687963
0.0106584720872895,16.4655615090091
0.00982311216746962,16.4681031895612
0.00902062656536583,16.4707239775771
0.00824816417244374,16.4734461226062
0.00748912283267653,16.4763517917581
0.00674737478170363,16.4794618991487
0.00602673716178063,16.4828016221923
0.00533122645364368,16.4864000646066
0.00466501712100484,16.4902909870884
0.00403236068789379,16.4945138152523
0.00343745654309162,16.4991151358471
0.00288425647385635,16.5041512130154
0.00237618123943309,16.5096927772911
0.00191588918390772,16.5158326962255
0.00150627339201993,16.5226770274118
0.00116216150355939,16.5300458932938
0.000885982819470777,16.5382559004937
0.000720718923200376,16.5451317424593
0.000558800185535186,16.5541214629711
0.000440626583494494,16.5632611576418
0.000350321783885978,16.5732611576418
0.000289998782897084,16.5832611576418
0.000251179639503465,16.5932611576418
0.000227670659073189,16.6032611576418
0.000215089292034967,16.6132611576418
0.000210459500176236,16.6232611576418
0.000211833730281723,16.6332611576418
0.000217987692168568,16.6432611576418
0.000228207546047096,16.6532611576418
0.000242157505303533,16.6632611576418
0.000259806202730153,16.6732611576418
0.000281395065702265,16.6832611576418
0.000307440918924564,16.6932611576418
0.000338773355746294,16.7032611576418
0.000376615299098489,16.7132611576418
0.000422725279126526,16.7232611576418
0.000476161505637966,16.7326971032948
0.000536898786708874,16.7414327254053
0.000605786576043254,16.7495131968261
0.000683887766609379,16.7569872374508
0.000772435511269306,16.7639004482098
0.000872834527174208,16.7702953272451
0.000986677582754354,16.7762115053201
0.00111576856007685,16.7816859508233
0.00126215036491054,16.7867531399904
0.00142813501175485,16.7914452222777
0.00161634058270056,16.7957921828139
0.0018297323819491,16.7998219990019
0.00207167394326196,16.8035607818076
0.00234598595115176,16.8070329151742
0.00265702059974818,16.8102612032274
0.0030097540327011,16.8132670215822
0.00340990314368428,16.8160704709709
0.00386407992063167,16.8186905498246
0.00437999839517982,16.8211453551
0.00496676189803857,16.8234523227507
0.00563527916023678,16.8256285437986
0.00638270428735997,16.8276512231538
0.00720676941606655,16.8295185200864
0.00811800226711415,16.8312614903845
0.00913194602583462,16.8329109009544
0.0102728137154703,16.8344999869527
0.0115834881152939,16.8360723596731
0.0132282186636727,16.8377738574625
0.0156618906804291,16.8399267042299
0.0173802859903784,16.8412821405414
0.0192021863408064,16.8426375768529
0.0208688790183935,16.8438510724628
0.0223569632023306,16.8449549665732
0.0236959754620841,16.8460096989502
0.0248864986346727,16.8470559167611
0.0259100406453995,16.8481312111842
0.0267281949789098,16.8492855871563
0.0272626658206622,16.8506162163341
0.0272579150120266,16.8524858031862
0.0266644688409975,16.853998721114
0.0256506931426847,16.8555116390417
0.0244671242162756,16.8568789744193
0.0231213262781192,16.8582382635573
0.0216206277014944,16.8596469107325
0.0199737984700495,16.861143600367
0.0181843033881044,16.8627699221892
0.0165351781313089,16.8643383489074
0.013897546397475,16.8671221285252
0.0114009285185477,16.8701912501811
0.00948102838224541,16.8729720314577
0.00797190230766413,16.8755296433482
0.00671395233118993,16.878014337973
0.00561734562848175,16.8805453778194
0.00469760720707268,16.8830329194421
0.00391313629215945,16.8855202764856
0.00321546141008688,16.8881265865304
0.00255897230992902,16.8910595196419
0.00214494842231964,16.8932452366959
0.00178565705533179,16.8954309537499
0.00151209095008997,16.8973312298599
0.00128832062226106,16.8990806633558
0.00109028318989088,16.9008133954994
0.000904231058437074,16.902639522264
0.000717171055966024,16.9047225705866
0.000501494846322515,16.9075361695184
0.000233857323365815,16.9119555361578
6.48065227086312e-05,16.9156540153288
-5.34870236674518e-05,16.9190315128112
-0.000151257263347656,16.9228405086222
-0.000227381351649644,16.9277591423017
-0.000247206803001072,16.9328911946189
-0.000206439682523596,16.937479810651
-0.000109264874977756,16.9416515575993
4.4103279440431e-05,16.9454340456106
0.000255502837281051,16.9488701379921
0.000528395603642807,16.9520064615458
0.000868031068778996,16.9548913519247
0.0012821074624571,16.9575742701507
0.00178238601342329,16.96010793961
0.00238741622634725,16.9625507328528
0.0031252356706259,16.9649644763802
0.00404909903150026,16.9674446283318
0.00523456481576838,16.9700789318668
0.0067095867852883,16.9728129702109
0.00830038038384181,16.9753034275252
0.00986475800144172,16.9774041890437
0.0114415728533861,16.9792388548206
0.0130790167769442,16.9808942585657
0.014866782817688,16.9824624985603
0.0168302411035653,16.9839515893825
0.0189920036809691,16.9853653875745
0.0214068188565149,16.98672476281
0.0241009255609081,16.9880282515021
0.0271230315009844,16.9892841408243
0.0305162268519542,16.990494904527
0.0343263359884148,16.9916624176072
0.0386130342665913,16.9927909260953
0.0434409387559878,16.9938834247752
0.048883316609924,16.9949426801307
0.0550329871843429,16.9959728143344
0.0619979986719268,16.9969775565623
0.0699095989074738,16.9979609697819
0.0789296067264511,16.9989275613413
0.0892604709175565,16.9998824100918
0.101165098783034,17.000831774222
0.114989976135971,17.0017832454727
0.131211780159257,17.0027467783457
0.150523083729085,17.0037364492889
0.173047997011087,17.004734479169
0.199216229811888,17.0057425411024
0.229795864677564,17.0067744101118
0.265885134053952,17.0078513547177
0.308482881114673,17.0089921445489
0.351168363124175,17.0100504659544
0.386462869306023,17.0108989414513
0.416792084607419,17.011637439607
0.443312728444182,17.0123190546484
0.466284729804082,17.0129731879071
0.485520658532143,17.0136221010438
0.500432933688679,17.0142879818776
0.509837834235349,17.0149995060598
0.511263516969749,17.0158059440808
0.50190701352545,17.0166304948095
0.480579637034124,17.0174823087823
0.445754520624261,17.0183742231861
0.395664345571548,17.0193154153389
0.350987616537978,17.0200030069234
0.3003756279866,17.0206905985079
0.255226979004727,17.021257636271
0.216842264702626,17.0217229979483
0.183297345328146,17.0221274061011
0.15332966189517,17.022494474976
0.126205158003222,17.0228380557793
0.101439946791266,17.023167657156
0.0786597614790782,17.0234911629817
0.0575077546059156,17.0238169076009
0.037509447049358,17.024157268572
0.0175560411647601,17.0245430672218
0.00895036314360501,17.0247294945434
0.00100480983546748,17.0249159218649
-0.00781135067453058,17.0251430488629
-0.0145331887837995,17.0253344179413
-0.0203975032262033,17.0255177568058
-0.0263528668621012,17.0257237660848
-0.0321370436988674,17.0259485815698
-0.0375763520756603,17.0261896392669
-0.0425740819819442,17.0264459359058
-0.0470793919617816,17.0267174902237
-0.0510669571658872,17.0270050355986
-0.0547745249723497,17.0273353721755
-0.0576288476716413,17.0276583644985
-0.0599668529398654,17.0280023520903
-0.0618051756693699,17.0283705955159
-0.0631578945588849,17.0287666585607
-0.0640385710304392,17.0291949335402
-0.0644587715949885,17.0296608867218
-0.0644264419195733,17.0301714182741
-0.0639438883041042,17.0307354184221
-0.0630023197843589,17.0313661493675
-0.0615786016916782,17.0320807068255
-0.0596256746026892,17.0329045414069
-0.0570473754384131,17.0338804900497
-0.0536103111052849,17.0351001444824
-0.0495468829619211,17.0364999820076
-0.0456125185193984,17.0378520642401
-0.0418588410295615,17.0391620779016
-0.0383108936859311,17.0404327595369
-0.0349812668741571,17.0416652031086
-0.0318753376367705,17.0428596668418
-0.0289936301556474,17.0440159996649
-0.0263330920480478,17.0451338654667
-0.0238879280204243,17.0462128590019
-0.0216502378137399,17.0472525612043
-0.0196105531836287,17.0482525587165
-0.0177583094501476,17.0492124409436
-0.016082262546962,17.0501317819169
-0.0144990850670671,17.05105314703
-0.0129755092575748,17.0519981515686
-0.0115159088529231,17.0529684648426
-0.0101241829767961,17.0539662382507
-0.00880402300467355,17.0549939989058
-0.00755885918005435,17.0560547446123
-0.00639180689844614,17.0571520675226
-0.00530561013002728,17.058290321082
-0.00430258159857766,17.0594748507907
-0.00338453870439873,17.0607123221546
-0.00255273312269845,17.0620112023879
-0.00180777010441652,17.0633824967443
-0.00114950977647911,17.0648409309696
-0.000576934758549467,17.0664069731175
-0.000105295296097082,17.0680418443858
0.000269354639217604,17.069726268539
0.000563202946390872,17.0714786200497
0.000790954495243169,17.0733210592369
0.000966566450835484,17.0752834359674
0.00110375262326384,17.0774085583464
0.00121679894715622,17.0797633991389
0.00132228774599748,17.0824675224609
0.00144454443232367,17.0857923997187
0.0015942008997951,17.0895422797356
0.00178008934737863,17.0936120328092
0.00198942814121394,17.0977009978574
0.00220580477086403,17.1016307177848
0.00242779296898463,17.105504375592
0.00265490587417541,17.1093880937421
0.00288767322703714,17.1133287490188
0.00312758214992614,17.1173641555831
0.0033769169361131,17.1215278911793
0.00363860811374693,17.125851988883
0.0039161411290323,17.1303687797931
0.00421357207317684,17.135112458128
0.00453570473738606,17.1401204826931
0.00488851019670659,17.1454348444017
0.00525705958005343,17.1507756952614
0.00563635878588675,17.1560308296271
0.00603016975087184,17.161213161325
0.00644091128760012,17.1663103388672
0.00687282091207008,17.1713295771995
0.00733048842811828,17.1762770989934
0.00781900015220553,17.1811593205332
0.00834380569985041,17.1859804741033
0.00891080198363928,17.1907427445491
0.009526417725914,17.1954463837928
0.0101977452696259,17.2000902802792
0.0109426982226024,17.204732041101
0.0117803048859744,17.2094049313525
0.0127289539329746,17.2141140053343
0.0138151888981091,17.2188833339208
0.0150795051361558,17.2237663249567
0.0165970864833597,17.2288958249254
0.0185685984950824,17.2346959928607
0.0204496400494891,17.2396180564615
0.022035061213264,17.2434938433812
0.0236570818781276,17.2473696303009
0.025050804166965,17.2507893197564
0.0262249183750325,17.253920915109
0.0271935826205301,17.2569382319457
0.0279079084432609,17.2598210868566
0.028356212518641,17.2626313584363
0.0285263751551164,17.2654990647028
0.0283640104149843,17.2686260420889
0.02764005128923,17.2726512681188
0.0267933232152933,17.2755764486948
0.0257286044842622,17.2785016292707
0.0246518771815253,17.281077155541
0.0235786407452023,17.283444762227
0.0225045358153173,17.2857030204041
0.0214309107089017,17.2879010074622
0.0203611278542098,17.2900673054215
0.0192988995619823,17.2922210695913
0.018247819426254,17.2943764054209
0.0172112331293236,17.2965444390094
0.0161922087146181,17.2987344417996
0.015193535777995,17.3009545103658
0.0142177368668,17.303212004128
0.0132670780621147,17.305513857018
0.0123435792546568,17.3078668130451
0.011449027927795,17.3102776061558
0.010584982910571,17.312753139595
0.00975278995225771,17.3153006219619
0.00895358574015692,17.3179277338408
0.00818214381194587,17.3206655544992
0.00742447659954404,17.3235886311122
0.00668444335508107,17.3267182661312
0.00596588077127726,17.3300799671239
0.0052728247471114,17.3337032155918
0.00460946114135841,17.3376222400507
0.00398004448763485,17.3418770413308
0.00338876222961434,17.3465149624961
0.00283953375527666,17.3515933358469
0.00233571994504288,17.3571845623761
0.00187990739729487,17.3633840506567
0.00147650597223488,17.3702706628927
0.00113801327289966,17.377690178045
0.000876426062947786,17.3856559920363
0.000709559012618381,17.3927307486202
0.000550077334176578,17.4018071101791
0.000434027355904665,17.4110569244612
0.000346897938826825,17.4210569244612
0.000289004581708034,17.4310569244612
0.000252102007426286,17.4410569244612
0.00023018059723749,17.4510569244612
0.000219005141380701,17.4610569244612
0.000215715621756774,17.4710569244612
0.000218457641510817,17.4810569244612
0.000226087524547794,17.4910569244612
0.000237969496520436,17.5010569244612
0.000253852506880326,17.5110569244612
0.000273806034314444,17.5210569244612
0.000298199862444011,17.5310569244612
0.000327722391417802,17.5410569244612
0.000363441476635426,17.5510569244612
0.000406921944788271,17.5610569244612
0.000458589947225919,17.5707390511071
0.000517485812862808,17.5797090566657
0.000584360815834442,17.5880040202103
0.000660228863197233,17.5956741628004
0.000746284646300357,17.6027667418926
0.000843896106728283,17.6093257334878
0.000954616734606106,17.6153920889468
0.00108020685129582,17.6210039681882
0.00122266041317757,17.6261969315406
0.00138423494141293,17.6310041145277
0.00156748656536481,17.6354563999424
0.00177531085905466,17.6395825846787
0.00201099185635509,17.6434095322298
0.0022782591150853,17.6469623155005
0.00258135981555321,17.6502643668995
0.00292514694129894,17.6533376349996
0.0033151923482737,17.6562027417222
0.00375793377085533,17.6588791546364
0.00426087161377163,17.6613853877644
0.0048328420126316,17.6637392402095
0.00548440855180205,17.6659581040682
0.00621775973319631,17.6680318091394
0.00702649353409889,17.6699434181219
0.00792055965922539,17.6717245416231
0.00891476890849149,17.6734065964598
0.0100319595932381,17.675022939872
0.0113119257978779,17.6766161678387
0.0128939617029864,17.6783139729663
0.0151594651880453,17.680396941678
0.0168698811804189,17.6817955645893
0.0186959825837082,17.6831941875006
0.0203806099713396,17.6844480937042
0.0218778213624949,17.6855761008442
0.0232242356230128,17.686645686121
0.0244245005047976,17.6877000285841
0.0254630861932698,17.6887764366658
0.0263057894569644,17.6899215083747
0.0268847807353694,17.6912192936663
0.0270093161942588,17.6929335494145
0.0264964848760877,17.6945649614243
0.0254805127575329,17.6961963734341
0.0243152321893472,17.6975911540176
0.0229971422895498,17.6989550013013
0.0215267996734127,17.7003600471661
0.0199126039253029,17.7018466195275
0.0181592406276668,17.7034548986688
0.0162969999528205,17.7052400838965
0.0141474125368338,17.7075075552733
0.0116492377611215,17.7105281167359
0.00967469725967113,17.7133342053335
0.00812331819902015,17.7159142850977
0.00684177791947123,17.7183974876817
0.00573035823379782,17.7209103775213
0.00479592363646367,17.7233814556785
0.00398814703506124,17.7258836539699
0.0032511123054325,17.7285803452723
0.00258402179116774,17.7315049386163
0.00219119195823816,17.7335273058446
0.00184640664244638,17.735549673073
0.00157102752253734,17.7373784947343
0.00133866581600267,17.7391087615332
0.00112894787243181,17.7408545952695
0.000928151141481684,17.7427316220654
0.00072030008752338,17.7449457901118
0.000455316225568247,17.748317741574
0.000222161214461755,17.7520528939067
6.49094340327354e-05,17.7552332988946
-6.15737730710841e-05,17.7584462032257
-0.000173420682961197,17.7621858372838
-0.000268336662281963,17.7670321077507
-0.000309736930062821,17.7722381712836
-0.000288121734995187,17.7768711795139
-0.000209331110166195,17.7810861084533
-7.41917698965969e-05,17.7849033782723
0.000119027954742515,17.7883722579169
0.000373506040437465,17.7915370196378
0.000694298159763967,17.7944469537035
0.00108930134622888,17.7971553352971
0.00157039119681852,17.7997167586752
0.00215594113977298,17.8021904368258
0.00287971457958166,17.8046588029842
0.00380277961557134,17.8072328349707
0.00502841085569883,17.8100490983397
0.00659824659818676,17.8130396133084
0.00820270875540095,17.8156131323144
0.00971853057626925,17.817701524845
0.011239515179818,17.8195210018328
0.0128317662351881,17.8211772389797
0.0145669800411848,17.8227427659425
0.0164751575675738,17.8242304257356
0.0185907033785392,17.8256515885526
0.0209540977483647,17.8270167734022
0.0235977816895482,17.8283281519969
0.026565335082869,17.8295915341736
0.0298941179415361,17.830807738933
0.0336362436778206,17.8319814651794
0.0378456501995461,17.8331154351536
0.0425821795717041,17.8342120415408
0.0479222497727184,17.8352753245589
0.0539531170043464,17.8363087501851
0.0607790560451871,17.8373159991044
0.0685261662847476,17.8383010253728
0.0773491551989793,17.8392681732977
0.0874437745706609,17.8402225927706
0.0990588778837958,17.8411701490953
0.112521329181193,17.8421180173428
0.128276145422878,17.8430754613075
0.146959119556735,17.8440552611377
0.168908149303472,17.8450499067387
0.194379357945614,17.846052006931
0.224092046281188,17.8470741240855
0.259050371765633,17.8481350478784
0.300877422036002,17.8492689773212
0.335879222085795,17.8501451506429
0.372381244306796,17.8510213239645
0.40485211921756,17.8517958736302
0.433249463509354,17.8524964933045
0.45803762962722,17.8531574353961
0.479221702604526,17.853803173052
0.496415983346449,17.8544553378465
0.508760458661844,17.8551387403903
0.514525734028225,17.8558907253591
0.51065229137235,17.856705735074
0.495374116063742,17.8575408119035
0.46733627501397,17.8584110304778
0.424840111595802,17.8593271864874
0.366034104299272,17.860298389381
0.323687499084345,17.8608937520226
0.277453859504765,17.8614891146643
0.236055596250934,17.8619950730151
0.200177433312312,17.862425457161
0.168425128696919,17.8628086332517
0.139858277234968,17.863162160121
0.113886933340429,17.8634972749392
0.0900905677256167,17.8638224273439
0.0681120685325921,17.8641454527957
0.0475579080941689,17.8644760304
0.0277607513900331,17.8648321969433
0.00617555761952122,17.8652849419582
-0.00232053525472686,17.8654902677223
-0.0100469610429486,17.8656955934863
-0.016410094802429,17.8658815634537
-0.0223560620962882,17.8660727866534
-0.028290584205125,17.8662850848963
-0.0339839968451674,17.8665150696546
-0.0392929109872128,17.8667607909752
-0.0441386318603532,17.8670216391677
-0.0484810135575518,17.8672978977867
-0.0522980748271155,17.8675904997897
-0.0556618329974481,17.8679098815259
-0.0583743879345532,17.8682378381973
-0.0605757658799494,17.8685877456366
-0.0622808136192807,17.8689628153755
-0.0635036569092014,17.8693668231062
-0.0642574972745557,17.8698044352208
-0.0645530987737238,17.8702814804099
-0.0643970784434714,17.8708053558381
-0.0637892487989933,17.8713859938614
-0.0627171522780071,17.872037618735
-0.0611522073237651,17.87277918912
-0.059036958603963,17.8736398049856
-0.0562505201194917,17.8746710301677
-0.0524674738481267,17.8759969678953
-0.0484300918757738,17.8773821579721
-0.0445393906124394,17.8787223023787
-0.0408382524497146,17.8800215347461
-0.0373473472757147,17.8812819612577
-0.0340768875620308,17.88250435234
-0.0310307366102307,17.8836888013804
-0.0282083425485228,17.8848350763959
-0.0256058418748363,17.8859428047526
-0.0232168182447628,17.8870115673448
-0.021032903819598,17.8880409413591
-0.0190442947484611,17.8890305121397
-0.017240206574903,17.8899798652513
-0.0156092769349611,17.8908885648137
-0.0140419162071773,17.8918158678356
-0.0125354901232973,17.8927671132573
-0.0110940817227904,17.893744185573
-0.00972154466093969,17.8947493232253
-0.00842151065380638,17.8957851630793
-0.00719733747271466,17.896854840898
-0.00605205463364523,17.897962124546
-0.0049883062242735,17.8991115948362
-0.00400829037277797,17.9003088971765
-0.00311369416671357,17.9015611020185
-0.00230562164879197,17.9028772393071
-0.00158451031571655,17.9042691249164
-0.000950027168413576,17.9057527071765
-0.00040092579886434,17.9073504129988
4.18954677761452e-05,17.9089961157833
0.000392174872153842,17.9106962716565
0.000665492073858628,17.9124695195666
0.000876298565000558,17.9143396823729
0.00103840148247566,17.916339301647
0.00116552030835703,17.9185159753787
0.00127223401040421,17.9209463159572
0.00137616323921464,17.9237737047677
0.00150593142115498,17.9273584998276
0.00165898754685682,17.9311478442879
0.00185510019436589,17.9353729817366
0.00206239707437954,17.9393896772064
0.00227658542091299,17.9432863615524
0.00249643882200588,17.947152780282
0.00272164531772424,17.9510466788964
0.00295294429696677,17.955011013987
0.00319200507590844,17.9590817066378
0.00344125747023313,17.9632915445241
0.00370374535429826,17.9676724333591
0.00398305945193722,17.9722571465516
0.00428338949639473,17.9770808282674
0.00460975805200274,17.9821823240273
0.00496853147041275,17.9876054734208
0.00533400629494778,17.9929081859186
0.00571360831347715,17.9981654329194
0.00610714566108393,18.0033308713254
0.00651880306968952,18.0084158345932
0.00695249777520854,18.0134226461066
0.00741304168021291,18.0183597025868
0.00790549712629236,18.0232325351516
0.00843535071250302,18.0280450796382
0.00900852765566513,18.0327990137019
0.00963151388851032,18.0374942444758
0.0103114873013517,18.0421294534268
0.0110692630352993,18.0467774952155
0.0119219498365985,18.0514549952967
0.0128892720968247,18.056171520632
0.0139992170383626,18.0609537552178
0.015295641618169,18.0658627300193
0.0168632617098118,18.071053381103
0.0189495685474758,18.0770589447295
0.0207383298860146,18.0816655458212
0.0226411320512131,18.0862721469129
0.0242184733357474,18.0900553868764
0.0255259960369292,18.0933443648249
0.0266215774773818,18.096415184265
0.0275028690600913,18.09940281212
0.0281143315518647,18.1022443699967
0.0284579881599686,18.1050597686368
0.0285097567630991,18.1079955329126
0.0281809761209006,18.1113319504303
0.0271790600551863,18.1156845968695
0.02628425585183,18.1183789809115
0.0252264125341758,18.1210733649536
0.024154145551051,18.1235304248674
0.0230806947779935,18.1258387122564
0.0220064180694045,18.1280645509749
0.0209340665471294,18.1302450625344
0.0198672724350392,18.1324036346906
0.0188097209662674,18.134556723861
0.0177648973585389,18.1367168720698
0.0167360184083628,18.1388942436569
0.0157260214202204,18.1410975035367
0.0147375691921582,18.143334369964
0.0137730630344176,18.145611981595
0.0128346528806628,18.147937169974
0.011924247271211,18.1503166718552
0.0110435271797153,18.1527572951021
0.010193949020838,18.1552660942277
0.00937676133401245,18.1578505020921
0.00859300742504941,18.1605185051389
0.00782749213335545,18.1633404378283
0.00707756135397515,18.166357080946
0.00634702518454567,18.1695917648013
0.00563981796224318,18.1730717751182
0.00496005245115868,18.176828718679
0.00431195877078074,18.1808993920662
0.0036997811871073,18.1853270095512
0.00312760880364221,18.1901632227369
0.00259914790771526,18.1954715702403
0.0021174114406033,18.2013341578215
0.0016846063342531,18.2078608426919
0.00131226547592315,18.2149828620607
0.00100898912221085,18.222684343694
0.000805974931383241,18.2299356112582
0.000637222721570464,18.2380743328895
0.00049832345213286,18.247247944229
0.000392398204602824,18.257247944229
0.000321242517835356,18.267247944229
0.000275087234269827,18.277247944229
0.000246811824841482,18.287247944229
0.000231327999504527,18.297247944229
0.000225144515404438,18.307247944229
0.000225964256913758,18.317247944229
0.000232344130839522,18.327247944229
0.000243448373675192,18.337247944229
0.000258892013099959,18.347247944229
0.000278654740881093,18.357247944229
0.000303047197472504,18.367247944229
0.000332721069240976,18.377247944229
0.000368724982083241,18.387247944229
0.000412619441384117,18.397247944229
0.00046475982782926,18.4069192004689
0.000524198367132738,18.4158783172303
0.000591680239263137,18.4241628412263
0.000668218568755551,18.4318230457472
0.000755010817801788,18.43890620751
0.00085342978610246,18.4454563096107
0.00096503539897312,18.4515143036882
0.00109159587241508,18.4571183459395
0.00123511463858316,18.4623039896753
0.00139786034192427,18.4671043612667
0.00158240221180508,18.4715503336693
0.00179165114132645,18.4756706945938
0.00202890925262165,18.4794922993153
0.00229792738466619,18.4830402136994
0.00260297806427025,18.4863378653091
0.00294894475839342,18.4894072013038
0.00334143637373379,18.4922688464303
0.00378693650929262,18.4949422770298
0.00429300350532826,18.4974460246297
0.00486854857554198,18.499797918323
0.00552423588089431,18.5020153990895
0.00626106801252578,18.5040851565331
0.00707371445336001,18.5059941032304
0.00797236747966214,18.5077739594286
0.00897219799756827,18.5094562933152
0.010096749612206,18.5110749220761
0.0113874669600755,18.5126736840371
0.0129928825278136,18.5143881043754
0.0153362204986513,18.5165297705635
0.017037156653731,18.5179145375877
0.0188455066959884,18.5192993046119
0.0205032796198058,18.5205383303212
0.0219802880880059,18.5216603058736
0.0233085227747062,18.5227288586171
0.0244900452435414,18.523785830668
0.0255076095301755,18.5248688073072
0.0263247546203607,18.5260264109732
0.0268682019091484,18.5273499681533
0.0269154749642337,18.5291530133647
0.0263593502740089,18.5307170525727
0.0253549561820108,18.5322810917808
0.0241878609779495,18.5336655577534
0.0228636838866215,18.5350311799082
0.0213878418288015,18.5364409943211
0.019769281804654,18.5379342215931
0.0180124311157508,18.5395513521095
0.016150882947351,18.5413488448161
0.0134349871846511,18.5442879332384
0.0110989643234045,18.5472392968239
0.00925525952663651,18.5499734012287
0.00779205681682092,18.5525081042421
0.00655766587733379,18.5549995024378
0.00548045337330478,18.5575417501781
0.00455202713767314,18.5601173157614
0.00372510528960679,18.5628337310952
0.00300199657746837,18.5656745631298
0.0025418642696182,18.5677991566601
0.00214096084647649,18.5699237501905
0.00182658073606898,18.5718224790123
0.00156443793911789,18.5736067790483
0.00133012381612838,18.5753977131042
0.0011081085730257,18.5773111086314
0.000881675139152875,18.5795432377811
0.000605449648646794,18.5827958633296
0.000341688349645129,18.586732859244
0.000168437251467333,18.5900573836416
3.44048753761468e-05,18.5933392155724
-8.07741303492989e-05,18.5971166953421
-0.000174369894066662,18.6019584847489
-0.00020983330577407,18.6071002830472
-0.000180279731909234,18.6116896383673
-9.19171116134481e-05,18.6158685987321
5.41646419601986e-05,18.6196629524551
0.000259297064763585,18.6231151587051
0.000526677790264925,18.6262717106058
0.000861754962168125,18.6291835076701
0.00127256663297526,18.6319007908544
0.00177155243486055,18.6344778155499
0.00237788588132822,18.6369732385969
0.00312335030494845,18.6394588660016
0.0040648649676716,18.6420341156199
0.00527724077472242,18.6447776484315
0.00674729899042162,18.6475544494108
0.00827601527798799,18.6499998289078
0.00977753256823954,18.6520651258113
0.011301993796559,18.6538833253842
0.0129064208287726,18.6555449949002
0.0146534872073341,18.6571128935047
0.0165814346501178,18.6586071298341
0.0187105960165209,18.6600285171432
0.0210907120497091,18.6613947889947
0.0237495080419574,18.6627055298979
0.0267336691979067,18.663968336593
0.0300827400309503,18.6651847156745
0.0338460812532249,18.6663581912946
0.0380800482710284,18.6674921896357
0.0428472215459742,18.6685895488838
0.0482215619341622,18.6696535132455
0.0542933502801199,18.6706879951872
0.0611687288807168,18.6716967353965
0.0689766271797428,18.6726838059105
0.0778747626813218,18.6736535936832
0.0880638940382313,18.6746114028531
0.0998008001430571,18.6755633556775
0.113424860202517,18.6765170051386
0.129402602331231,18.6774822472576
0.148410769975918,18.6784730396503
0.170616833900973,18.6794736401687
0.196411963492499,18.6804839084917
0.226551638780737,18.6815175679984
0.262112970091105,18.6825956670687
0.304162456855074,18.6837387875262
0.33824034182491,18.6845994659808
0.373537471662866,18.6854601444354
0.405007002533461,18.6862277245647
0.432584472547003,18.6869279920854
0.456604607586358,18.6875922521814
0.47699696806208,18.6882438681274
0.493314656582686,18.6889042709873
0.504618924095202,18.6895987016692
0.509035726621457,18.6903658788278
0.503544455340182,18.6911869012328
0.486575435316884,18.6920289585795
0.456745886288013,18.6929062314984
0.412375293301417,18.69382881997
0.366449911638983,18.6945870607496
0.312886077860966,18.6953453015291
0.265428000398109,18.6959546986404
0.22561529074318,18.6964429016996
0.191110298798571,18.6968607426667
0.160417058636835,18.6972363853616
0.132704579210432,18.697585537257
0.107447573796402,18.6979184875565
0.084256891115766,18.6982433328325
0.0627836896029152,18.6985680462343
0.0426095848875171,18.6989033251386
0.0229196207532245,18.6992717223529
0.00698405158575352,18.6996137512781
-0.00163845873702752,18.6998220063117
-0.00947630653933333,18.7000302613454
-0.0159135217261882,18.7002184516649
-0.0218240026819005,18.7004084997447
-0.0277471243885861,18.7006200754165
-0.0334460748887326,18.7008496602193
-0.038770653832937,18.7010951443883
-0.0436381536173868,18.7013558186592
-0.0480060420078195,18.7016319015283
-0.0518500227489235,18.7019242783176
-0.0552077112098491,18.7022396556656
-0.0579542670416352,18.7025668676467
-0.0601903036884688,18.7029158767253
-0.0619300038802506,18.7032897924786
-0.0631873936799389,18.7036923194831
-0.0639757230063973,18.7041280320902
-0.0643059628672269,18.7046026345121
-0.0641851368779334,18.7051233491968
-0.063613912480181,18.7056997394526
-0.0625810846306389,18.7063456991992
-0.0610601544131936,18.7070794715695
-0.0589977911410079,18.7079287517272
-0.0562832792929394,18.7089416220887
-0.0526311259005999,18.7102283705557
-0.0485952529294733,18.7116169208859
-0.0447010266799313,18.7129595006793
-0.0409941253429355,18.7142606256774
-0.037496362569974,18.7155226378912
-0.0342185186957283,18.7167464377229
-0.0311647767246912,18.7179321917403
-0.0283347836323797,18.7190797101611
-0.0257248089426127,18.7201886452304
-0.0233285289385052,18.7212585928655
-0.0211376408696798,18.7222891396624
-0.0191423855099786,18.7232798772673
-0.0173320069920593,18.7242303959865
-0.0156951585898364,18.7251402641212
-0.0141249082667,18.726066980217
-0.0126154214698074,18.7270176036791
-0.0111708108106224,18.7279939969437
-0.00979493364098801,18.728998389643
-0.0084914261901022,18.730033407351
-0.00726365134756327,18.7311021714739
-0.0061146442934874,18.7322084314341
-0.00504705520715463,18.7333567440213
-0.00406308854803613,18.7345527227762
-0.00316443769234802,18.7358033949001
-0.00235221251091918,18.7371177299223
-0.00162685524904376,18.7385074561931
-0.00098803563936623,18.7399883891491
-0.000434506502285138,18.7415827409558
1.33134102891673e-05,18.7432273053128
0.000368179942734194,18.7449258032697
0.000645755514789059,18.7466968391389
0.000860545215893047,18.7485640547954
0.00102640833237819,18.7505596953437
0.00115711650574725,18.7527308246626
0.00126730144011314,18.7551529605282
0.00137462448061484,18.7579666937951
0.00150757672421162,18.7615212118013
0.00166457835956749,18.765305336825
0.00185969031410641,18.7694190510955
0.00206746797083817,18.7733688897665
0.00228531210780932,18.777256015536
0.00251123322416688,18.7811490673613
0.00274436986185035,18.7850961949441
0.0029851231629794,18.7891358677674
0.00323500832421881,18.7933020423576
0.00349645431788304,18.7976270095258
0.00377263510963666,18.8021432297483
0.00406740419391414,18.80688494296
0.00438538902615921,18.8118895842365
0.00473233273234954,18.8171990881759
0.0050970637614696,18.8225868996323
0.0054702580441226,18.8278720007208
0.00585709688553684,18.8330892817082
0.00625931342993402,18.8382174223345
0.00668120401152284,18.8432662296787
0.00712713521181919,18.8482413412396
0.00760203479273648,18.8531499727808
0.00811112676615861,18.8579968208697
0.00866005249382095,18.8627846102351
0.00925494367318288,18.8675140463889
0.00990255029384246,18.8721843258347
0.0106129939843919,18.8768099675929
0.0114106027430521,18.8814724592194
0.0123102812065744,18.8861642875892
0.0133353032124889,18.8909044277207
0.0145188505657269,18.895730076348
0.015917188835722,18.9007305453648
0.0176547797382828,18.9061528874493
0.0200744397943969,18.9127144456274
0.0216779203465154,18.9166768964506
0.0233343811136801,18.9206393472739
0.0247788996117215,18.9241484761605
0.0259961240729618,18.9273231546095
0.0270077412440259,18.9303525603253
0.0277781385840981,18.9332652121829
0.0282821652964346,18.9360809198374
0.0285129168038506,18.9389242045434
0.0284284477393602,18.9419716250974
0.0278698663801208,18.9456795652372
0.027052987809533,18.9487904113708
0.0259738635710964,18.9519012575043
0.0248907392687289,18.9545582396248
0.0238169391340061,18.9569624046188
0.0227429964186624,18.9592400900224
0.0216689602527573,18.9614488980578
0.0205979382933087,18.9636206922615
0.0195336250414252,18.9657762386697
0.0184796567530737,18.9679305539459
0.0174394385373614,18.9700953208144
0.0164160994248851,18.9722801693977
0.0154124897300934,18.9744934287841
0.0144311896542532,18.9767426101126
0.0134745194829707,18.979034743385
0.01254455410328,18.981376617757
0.0116431296601303,18.9837749883294
0.0107718540255224,18.9862367448674
0.00993212066976717,18.9887690549064
0.0091251113075825,18.9913795356035
0.00835110736738144,18.9940789487709
0.00759002034407285,18.9969593761814
0.00684573772134451,19.0000411927592
0.0061220470386835,19.0033491162595
0.00542294048767182,19.0069117025885
0.00475257539834791,19.0107620615736
0.00411519904673588,19.0149388232479
0.00351502792649123,19.0194875453573
0.00295606117161758,19.0244630584048
0.00244180782563086,19.029933877969
0.00197503649039529,19.0359895190959
0.00155771344525146,19.042750617537
0.00120539311917317,19.0500447543946
0.000926753162604222,19.0579528148766
0.000748908210463361,19.0650152039844
0.000585490897289559,19.0737029887071
0.00046168750789272,19.0828042326954
0.000366606852880063,19.0928042326954
0.000303103355302657,19.1028042326954
0.000262269772549211,19.1128042326954
0.00023760193572377,19.1228042326954
0.000224491797764708,19.1328042326954
0.000219808413748423,19.1428042326954
0.000221506528862349,19.1528042326954
0.00022830824260626,19.1628042326954
0.000239480096152735,19.1728042326954
0.000254694954241801,19.1828042326954
0.000273957035860978,19.1928042326954
0.000297573133169317,19.2028042326954
0.00032616268449609,19.2128042326954
0.000360708877642025,19.2228042326954
0.000402662682535081,19.2328042326954
0.000453051675821654,19.2426107716853
0.000510506280999262,19.2517029353141
0.000575712978706389,19.260112990645
0.000649639129691227,19.267891173026
0.000733435720220662,19.27508496048
0.000828424705502369,19.2817385686297
0.000936108408760938,19.2878931978145
0.00105818951730439,19.2935872638846
0.00119659676913266,19.2988565890962
0.00135351429391792,19.3037345699091
0.00153141467837109,19.3082523446213
0.00173309874949416,19.3124389570114
0.00196174169025215,19.3163215079415
0.00222094776865218,19.3199252940308
0.00251481808593929,19.3232739527402
0.00284803323615007,19.3263896149102
0.00322595938600017,19.3292930576471
0.00365478382674962,19.3320038678977
0.00414169577971657,19.3345406318032
0.00469513489779747,19.336921157112
0.00532514265490079,19.3391627528417
0.00604063253699647,19.3412738615629
0.00682931216830834,19.3432149075779
0.0077000002878239,19.3450173193655
0.00866593331700657,19.3467123208813
0.00974695217270952,19.348331785241
0.010976126631144,19.3499137991124
0.0124527122371919,19.351552251214
0.0144335220169171,19.3534419485317
0.0162482829399172,19.354968164902
0.0182239699690864,19.3564943812723
0.0200126441382735,19.357815689534
0.0215754551579398,19.3589691422331
0.0229775964298111,19.3600459357735
0.0242341367097413,19.3610956665469
0.025335141208335,19.3621557197161
0.0262528014592813,19.3632678600359
0.0269329750078493,19.3644989850501
0.0272472760727188,19.3660177066703
0.0269173867130375,19.3677607746787
0.025961373543547,19.3695038426871
0.0248299409584469,19.3709265988065
0.0235478706849543,19.3722848596872
0.0221102684442206,19.3736720099425
0.020525015056283,19.3751318688454
0.0187982053753932,19.376703336542
0.0181325845299154,19.3773135447178
0.017479397211584,19.3779237528937
0.0149763439525089,19.3804376414468
0.0122923886844147,19.3835422147538
0.0101704739897718,19.3864335151167
0.00852472461624515,19.389064763539
0.00719610858844203,19.3915413505457
0.00604147414393285,19.3940510815928
0.00504103434883187,19.396600167028
0.00417887571510933,19.3991875031296
0.00340266825641588,19.4019545377774
0.0027248203374923,19.4048579882969
0.00231287555485574,19.4069347742235
0.00195306782767076,19.4090115601501
0.00166715249860836,19.4108891980629
0.00142667179755117,19.4126685859196
0.0012104282192744,19.4144666776512
0.00100419529031832,19.4164038794853
0.00079145562804431,19.4186988279553
0.000518196357909256,19.42227172548
0.000291508480887049,19.4260764749745
0.000141643386347835,19.4293152679025
2.33380484589134e-05,19.4326159990149
-7.65375733585992e-05,19.4364724974788
-0.000150676223994039,19.4414776918859
-0.000162304148705799,19.4465000306449
-0.000111858610062392,19.4510181585303
-3.494392530746e-06,19.4551279197817
0.000162374976813984,19.4588601998076
0.000387533644544659,19.4622579600724
0.000675500456764902,19.4653671432841
0.00103189740789857,19.4682366480423
0.00146495503425489,19.4709153487483
0.00198713624954638,19.4734549714068
0.00261689144124608,19.4759091146691
0.00338476470865481,19.4783442227884
0.00434172718456718,19.4808432952444
0.00554644158906662,19.4834568752504
0.00697978759248089,19.486064468285
0.00850979397228483,19.4884279268407
0.010045139356932,19.4904672159258
0.011609372273547,19.4922676860922
0.0132812498237315,19.4939376647698
0.0150744731594757,19.4954891678307
0.017055205817489,19.4969702913495
0.0192445470761041,19.4983813952778
0.0216861227950097,19.499735421901
0.0244181028542131,19.5010373236109
0.0274783089399488,19.5022896559176
0.0309151745445545,19.5034973135405
0.0347749799118685,19.5046620839274
0.039118045583154,19.5057881304014
0.0440108206007036,19.5068786390382
0.0495299714780962,19.5079367292808
0.0557675264307883,19.5089659706598
0.0628359519295824,19.5099704550026
0.0708705917334594,19.5109543481879
0.0800390446321344,19.5119223129447
0.0905522741583938,19.5128796651073
0.102684032237877,19.5138328555579
0.116800460048716,19.5147900212821
0.133410618929769,19.5157619486562
0.153253246736104,19.516763589979
0.176239680277519,19.5177674137606
0.202978268817717,19.5187841663843
0.234290282534042,19.5198291425999
0.271385587040229,19.5209268430018
0.314230848907538,19.5220707862846
0.354620143996058,19.5230788022884
0.388521721485579,19.5239067770145
0.417894631470316,19.5246388002806
0.443584145561333,19.5253199667731
0.465732378791186,19.5259772972339
0.484080009361829,19.5266324218683
0.497962248750904,19.5273077537979
0.506070495519289,19.5280331721617
0.505718915022983,19.5288515567143
0.494440262440928,19.5296825183197
0.471050954219884,19.5305418907314
0.434004930470117,19.5314415497559
0.381559903847222,19.5323905335365
0.338310125101746,19.5330407025862
0.289993882507202,19.5336908716359
0.246752013871475,19.5342340270413
0.209643998040102,19.5346865802485
0.177012943649165,19.535083827739
0.147758558937372,19.5354467554478
0.121221015190695,19.5357880989981
0.0969517474202806,19.5361168987594
0.0745919290435873,19.536440939856
0.0537826305053685,19.5367688747916
0.0340088011625187,19.5371144821372
0.013893716049897,19.5375165057046
0.00612841423968942,19.5376909300943
-0.00107029322850183,19.537865354484
-0.00881007744454891,19.5380698198333
-0.0153374888276402,19.5382593275082
-0.0212186779975818,19.5384469751764
-0.0271455195152215,19.5386566932694
-0.0328703672270676,19.5388847890368
-0.0382334929443094,19.5391289532162
-0.0431465475199429,19.5393883497333
-0.0475636510669614,19.5396631121828
-0.0514592446793952,19.5399540621814
-0.0549054892755616,19.5402714938514
-0.0576975010997118,19.5405971868059
-0.0599777959802762,19.5409443898623
-0.0617608374101915,19.5413162011803
-0.0630606149427742,19.5417162534397
-0.0638904828020369,19.5421490282182
-0.0642616673904155,19.5426201066938
-0.0641816286872994,19.5431365420984
-0.0636518917283155,19.5437075257685
-0.0626624578045974,19.5443466572978
-0.0611886934175083,19.5450715259192
-0.0591808271524093,19.5459085784169
-0.0565365829960367,19.5469029242326
-0.0530014088723051,19.548153930835
-0.0489584379370188,19.5495471816607
-0.045051363939494,19.550893509838
-0.0413287544057107,19.5521979523938
-0.0378138432230167,19.5534630730762
-0.0345181737707229,19.5546898877169
-0.0314464066630404,19.5558786231931
-0.028598522414659,19.5570291207126
-0.0259710381660206,19.558141047817
-0.0235578175844836,19.5592140075007
-0.021350697731602,19.560247589517
-0.0193400190674863,19.5612413873569
-0.017515090655602,19.5621949935367
-0.0158646005585641,19.5631079801017
-0.0142891980312178,19.5640329713656
-0.0127741571833412,19.5649817800971
-0.0113236743009772,19.5659562061533
-0.00994161961286876,19.5669584536324
-0.0086316461243641,19.5679911158643
-0.00739713697772017,19.5690572736631
-0.0062411512017674,19.5701606246759
-0.00516636652282371,19.5713056585989
-0.00417501875003168,19.5724979003347
-0.00326883656643278,19.5737442571883
-0.00244896937119492,19.5750535317245
-0.00171590366561802,19.5764372111556
-0.00106935921288593,19.5779107460358
-0.000508146914642976,19.5794957613617
-5.11126463888434e-05,19.5811371010928
0.00031169695254348,19.5828309349058
0.000596124028107757,19.5845957762056
0.000816755288594138,19.5864547686464
0.000987503760920056,19.5884393462213
0.00112215305539823,19.5905951205691
0.0012352683011578,19.5929946592345
0.00134423111144548,19.5957711442363
0.00147624604660883,19.5992451148523
0.00163375524836851,19.6030159219278
0.00183200516941797,19.6071725835248
0.00204238295797005,19.6111433215571
0.0022625293398309,19.6150383508529
0.00249053771846112,19.6189310383677
0.00272555501710789,19.6228716819169
0.00296797228856462,19.6268997912941
0.00321929153167652,19.6310498052332
0.00348192945184786,19.6353541611445
0.00375904721556827,19.6398452100503
0.00405447907454467,19.6445568661326
0.00437281273394514,19.6495260426098
0.00471970398332663,19.6547939394348
0.00508729996433601,19.6601857106213
0.00546241265162833,19.6654629307487
0.00585152687759465,19.6706798230535
0.00625578311295092,19.6758068530218
0.00667958899326723,19.6808551310156
0.00712725784020096,19.6858293224534
0.00760376164284223,19.6907368091983
0.00811435736863034,19.6955822891639
0.00866473061535293,19.7003685932094
0.00926105363745302,19.7050964902399
0.00991011449168719,19.7097652191673
0.0106224071630647,19.7143913706018
0.0114220197298519,19.7190540810687
0.0123240142394654,19.7237464295825
0.0133517902956901,19.7284875377844
0.0145387970392919,19.7333151615458
0.015941936738666,19.7383200405366
0.0176878994024141,19.7437543565687
0.0201082133159444,19.7503036393462
0.0217074176626701,19.7542508350733
0.0233579776900021,19.7581980308004
0.0247983898434106,19.7616992098734
0.0260124163584173,19.764870304385
0.0270208945714241,19.7678985856753
0.0277870465601497,19.7708087493924
0.0282868853706188,19.7736238202763
0.0285131436523558,19.7764686553114
0.0284230329733142,19.779521437097
0.0278535520774418,19.7832491377751
0.0270345841618561,19.7863453766697
0.0259568712438236,19.7894416155643
0.0248743627212166,19.7920925663074
0.0238006694754903,19.7944941278952
0.0227267633647355,19.7967704206175
0.0216527988700113,19.7989784148921
0.0205819043689914,19.8011497416956
0.0195177770140726,19.8033050539777
0.0184640511775159,19.8054593036147
0.0174241289170016,19.8076241320797
0.0164011359843521,19.8098091410958
0.0153979194969405,19.8120226387512
0.0144170566467427,19.8142721194549
0.0134608648670351,19.8165645989058
0.0125314162468323,19.8189068532681
0.0116305443682441,19.8213056244379
0.0107598544639168,19.8237677886027
0.00992073752009278,19.8263004978034
0.00911437263741735,19.8289113516374
0.00834053230535314,19.8316129320941
0.00757966256981451,19.8344957511053
0.00683564720801169,19.8375802405934
0.00611227717852283,19.8408911567368
0.00541354752361233,19.8444571001882
0.00474361774038386,19.8483112317807
0.00410673596265369,19.8524922412228
0.00350711729213721,19.8570457609498
0.00294875612696618,19.8620267252179
0.00243515266319696,19.8675038092562
0.00196906423327169,19.873566765198
0.00155244736075916,19.8803365286353
0.00120093565947133,19.8876377911787
0.000921750097666919,19.8955545195908
0.000734988475736885,19.9030152277316
0.00057655447712443,19.9115633095682
0.000452669039314705,19.9207891866167
0.000359015517874983,19.9307891866167
0.000296364376809433,19.9407891866167
0.000255962249722783,19.9507891866167
0.000231416975312675,19.9607891866167
0.000218194834429913,19.9707891866167
0.000213209407630767,19.9807891866167
0.00021434210681511,19.9903945933084
0.00022003488281459,20
