ecg,time
0.0100852946922524,15.0010552563987
0.0114161182300155,15.0027625280306
0.0131321800126093,15.0046578412761
0.0150306013359385,15.0064874406088
0.0166559989640262,15.0079132635833
0.0183689474030891,15.0093390865577
0.0198992822868381,15.0105948706184
0.0212648804187207,15.0117455207615
0.0224888853317302,15.0128505871871
0.0235678707595354,15.0139507525578
0.0244810308519584,15.0150854302958
0.0251872815846973,15.0163092033155
0.0256011620632551,15.0177333688209
0.0254053571379478,15.0198329406541
0.0247252470044887,15.0213519392783
0.0236920065211948,15.0228709379026
0.0225085832897797,15.0242727128291
0.0211798897687239,15.0256730862381
0.0197146642370339,15.0271235214604
0.0181218979204525,15.0286614240015
0.0171167500864394,15.0296328763511
0.0161372761513551,15.0306043287007
0.0138103486291554,15.0331082415574
0.0116960544923784,15.035697610349
0.00994797896717352,15.0381539233857
0.00849478920853811,15.040496206827
0.00727268444840336,15.0427530845897
0.00622845638489984,15.0449608593557
0.00531525212606603,15.047173606389
0.00448338407435224,15.0494958682222
0.00365198763374636,15.0522157423337
0.00313674629620543,15.0541723263675
0.0026817840677134,15.0561289104012
0.00232761199332864,15.0578408437167
0.0020333897180561,15.0594198985291
0.00176963530307533,15.0609838398312
0.00151891870547187,15.062629325182
0.00126413927429973,15.0644973139091
0.000969511891784785,15.0669725595304
0.000595936822781411,15.07078962531
0.000327751169592869,15.07423805338
0.000126983939976053,15.0774344078946
-5.27882837937065e-05,15.0810195834201
-0.00022954608175606,15.0857742143892
-0.000358699813173147,15.0912966827263
-0.00040567848828035,15.0961345873407
-0.000387451123435306,15.100521517539
-0.000308298635126547,15.1044712261299
-0.00016895827190463,15.1080330713966
3.19247948139306e-05,15.111251621382
0.000297659907889104,15.1141785751229
0.000633790617572457,15.1168669777266
0.00104886569907242,15.1193698805133
0.00155701802307734,15.1217460401556
0.00218381663838992,15.1240692640005
0.00297278536689067,15.1264273126104
0.00402562246020351,15.1289938476617
0.00546147452737436,15.1318729132906
0.00723933263403907,15.1348438036604
0.0086036196530355,15.1368124031621
0.0101505886051664,15.1387810026639
0.0117155572600388,15.1405250236974
0.013391486981954,15.1421564188057
0.0151749899553084,15.1436662133255
0.0171486467661286,15.1451138248832
0.0193332933632921,15.1464966807281
0.0217740728269549,15.1478266568726
0.0245083284039196,15.1491069773131
0.0275716577508356,15.1503386209268
0.0310123590108311,15.1515262455804
0.0348757418395697,15.1526712764098
0.03921698962963,15.1537766028052
0.0441021484483744,15.1548457560729
0.0496054896051902,15.1558817265715
0.0558146027107387,15.1568877112913
0.0628315439151556,15.1578668166414
0.0707843076931436,15.1588230878683
0.0798259115246448,15.1597604748319
0.0901450272141593,15.1606833232712
0.101978167777463,15.1615965460437
0.115627358512996,15.1625058521282
0.131487908231129,15.1634181535884
0.15009549450242,15.1643423181106
0.172207330375037,15.1652903846512
0.197926093701595,15.1662443757341
0.227753026270538,15.1672067695708
0.262513340064186,15.1681894997502
0.303394004699709,15.1692122136632
0.352551346191864,15.1703177595226
0.39611102145077,15.1712339353226
0.43154333962411,15.1719677285345
0.462073605289855,15.1726180634053
0.48881490011224,15.1732300959051
0.511924627706341,15.173830174729
0.531064382994722,15.1744412102547
0.545353206157313,15.1750912173256
0.552831712579144,15.1758287174446
0.549902952156216,15.1766107134588
0.535007528761603,15.1774215893996
0.506614209598797,15.1782793724196
0.462646433777451,15.1791975519858
0.402821515166192,15.1801549085618
0.354977574744701,15.1808023715161
0.302115540133974,15.1814498344703
0.255602954121848,15.1819860211986
0.21621188509775,15.1824296716252
0.181869604818267,15.1828176833094
0.151250862762445,15.18317167985
0.123579251608625,15.1835046040196
0.0983356572528536,15.183825610581
0.0751077397487611,15.1841426799069
0.0534780414731099,15.1844649966621
0.0328150770488017,15.1848082279088
0.0111477531025476,15.1852239787498
0.000358506150093344,15.1854623929739
-0.00709049553980655,15.1856439561704
-0.0139043447094737,15.1858255193669
-0.0198595035083721,15.1859993218668
-0.0259665341928938,15.186196026721
-0.0319366726686871,15.186411559278
-0.0375776195883047,15.1866431925928
-0.0427810652229266,15.1868897902056
-0.0474891204925895,15.1871512581565
-0.0516741565955505,15.1874282273729
-0.0553270323128349,15.1877218949369
-0.0584450832472301,15.1880339615383
-0.0610920025176928,15.1883761892144
-0.0631228777254057,15.1887298321944
-0.0646556080637716,15.1891098729293
-0.0657056699962608,15.1895206256577
-0.0662858876496872,15.1899672874845
-0.066405722943961,15.1904564160712
-0.0660692747154617,15.1909964526612
-0.0652709944446814,15.1915994849147
-0.0639906184622818,15.1922819277386
-0.0621855188205488,15.1930674644516
-0.0597684019357316,15.1939951829452
-0.0565341843942218,15.1951450727582
-0.0523699291805701,15.1965687791772
-0.0483111926912372,15.1979429359558
-0.0444182190993627,15.1992756619286
-0.0407226142357746,15.2005698968701
-0.0372409397730986,15.2018267683539
-0.0339814742525843,15.2030464900148
-0.0309470867637494,15.2042288314727
-0.0281366797362929,15.205373366214
-0.025546074667626,15.206479600986
-0.0231686666678447,15.2075470396285
-0.0209959726558707,15.2085752086349
-0.019018118424432,15.2095636589424
-0.017224277950167,15.2105119519115
-0.0156030664085051,15.2114196338696
-0.0140434569558427,15.212347141539
-0.0125450217368741,15.2132986278502
-0.0111118268470588,15.2142759895252
-0.00974772988856441,15.2152814684222
-0.00845636919560398,15.2163177067074
-0.00724111232977534,15.2173878476314
-0.00610500236458765,15.218495669327
-0.00505070164294129,15.2196457665627
-0.00408043263110924,15.2208438037878
-0.00319591490911753,15.2220968778015
-0.0023982963050418,15.2234140558549
-0.00168807429211032,15.2248072084097
-0.00106500005838023,15.2262923673258
-0.000527949576639371,15.2278920953904
-9.77421535888132e-05,15.2295383204721
0.000239957407843244,15.2312393335826
0.000500562124292964,15.2330137857919
0.00069834708441497,15.2348856073781
0.000846893686255864,15.236887519071
0.000959606717801491,15.2390674454318
0.00105057615046158,15.2415026743305
0.00113653715218958,15.2443383272441
0.0012440153100794,15.2479418601671
0.00137290854738603,15.2517340914064
0.00154182662722087,15.2559700148327
0.00176359817248768,15.2608774614323
0.0020015684032438,15.2657798877558
0.00223977801506212,15.2705452309006
0.00244833346557174,15.2746782151799
0.00264478707737972,15.2785640944914
0.00283690166100209,15.2823546012724
0.00302931165090024,15.2861281688321
0.00322555827441957,15.2899363553145
0.00342874914456581,15.2938187250042
0.00364183594296634,15.2978087471926
0.00386780504572479,15.3019372817638
0.0041098270290997,15.3062347299449
0.00437140130059177,15.3107324222788
0.00465656491711057,15.3154639576409
0.00497023459339641,15.3204665676752
0.00531877057970303,15.3257822737777
0.00568315129132742,15.3310633632038
0.00606301354177261,15.3362692257567
0.00646084707129456,15.3413941056732
0.00687989250054926,15.346435831014
0.00732452942738653,15.3514008377106
0.00779966036688317,15.3562954955667
0.00831070466071429,15.3611253656049
0.00886350531863429,15.3658935159304
0.00946442242408851,15.3706008914327
0.0101204289598377,15.375246675447
0.0108460058388121,15.3798700061996
0.0116623894727831,15.3845239871498
0.0125863769936338,15.3892077383782
0.0136427709009054,15.3939416359719
0.0148681169571244,15.3987693268901
0.0163269674391502,15.403797458382
0.0181742715331323,15.4093393752869
0.0206148646317022,15.4157254209081
0.022187142019858,15.419511919784
0.0237954362227739,15.4232984186599
0.0251990113996422,15.4266886956401
0.0263840044414704,15.4297963639928
0.0273631623757968,15.432790128862
0.0280864740175972,15.4356467776019
0.0285434634556696,15.4384306952917
0.0287224539811334,15.4412702319143
0.0285699965888562,15.4443633744593
0.0278629260408068,15.448328676167
0.0270215235297855,15.4512364500136
0.0259587316611506,15.4541442238602
0.0248833615969106,15.456699393258
0.0238113405306123,15.4590450206465
0.022738131067306,15.461280437292
0.0216650363375281,15.4634548005914
0.0205954221816459,15.4655965855703
0.0195330111053579,15.4677247928451
0.0184814041441422,15.469853356686
0.0174439847722313,15.4719932178097
0.016423852367797,15.4741534488532
0.0154237878012617,15.4763419286379
0.014446305043952,15.4785657751425
0.0134936610543598,15.4808316551212
0.0125678686271464,15.4831460076036
0.0116707076705444,15.4855152225113
0.0108037299144212,15.4879458088872
0.00996827454556325,15.4904445204406
0.00916547187098282,15.4930185097094
0.00838463104912151,15.4957172347844
0.00761683731542539,15.4985978145643
0.0068658776205297,15.5016814648547
0.00613560799806453,15.5049932794587
0.00543009946992946,15.5085622820821
0.00475359721259926,15.5124221702712
0.00411045015589911,15.5166122707369
0.00350498476049361,15.5211789760512
0.00294129679103507,15.5261782664084
0.00242298315145456,15.5316801608018
0.00195285976640956,15.5377765402233
0.00153525209104164,15.5445488611352
0.00118387703658218,15.5518339906672
0.000957274654609091,15.5577681647918
0.000781143083555302,15.5637023389165
0.000592399721487098,15.5722954867098
0.000450262570546976,15.5812954401054
0.000337547476021901,15.5912954401054
0.00025917933409347,15.6012954401054
0.000205288714707798,15.6112954401054
0.00016879565780721,15.6212954401054
0.000144521206911962,15.6312954401054
0.000128763408447905,15.6412954401054
0.00011895503296738,15.6512954401054
0.000113350606599312,15.6612954401054
0.000110771231228108,15.6712954401054
0.000110420779279984,15.6812954401053
0.000111763417503395,15.6912954401053
0.000114444084763488,15.7012954401053
0.000118236181177062,15.7112954401053
0.00012300631391448,15.7212954401053
0.000128690328048185,15.7312954401053
0.000135277340298303,15.7412954401053
0.000142799729864619,15.7512954401053
0.000151327709420064,15.7612954401053
0.000160967571820934,15.7712954401053
0.000171863116455511,15.7812954401053
0.000184200140601155,15.7912954401053
0.000198214262481649,15.8012954401053
0.000214202769759862,15.8112954401053
0.000232541732940282,15.8212954401053
0.000253710399093793,15.8312954401053
0.00027832606576053,15.8412954401053
0.000307194531146735,15.8512954401053
0.000341384367181385,15.8612954401053
0.000382338676661556,15.8712954401053
0.000432047629261845,15.8812954401053
0.000490366461623513,15.8908536076636
0.000556714716821653,15.8996844575816
0.000632048555098644,15.907832230538
0.000717563545559733,15.9153500829132
0.000814636198508336,15.9222877583185
0.000924831056155931,15.928691409305
0.00104992106928782,15.9346038693534
0.00119191400096087,15.9400649047734
0.00135308437835324,15.9451114287247
0.00153600849058967,15.9497777089181
0.00174360746560064,15.9540955727816
0.00197919634659932,15.958094606165
0.00224654546463213,15.9618023330829
0.0025499527221177,15.965244393947
0.00289433696435836,15.9684447343743
0.00328535675320786,15.9714258011521
0.00372956505041877,15.9742087470865
0.00423462054002705,15.9768136695529
0.00480958267043765,15.9792599012471
0.00546534110188481,15.9815663835048
0.00620121732160133,15.9837147610357
0.00701437043508909,15.9856994861663
0.00791613139850871,15.987554891519
0.00892366271694697,15.9893158146533
0.0100647276918104,15.9910215543172
0.0113916428874342,15.9927279765346
0.0130982067210878,15.9946174950989
0.015011726696391,15.9964647347196
0.0166379799489647,15.9978923154706
0.0183525831212166,15.9993198962216
0.0198850331430944,16.0005771939201
0.0212522873356738,16.0017285396047
0.0224778613544929,16.0028338089426
0.0235585442463439,16.0039337795773
0.0244737072985443,16.0050678019384
0.0251825457297012,16.0062901686576
0.0256003880207899,16.0077110539743
0.0254170561615491,16.0097939323851
0.0247437076867677,16.0113166672867
0.0237135611076444,16.0128394021883
0.0225328202675196,16.0142418859453
0.0212066767583942,16.0156416977526
0.0197438006217292,16.0170908488813
0.0181532387125912,16.0186267945728
0.0171485070456447,16.019597552541
0.0161685407475816,16.0205683105092
0.0144523148442378,16.0223816779256
0.0122374549074366,16.0249954093403
0.0103951865355385,16.0274880786593
0.0088674940975687,16.0298597819005
0.00758744677190924,16.0321374528846
0.00649921486371399,16.0343546089202
0.00555479174997384,16.0365585673585
0.00470696142190901,16.038833113982
0.00388482870261366,16.0414010286151
0.00328600867820174,16.0435754619259
0.00276448836965962,16.0457498952368
0.00238891737776197,16.0475260328334
0.00208590069181953,16.0491213103423
0.00181792391541386,16.0506806711461
0.00156612374867181,16.0523010300016
0.00131419732144687,16.0541072531983
0.00103378553175874,16.0563933202993
0.000651119072038811,16.0601585526353
0.000365079103112481,16.0637032217949
0.000157195246124295,16.0669005040663
-2.42685608687186e-05,16.0703783756471
-0.00020058727018292,16.0748492864154
-0.000345866775170379,16.0805182448172
-0.0004035308013982,16.0854247744681
-0.000394983533099487,16.0898841082792
-0.00032511537421908,16.0938982999568
-0.000195075897291633,16.0975187426396
-3.92033106603042e-06,16.1007863891681
0.000251514137655042,16.103755504802
0.00057632359686606,16.106477696271
0.00097833583435711,16.1090050290194
0.00147039313685418,16.1113948231863
0.00207553923915639,16.1137177886873
0.0028346132775691,16.1160621334035
0.00383524018582663,16.1185794399487
0.00522096447015666,16.1214403286931
0.00694802892931298,16.1244044669624
0.00831017361862051,16.1264212140249
0.00985587218904923,16.1284379610873
0.0114197910199759,16.1302246821927
0.0130830881134074,16.131884650086
0.0148403353926928,16.1334104195683
0.0167829364621791,16.1348727359667
0.0189237431000352,16.136264226978
0.0213174189829173,16.1376041849959
0.0239941008833858,16.1388921364052
0.026995475327365,16.1401323653248
0.0303661534990237,16.1413280911712
0.0341478638732522,16.1424799530797
0.0383992004511548,16.1435922875089
0.0431823000053046,16.1446678907257
0.048569260344997,16.1457097092897
0.054642307013076,16.1467204779438
0.0615052360703335,16.147704115868
0.0692797304037328,16.1486642518897
0.0781133005875275,16.1496047670064
0.088187445744052,16.1505299260817
0.0997290059308276,16.1514445271
0.113025482598309,16.1523540406851
0.12845422793047,16.1532652322959
0.146520766218927,16.1541865206236
0.167933518298941,16.1551292200347
0.192979185531735,16.1560826722056
0.222007125810276,16.1570428089833
0.255799571462653,16.1580207466596
0.295454631473571,16.1590341283827
0.342856028309472,16.1601191813421
0.378445742766752,16.1608783499711
0.415064313241941,16.1616375186002
0.447612410603799,16.162317882091
0.476146121567988,16.1629447004773
0.501049178393865,16.1635477900181
0.522205088322935,16.1641505019345
0.539026578328521,16.164777195387
0.550204860292134,16.1654632101912
0.552738612109622,16.1662384310744
0.543836688244184,16.1670327423351
0.5222596042544,16.1678656391407
0.486178734538707,16.1687530166404
0.433334528045778,16.169705464041
0.368966260765269,16.1706320067027
0.324510944955494,16.1711935014862
0.276868113720533,16.1717549962697
0.234595405482002,16.1722345995685
0.198039800003276,16.1726458543668
0.165734204714145,16.173014381628
0.13670589021032,16.1733562557021
0.110337293761998,16.173682041503
0.0861783647568561,16.1740000222527
0.0638296211203105,16.1743184326811
0.0428069448384106,16.1746486635774
0.0221130123740635,16.1750164005439
0.00709564151453126,16.175322176303
-0.00156295823331377,16.175519387694
-0.00944879577902256,16.1757165990851
-0.0159743610770853,16.1758958238175
-0.0220323706276764,16.1760785983038
-0.0281201520918677,16.176282467099
-0.0339897830239409,16.1765039543405
-0.0394840726744887,16.1767409884401
-0.0445157445833471,16.1769928548452
-0.0490394611775435,16.177259744161
-0.053035227820835,16.1775425012022
-0.0564986081774968,16.1778425059164
-0.0595036010125708,16.1781714013491
-0.0618645853881916,16.1785097109826
-0.0637175984601241,16.1788721431882
-0.0650786384897471,16.1792624845004
-0.0659618118345014,16.17968523878
-0.0663789528370424,16.1801460353538
-0.0663378918633455,16.1806520233571
-0.0658402300817883,16.1812124856818
-0.0648754002769499,16.1818413480124
-0.0634167467930192,16.1825568386167
-0.061409659894568,16.1833867554143
-0.0587392922596413,16.1843797385865
-0.0551044077958543,16.1856492057145
-0.0509693730061127,16.1870536563562
-0.0469622997253111,16.188413214089
-0.0431341174364338,16.1897326249853
-0.0395101480858986,16.1910140667679
-0.0361036591870936,16.192258285334
-0.0329208682250509,16.1934653062144
-0.029963170931617,16.1946348129529
-0.0272283367884241,16.1957663465379
-0.0247112940958531,16.1968594083453
-0.0224047399242766,16.1979135087853
-0.0202996648390179,16.1989281836052
-0.0183858231575342,16.1999029896513
-0.0166521565752805,16.200837486609
-0.015055450478434,16.2017498854878
-0.0135165532156167,16.2026855224799
-0.0120402855548582,16.2036457457357
-0.0106306168298314,16.2046325813744
-0.00929133452655746,16.2056484001139
-0.00802598907142496,16.2066960049739
-0.00683784177739248,16.2077787420564
-0.0057298102685196,16.2089006489531
-0.00470441129910915,16.2100666579803
-0.00376370041847505,16.2112828818336
-0.00290920723103304,16.2125570276399
-0.00214186372969835,16.2138990197352
-0.00146192082671787,16.2153219798221
-0.000868843408354962,16.2168438600688
-0.000368228440708431,16.2184643286464
2.83115216173711e-05,16.2201273800456
0.000337837358111744,16.2218513332726
0.000575278520123696,16.2236562032853
0.000754624471406871,16.2255684654618
0.000889326879470556,16.2276250994728
0.000992899126071065,16.2298818676124
0.0010800140562777,16.2324327043629
0.00116936217546711,16.2354681451862
0.00128447665721189,16.2392017223912
0.00142448324839146,16.2431005129367
0.00161126536181644,16.24756666583
0.00183812342312977,16.25244313229
0.00208117006851735,16.2573869284985
0.00230656652583462,16.2618750525666
0.00251012989182018,16.2659061514502
0.00270461962373199,16.2697513288415
0.00289639806728221,16.2735299342088
0.0030896434766513,16.2773094349595
0.00328771818570741,16.2811367052213
0.00349365875817568,16.285048976352
0.00371040783128494,16.2890785804557
0.00394099513827253,16.2932560780449
0.00418867581303501,16.2976120185171
0.00445708850470318,16.3021782839463
0.00475049790265914,16.306989454945
0.00507419293855369,16.3120841232423
0.00543393278844022,16.3174880286478
0.00580087649216081,16.3227147999461
0.00618685711748168,16.3279057859435
0.00659073925081524,16.3330008570351
0.0070174492310136,16.338018527639
0.00747114145508158,16.3429603218191
0.00795702306260221,16.3478340878284
0.00848060582308419,16.3526442052652
0.0090478967642899,16.3573931416658
0.00966543486722805,16.3620812026629
0.0103404162265636,16.3667071735401
0.0110933112098008,16.3713421114944
0.0119413881185087,16.3760038390462
0.0129041188222809,16.3807006578455
0.0140090446358009,16.3854575747467
0.0152989404012555,16.3903320506688
0.0168552493787835,16.3954692314569
0.0189077953061732,16.4013541316439
0.0207399038297489,16.406038346541
0.0226985164599661,16.4107225614382
0.0243047562316752,16.4145143565212
0.0256325660413602,16.417791537329
0.0267466021260592,16.4208437345282
0.027647388533574,16.4238123257768
0.0282773454490686,16.4266309615231
0.0286396215264332,16.4294182374157
0.0287119684804733,16.4323166572287
0.0284113601100373,16.4355907294467
0.0274307439377311,16.4399348700454
0.0265429546399357,16.442619700373
0.0254872833213232,16.4453045307005
0.0244163865476391,16.4477460934038
0.0233441161448935,16.4500350523272
0.0222706224018321,16.4522393617281
0.0211985939333154,16.4543966808755
0.0201316631940957,16.4565305318098
0.0190735291891754,16.4586573507086
0.018027696440178,16.4607895839373
0.0169974457157176,16.4629372534036
0.0159857269746547,16.4651088440143
0.0149952024999882,16.4673118597595
0.0140282731613203,16.4695531892769
0.0130870888650867,16.471839373769
0.012173558264785,16.4741768140948
0.0112893626174918,16.4765719290082
0.0104359588242079,16.4790313200856
0.00961459520790456,16.4815618937543
0.00882631424024968,16.4841710202174
0.00805060435681215,16.486946215656
0.00728962505887525,16.4899118325359
0.00654711966820868,16.4930909473033
0.0058270416195417,16.4965102720643
0.00513354478795343,16.5002007490892
0.00447093096036736,16.5041983740783
0.00384355752365963,16.5085453234149
0.00325568216644771,16.5132917383728
0.00271122443470355,16.5184989313735
0.00221346615154927,16.5242452616709
0.00176484972534603,16.5306352547621
0.00137660268432496,16.5376161926243
0.00105157181912108,16.5451509710035
0.000789876424882369,16.5533560961368
0.000583200024672023,16.5627349323912
0.000451079681763043,16.5712099588397
0.000338299239789412,16.5812073916376
0.000259770301162002,16.5912073916376
0.000205702186067928,16.6012073916376
0.000169062919775414,16.6112073916376
0.00014468689005969,16.6212073916376
0.000128863588857925,16.6312073916376
0.000119012667216905,16.6412073916376
0.000113378940916648,16.6512073916376
0.000110778067948056,16.6612073916376
0.000110411152914229,16.6712073916376
0.000111740804677814,16.6812073916376
0.000114410873370714,16.6912073916376
0.000118193895453596,16.7012073916376
0.00012295578696878,16.7112073916376
0.000128631851699285,16.7212073916376
0.000135210779518012,16.7312073916376
0.000142724594507636,16.7412073916376
0.000151243186476109,16.7512073916376
0.000160872524854407,16.7612073916376
0.000171756056703741,16.7712073916376
0.000184079170009801,16.7812073916376
0.000198076984552586,16.7912073916376
0.000214046159447669,16.8012073916376
0.000232361950989889,16.8112073916376
0.000253502527679351,16.8212073916376
0.000278083728871341,16.8312073916376
0.000306909341217408,16.8412073916376
0.000341045102372859,16.8512073916376
0.000381930028439247,16.8612073916376
0.00043154824279167,16.8712073916376
0.000489797648254236,16.8807724348567
0.00055606932124556,16.8896098920755
0.000631316588924792,16.8977637623766
0.000716733338620954,16.9052872297767
0.000813694429130227,16.9122300730943
0.0009237626144162,16.91863847753
0.00104870884177622,16.9245553066265
0.00119053860745534,16.9300203545322
0.00135152386194794,16.9350705602803
0.00153423797949432,16.9397402154891
0.00174159874447553,16.9440611695682
0.00197691737098192,16.9480630285547
0.00224395976497465,16.9517733350189
0.00254701865078127,16.9552177462146
0.00289100677278891,16.9584202227945
0.00328157536012315,16.9614032247661
0.00372526843316772,16.9641879161517
0.00422973351670562,16.9667944031544
0.00480401572374867,16.9692420243714
0.00545898567800845,16.9715497231083
0.00619420014637811,16.9736997758931
0.00700660981942167,16.9756858642441
0.00790750263810802,16.9775423194859
0.00891397576485356,16.9793039682974
0.0100536578275912,16.9810100351211
0.0113785201664309,16.9827161341832
0.0130801462851563,16.9846027877472
0.0150015576225015,16.9864594128229
0.0166281270301963,16.9878879145512
0.0183434420788083,16.9893164162794
0.0198768881426299,16.9905745383821
0.0212449116060544,16.9917262871861
0.0224712140951508,16.9928317052319
0.0235526942086787,16.9939316204013
0.0244688136675669,16.9950653525129
0.0251789102003673,16.996287048382
0.0255987129938952,16.9977063169962
0.02542159286067,16.9997809096648
0.0247516508793388,17.0013056338094
0.0237230429473565,17.0028303579539
0.0225436616321224,17.0042332497602
0.0212188294666245,17.0056328157956
0.0197571775191119,17.0070813528966
0.0181677798739377,17.0086163431462
0.0171633289336528,17.0095867363092
0.0161831916109676,17.0105571294723
0.0146062854113212,17.01221595594
0.0123675982455701,17.0148351907262
0.0105029254735174,17.017336054777
0.00895739473038886,17.0197144769494
0.00766336213212807,17.0219970524395
0.00656436592914748,17.0242167715253
0.00561205466119699,17.0264197044115
0.00475950453554105,17.0286860272174
0.00393918640123389,17.0312214805286
0.00331777003227541,17.0334560116268
0.00277862541350271,17.0356905427249
0.00239896634592575,17.0374795558879
0.00209449465759881,17.0390775400399
0.00182576314837016,17.0406365926906
0.00157363803425815,17.0422540167428
0.00132187648085809,17.0440529083264
0.00104285763410048,17.0463179079706
0.000658921765489457,17.0500762127198
0.000369979309454808,17.0536395137881
0.000160796029471644,17.0568436205923
-2.10838863743156e-05,17.0603147129858
-0.000197533053492973,17.0647634650341
-0.000344344793141464,17.0704452958868
-0.000403001971453361,17.0753579563074
-0.000395338829053486,17.0798237369748
-0.000326307902371575,17.0838436987597
-0.00019710401962989,17.0874693248002
-6.82613231784744e-06,17.0907412340369
0.000247703676500207,17.0937143161516
0.000571507116162659,17.0964395589789
0.000972310716387927,17.0989688339025
0.00146282382211261,17.1013594351149
0.00206564509055857,17.1036811449318
0.00282165389849965,17.106023505645
0.00381742510684319,17.1085363985811
0.0051983457430305,17.1113956154812
0.00692039117840612,17.1143589526611
0.0082819839133983,17.1163800096516
0.00982715135254855,17.1184010666422
0.0113914896567811,17.1201926716888
0.0130533904596411,17.1218553043599
0.014808512454438,17.1233829983264
0.0167483868343446,17.1248469240477
0.0188850847540081,17.126239280941
0.0212743335138457,17.1275802215803
0.0239455290159035,17.1288688892589
0.0269410316925389,17.1301099426443
0.0303050807200009,17.1313064471461
0.0340791826203119,17.1324589983462
0.0383220294426332,17.1335720047948
0.0430954937865626,17.1346482259024
0.0484714772733092,17.135690605043
0.054531850264108,17.1367018553937
0.0613802997795486,17.1376859288914
0.0691380405549246,17.1386464364384
0.07795207437771,17.1395872531897
0.0880032338014269,17.1405126364817
0.0995174432063532,17.1414273721224
0.112780951967043,17.1423369148789
0.128169331523284,17.1432480080719
0.146185390569966,17.1441690328018
0.167533114490515,17.1451112377221
0.19251583522471,17.1460646456146
0.221469138392437,17.1470245782696
0.255171375700176,17.1480020792454
0.294712894287509,17.1490146186929
0.34195466309012,17.1500978718193
0.377623484363087,17.1508595371011
0.414353536024339,17.151621202383
0.446994532382225,17.1523031060361
0.475604685082687,17.1529306805779
0.500581524013192,17.1535340058676
0.521818071396101,17.154136493797
0.53873777302875,17.1547624041368
0.550052593499198,17.1554466879232
0.552799036866996,17.1562217412409
0.544127974225632,17.157015487553
0.522811328803557,17.1578474716434
0.487031180637166,17.1587336760051
0.4345329160896,17.1596848014213
0.370258704368637,17.1606133789466
0.325677543299369,17.1611777598494
0.277850311539103,17.1617421407522
0.235424844615792,17.1622237029642
0.198763487637592,17.1626361143822
0.166379711658859,17.1630053504761
0.13728934482146,17.1633476647686
0.110869535182483,17.163673699889
0.0866680142331054,17.1639917634805
0.0642853517515956,17.1643100665483
0.0432415333531459,17.1646398739613
0.022562095785704,17.1650062545745
0.00728824545974226,17.16531640179
-0.00144856771283108,17.1655150754611
-0.00940067079167323,17.1657137491322
-0.0159352566487214,17.165893111184
-0.0219920242090418,17.1660757305854
-0.0280805148505746,17.166279470889
-0.0339522199736012,17.16650084934
-0.0394493567977462,17.16673778327
-0.0444842918545094,17.1669895508476
-0.0490114741150112,17.1672563376975
-0.0530107785910337,17.1675389848002
-0.0564776885828071,17.1678388687498
-0.0594812828778315,17.168166991946
-0.0618466667210118,17.1685050966335
-0.0637040108078378,17.1688673032029
-0.0650692542721231,17.1692573840341
-0.0659565156617349,17.1696798344263
-0.0663776560006374,17.1701402724976
-0.0663405489165199,17.170645832004
-0.0658468614607105,17.1712057737773
-0.0648861605498713,17.1718339752255
-0.0634319602869002,17.1725486149929
-0.0614299825040353,17.1733773769281
-0.0587661797424807,17.1743686235756
-0.0551424020396917,17.1756346993154
-0.0510065016677572,17.1770396173739
-0.0469979803428544,17.1783995555297
-0.0431680383851809,17.1797193169859
-0.0395421456290225,17.1810010975717
-0.0361336496066876,17.1822456522589
-0.0329488192309651,17.1834530110162
-0.0299890875793836,17.1846228593805
-0.0272522530658785,17.1857547390535
-0.0247332668098151,17.1868481514835
-0.0224248436400534,17.1879026068835
-0.0203179873940142,17.1889176407625
-0.0184024616187188,17.1898928098378
-0.0166672136077271,17.1908276738827
-0.0150699982438825,17.1917398649126
-0.0135305435631233,17.1926752844416
-0.0120536812886459,17.1936352729999
-0.0106433821740752,17.1946218538827
-0.00930343564905337,17.1956373942601
-0.00803739455002839,17.1966846927227
-0.00684852309001022,17.1977670897746
-0.00573974230554112,17.1988886158289
-0.0047135729013305,17.2000541938337
-0.00377207494834134,17.2012699239963
-0.00291678319308887,17.2025434963615
-0.00214863547153845,17.2038848111376
-0.0014678893816614,17.205306954546
-0.000874017603862282,17.2068278237794
-0.000372375474888896,17.2084479818952
2.50246302256128e-05,17.2101105596535
0.00033527030668355,17.2118338801194
0.00057330097924936,17.2136379114564
0.000753113067244625,17.2155490566855
0.000888160831603276,17.2176041725411
0.000991953385996394,17.2198587908497
0.00107914493516913,17.222406341765
0.00116836260100687,17.2254359058305
0.00128337176052115,17.2291696875963
0.00142306852385704,17.2330650654633
0.00160938084923379,17.2375249203133
0.00183610869590923,17.2424017861009
0.00207901762103565,17.2473441377863
0.00230469937902264,17.2518383804317
0.0025083809345519,17.2558718889719
0.00270291595377049,17.2597180297832
0.00289469777730313,17.2634968755995
0.00308791537605611,17.2672761544285
0.00328593533363719,17.2711028549136
0.00349179582526131,17.2750142663414
0.00370843943017978,17.2790427475452
0.00393889446974514,17.2832188652701
0.00418641349293031,17.2875731631545
0.00445463095291933,17.2921375064681
0.00474780470223883,17.296946447085
0.0050712125445227,17.3020385383377
0.0054308920722806,17.3074438625722
0.00579767950243632,17.3126708233277
0.00618352125618211,17.3178626185888
0.00658722673499152,17.3229583577113
0.00701372802371735,17.3279766967757
0.00746717004628354,17.3329190919305
0.00795275683877984,17.3377934130084
0.00847599620231313,17.3426040554124
0.00904289102841511,17.3473535063038
0.00965997524089797,17.3520420867234
0.0103344387306251,17.3566685913895
0.0110865853379996,17.3613032173347
0.0119337918240985,17.3659647251743
0.0128954551622065,17.3706611681619
0.0139990351510613,17.3754174070528
0.0152871173528178,17.3802904798319
0.0168406063076596,17.3854243025537
0.0188866563455833,17.3912977653692
0.0207237495538584,17.3959989535043
0.0226888615338821,17.4007001416394
0.0242974219873631,17.404497094774
0.0256264358592304,17.4077760476782
0.0267415041253746,17.4108289321657
0.027643662103346,17.4137985997946
0.028274918878719,17.4166176958888
0.028638524466721,17.4194048150834
0.0287124053480252,17.4223022367759
0.0284140580691679,17.4255732391139
0.0274355270782958,17.4299188760395
0.0265481935637067,17.4326055961017
0.025492519942978,17.4352923161639
0.024421604989488,17.4377349227694
0.0233493416455252,17.4400244304801
0.0222758486832769,17.4422290453971
0.0212038045547444,17.4443865290894
0.0201368399340894,17.4465204506583
0.0190786544137467,17.4486472714575
0.0180327535823586,17.4507794527803
0.0170024196063347,17.4529270257985
0.0159906039571752,17.4550984813994
0.0149999702225087,17.4573013273729
0.0140329205497062,17.4595424545837
0.0130916059977605,17.4618284055052
0.0121779363904122,17.4641655812194
0.0112935940901362,17.4665603999838
0.010440037017085,17.4690194623012
0.00961851455147092,17.4715496726217
0.00883007008887265,17.474158398737
0.00805429961975788,17.4769327245085
0.00729324077499184,17.4798973737796
0.00655063736649656,17.4830754016467
0.00583044180448388,17.4864935014614
0.00513680706516812,17.4901825935182
0.00447403441627964,17.4941786468106
0.00384648128248203,17.4985238045245
0.00325840636445788,17.5032681632763
0.0027137314607748,17.5084729710099
0.0022157421564815,17.5142164853408
0.00176688499575321,17.5206030795203
0.0013783164046492,17.5275815799725
0.00105299704992182,17.5351134393175
0.000790976280362824,17.5433149978736
0.000585585269123695,17.5526096635775
0.000452589447368267,17.5611007487512
0.000339363000071891,17.5710955497425
0.000260500605085075,17.5810955497425
0.000206200225160315,17.5910955497425
0.000169398627557975,17.6010955497425
0.000144909035678651,17.6110955497425
0.0001290060935241,17.6210955497425
0.000119098952760381,17.6310955497425
0.000113425064457921,17.6410955497425
0.000110794971834118,17.6510955497425
0.000110406239934567,17.6610955497425
0.000111719017260057,17.6710955497425
0.00011437542505361,17.6810955497425
0.000118146765669412,17.6910955497425
0.00012289805503252,17.7010955497425
0.000128563919472299,17.7110955497425
0.000135132514689626,17.7210955497425
0.000142635415233085,17.7310955497425
0.000151142100625652,17.7410955497425
0.000160758131635169,17.7510955497425
0.000171626513919304,17.7610955497425
0.000183932126085585,17.7710955497425
0.000197909470105447,17.7810955497425
0.000213854427923562,17.7910955497425
0.000232141250753595,17.8010955497425
0.000253246777392102,17.8110955497425
0.000277785051504742,17.8210955497425
0.00030655738519849,17.8310955497425
0.000340626033067337,17.8410955497425
0.000381424994184316,17.8510955497425
0.000430930976927397,17.8610955497425
0.000489093505049894,17.8706689488316
0.000555269267724005,17.8795144410924
0.00063040812149074,17.8876757309614
0.000715701863123856,17.8952060349552
0.000812523290638329,17.9021551737749
0.000922432924165735,17.9085693715482
0.00104719920731054,17.9144915277185
0.00118882480320672,17.9199614697235
0.0013495784409086,17.9250161675806
0.00153202984942798,17.9296899415685
0.00173909263030855,17.9340146674683
0.00197407320601744,17.9380199755395
0.00224073194124935,17.9417334306184
0.0025433550753238,17.9451807101593
0.00288684770694395,17.9483857928199
0.00327685187166991,17.9513711543908
0.00371990037490732,17.9541579722084
0.00422362673662304,17.956766362826
0.00479705806982358,17.9592156715292
0.00545104108358825,17.9615248433661
0.00618542682489694,17.9636769485518
0.00699690477420647,17.9656646995999
0.00789670845568004,17.9675224247256
0.00890185228800919,17.9692849352138
0.0100397944892077,17.9709913596035
0.0113620704098174,17.9726969913392
0.013057487885612,17.9745799724046
0.0149892296912291,17.9764487322031
0.0166162091709342,17.9778783210644
0.0183324309195132,17.9793079099256
0.0198671820388175,17.9805670397096
0.0212362218367827,17.9817192691165
0.0224634854039905,17.9828248485529
0.0235460098892653,17.9839246690723
0.0244633705395443,17.9850580120469
0.0251750829584294,17.9862788417754
0.0255973745243307,17.9876960629467
0.0254279673923162,17.9897604019162
0.0247622604657273,17.9912876326316
0.0237355231601007,17.992814863347
0.022557797630361,17.9942182560896
0.0212345594427427,17.995617507694
0.0197743866221111,17.9970652777007
0.0181863854735253,17.9985990839421
0.0171822350409424,17.9995690436158
0.0162018386810092,18.0005390032896
0.0147478956989974,18.0020621523984
0.0124868462117718,18.0046870050854
0.0106013194378098,18.0071957669441
0.00903923462914673,18.0095806827541
0.00773227062260996,18.0118680401129
0.00662336564039642,18.0140903501007
0.00566383468199923,18.0162925569053
0.00480699216414097,18.0185516349692
0.00398813949577825,18.0210588959711
0.00321691373708301,18.0238508660315
0.00280220966681883,18.0255862547309
0.00243084917008028,18.0273216434304
0.00212211385399309,18.0289261028368
0.00185089217681373,18.0304844824605
0.00159785744201869,18.0320916327313
0.0013469567476939,18.0338646254339
0.00107301458462144,18.0360573072797
0.00068483421515701,18.0397928083595
0.000384215566288941,18.0434436477943
0.000169644400906288,18.0466933920665
-1.38713933725805e-05,18.050159675784
-0.000190839857175161,18.0545629067073
-0.000341235507406093,18.0602748538205
-0.000402244175154682,18.065202569228
-0.000396692410122366,18.0696840385517
-0.000329675277220464,18.0737180728391
-0.000202491705426123,18.0773563253405
-1.43084550284924e-05,18.0806391168028
0.000238002516627212,18.0836214947361
0.000559371056194288,18.086354199309
0.000957382690318881,18.0888889545064
0.00144451461909251,18.0912828811481
0.00204268203355743,18.0936044013484
0.00279508614991947,18.0959517356757
0.00377965712526361,18.0984523669859
0.00515051299900071,18.1013079460238
0.00686197874866971,18.1042692784059
0.00822074911870444,18.1062969174163
0.00976272025335135,18.1083245564268
0.0113306069005111,18.1101298028222
0.0129865402161081,18.1117952346724
0.0147381354162888,18.113328151309
0.0166733982787835,18.1147965535543
0.0188013581684018,18.1161908352189
0.0211813544900604,18.1175340469054
0.0238405802390668,18.1188241823928
0.0268234777712011,18.1200670449374
0.0301732900477877,18.1212652599708
0.0339310597581684,18.1224193305972
0.0381556313497445,18.1235338057147
0.0429083468096933,18.1246113775293
0.0482606720254921,18.1256549793171
0.0542938800814996,18.1266673049036
0.0611111654756187,18.1276523331647
0.0688328511016088,18.1286136569362
0.0776048529363555,18.1295551395978
0.0876065778686039,18.1304810226138
0.0990618561864898,18.1313960555731
0.112254505508803,18.1323056793255
0.127556199600681,18.1332165814658
0.145463974588373,18.134137063739
0.16667242495749,18.1350782367973
0.191519937730288,18.1360315710047
0.220313016300346,18.1369910906941
0.253821803743561,18.1379676870931
0.293120372906988,18.1389784699106
0.34002252112436,18.1400579720682
0.375860852431817,18.1408250697211
0.412830079508952,18.141592167374
0.445669791984461,18.1422774316577
0.474442299205872,18.1429066680513
0.499575099883861,18.1435105387278
0.520981542545808,18.1441125958686
0.538107536721487,18.1447368999639
0.549707892347306,18.1454176067535
0.552902243290284,18.146192344728
0.544716906868751,18.1469849313984
0.523947858638337,18.1478150139731
0.488800030126893,18.1486987564721
0.437029923011484,18.1496470951578
0.372978130550036,18.1505797189702
0.328131689264677,18.1511502737658
0.279913266956112,18.1517208285613
0.237164287933526,18.1522065690707
0.200279894583373,18.1526214399237
0.167731791006128,18.1529921810605
0.138511247287137,18.1533354313085
0.11198409004352,18.1536620003912
0.0876932722995283,18.1539802499421
0.0652393124290179,18.1542983453718
0.0441503278330054,18.1546273001978
0.0234966889881502,18.1549909717871
0.00766498970460495,18.1553106730412
-0.00122385089814118,18.1555121747541
-0.00930460461777381,18.1557136764671
-0.015857051964377,18.1558933113624
-0.0219112550436712,18.1560756223721
-0.0280010883525788,18.1562791078302
-0.033876868657563,18.1565002710402
-0.0393796294625829,18.1567370071568
-0.0444210232579488,18.1569885797778
-0.0489550725576237,18.1572551645891
-0.0529613918723289,18.1575375949288
-0.0564353038578201,18.1578372407178
-0.0594364685346788,18.1581638842057
-0.0618105068826357,18.1585015882745
-0.0636763694755386,18.1588633531855
-0.0650498818269843,18.1592529239907
-0.065945186038261,18.1596747791883
-0.0663741951906348,18.1601345148988
-0.0663448675698541,18.1606392347066
-0.0658589993015941,18.1611981561823
-0.0649064198900752,18.1618250621227
-0.0634609761136621,18.1625380341296
-0.0614690376677128,18.1633645332845
-0.0588181138568209,18.1643523820317
-0.0552160074633226,18.1656118552879
-0.0510784466955555,18.1670176921732
-0.047067125073288,18.1683783733545
-0.0432337689604909,18.1696988184368
-0.039604139782579,18.1709812590829
-0.0361917423644776,18.1722264682284
-0.0330029464116329,18.1734344846443
-0.0300392580447328,18.1746049978403
-0.0272985322056653,18.1757375509586
-0.0247757645758563,18.1768316456185
-0.0224637046678989,18.1778867916652
-0.0203533822529783,18.178902524151
-0.0184345789329597,18.1798783995437
-0.0166962529772278,18.1808139777844
-0.0150980486437336,18.1817257644296
-0.0135575112169659,18.1826607609079
-0.0120794937843217,18.1836202929166
-0.0106679698555795,18.1846063782678
-0.00932673263621448,18.185621377243
-0.00805933964675138,18.1866680798341
-0.00686906073856444,18.1877498156794
-0.00575882358462995,18.1888706012604
-0.00473115657391747,18.1900353413488
-0.00378812857460594,18.1912501119307
-0.00293128433917558,18.1925225699305
-0.00216157307463174,18.1938625687999
-0.00147926539018576,18.1952831260428
-0.000883849132600837,18.1968020324657
-0.000380206792193873,18.1984215898636
1.88678634575e-05,18.2000832496753
0.000330514742353712,18.2018053435355
0.000569692727128691,18.2036077490349
0.000750411845752927,18.2055167293139
0.000886131509593117,18.2075689037011
0.000990352719864545,18.2098193596716
0.00107769390981013,18.2123605575617
0.00116666089733686,18.2153787943655
0.0012814667520322,18.2191130504304
0.00142056195126907,18.2230018572671
0.00160596484155194,18.2274496079182
0.00183243672549392,18.2323272736619
0.00207508066420271,18.2372669314871
0.00230130873461006,18.2417729321662
0.00250521613315163,18.2458110504716
0.00269983839200658,18.2496590339329
0.00289162821026301,18.2534383449401
0.00308479501026626,18.2572172100625
0.00328271351936404,18.2610428365476
0.00348842507402992,18.2649526242146
0.00370487227949385,18.2689789830592
0.0039350809371121,18.2731524918406
0.00418229889303615,18.2775036834844
0.0044501529024078,18.2820643916373
0.004742888204084,18.2868691139525
0.00506576198524173,18.291956331106
0.00542533385470318,18.2973642730202
0.00579183487797917,18.3025915478228
0.00617742451444503,18.307784828691
0.00658080839878579,18.312881792716
0.00700692941406358,18.317901360388
0.00745991477974106,18.3228448588912
0.00794496285272484,18.3277201974139
0.0084675742358279,18.3325318006016
0.00903374434927389,18.3372821920961
0.00964999795682069,18.3419717216236
0.0103235136912543,18.3465992016382
0.011074291512943,18.3512332557216
0.0119199063651853,18.3558943623592
0.0128796186121816,18.3605901205502
0.0139807400363093,18.365345126802
0.0152655131052241,18.3702156528363
0.016813869942423,18.3753433950805
0.0188481968446618,18.3811963051573
0.0206945329760254,18.3859289237557
0.022671686819136,18.3906615423541
0.0242844401657559,18.394467839527
0.0256155912118923,18.3977499545118
0.0267324841486877,18.4008040636862
0.027637066885788,18.4037756422518
0.0282706202633656,18.4065955589236
0.0286365732397433,18.4093824090785
0.028713159664399,18.4122780808972
0.028418789839457,18.4155437055581
0.0274439366943475,18.4198920041009
0.0265574072796016,18.4225820680281
0.0255017273721277,18.4252721319554
0.0244307793161865,18.4277165828736
0.0233585282334367,18.4300070589683
0.022285036778851,18.4322122127709
0.0212129653311283,18.4343699867796
0.0201459413838634,18.43650403319
0.0190876655488918,18.4386308577669
0.0180416452352114,18.4407629481202
0.017011165074754,18.4429103517371
0.0159991792570954,18.4450815700467
0.0150083536644283,18.4472841175203
0.014041092691791,18.4495248889307
0.0130995494214777,18.4518104289832
0.0121856357442426,18.4541471391118
0.0113010359500542,18.4565414367206
0.0104472097602567,18.4589999203733
0.00962540841054673,18.4615294910171
0.00883667692127526,18.4641375121594
0.00806080005327171,18.4669103095589
0.00729960149402289,18.4698732583341
0.00655682590862475,18.4730493761032
0.00583642390857469,18.476465323251
0.00514254688245068,18.4801519814863
0.00447949518211482,18.4841452728844
0.00385162629022778,18.4884872823444
0.00326320067293394,18.4932280281313
0.00271814407301346,18.4984286451283
0.00221974867619479,18.5041672127838
0.00177046830461189,18.5105478373287
0.00138133406736289,18.5175220577956
0.00105550724435277,18.5250487916313
0.000792911869986878,18.5332440881608
0.000589712770131704,18.5423950842849
0.00045519788525058,18.5509139951804
0.000341222433823352,18.5609021744806
0.000261777195912309,18.5709021744806
0.000207070292456613,18.5809021744806
0.000169984413863969,18.5909021744806
0.000145295996508344,18.6009021744806
0.000129253716446427,18.6109021744806
0.000119248299470956,18.6209021744806
0.000113504267896881,18.6309021744806
0.000110823198247454,18.6409021744806
0.000110396459998679,18.6509021744806
0.00011167989906393,18.6609021744806
0.000114312614108072,18.6709021744806
0.000118063750083956,18.6809021744806
0.000122796749955138,18.6909021744806
0.00012844505734896,18.7009021744806
0.000134995896965935,18.7109021744806
0.000142480061643018,18.7209021744806
0.000150966319277646,18.7309021744806
0.00016055952358565,18.7409021744806
0.000171401918103372,18.7509021744806
0.000183677503282052,18.7609021744806
0.000197619717077599,18.7709021744806
0.000213523103807479,18.7809021744806
0.000231760185473271,18.7909021744806
0.00025280551374529,18.8009021744806
0.000277270044238965,18.8109021744806
0.000305950834289047,18.8209021744806
0.000339904150685333,18.8309021744806
0.000380555369329888,18.8409021744806
0.000429868456921311,18.8509021744806
0.00048788189985943,18.8604900676587
0.000553893102873018,18.8693494953927
0.00062884594522763,18.8775236514251
0.000713928626698898,18.8850658091044
0.000810510404945018,18.8920258621669
0.000920147965114276,18.8984501025837
0.00104460545278156,18.9043814923365
0.00118588066800664,18.9098599168246
0.00134623680976445,18.9149223999993
0.00152823735148251,18.9196033120188
0.00173478871637913,18.9239345745568
0.00196918910757753,18.92794586002
0.00223518938419498,18.9316647719937
0.00253706466734084,18.9351170230997
0.0028797069502887,18.9383266233627
0.00326874251534899,18.9413160761005
0.00371068496274348,18.9441065819259
0.00421314384133083,18.9467182755792
0.00478511547479329,18.949170514261
0.00543740570161378,18.9514822464918
0.00617037012626751,18.9536379106118
0.00698025113822285,18.9556285495389
0.00787818967766379,18.9574884873331
0.00888105995985327,18.9592525111882
0.0100160322618857,18.9609595896675
0.0113339085676484,18.9626644791831
0.0130188377317034,18.9645413223234
0.0149686978684959,18.9664313375064
0.0165962328768115,18.9678626583462
0.0183138227514925,18.9692939791859
0.019850732770328,18.9705548093639
0.0212214538246138,18.9717078590017
0.0224503049513128,18.9728137229652
0.0235345554613759,18.9739133997568
0.0244539700790666,18.975046108242
0.0251683598626104,18.9762655113786
0.0255947748470126,18.9776793539456
0.025437971324632,18.9797270120582
0.0247792309200397,18.9812585305868
0.023755489587349,18.9827900491154
0.0225804495264917,18.9841943123557
0.0212598132737448,18.98559307443
0.019802059997655,18.9870396125344
0.0182163459437463,18.9885715082888
0.0172127018994763,18.9895407649436
0.0162319008588407,18.9905100215984
0.0149154679569867,18.9918821831645
0.0126279277178175,18.9945137321587
0.0107177782604343,18.9970316905125
0.00913611286148173,18.999424195935
0.00781382013431541,19.0017171964979
0.00669312764641456,19.003942679745
0.00572493569256209,19.0061443682391
0.00486275990467845,19.0083958200891
0.00404471997953606,19.0108736356573
0.00326663632438928,19.0136564797664
0.0028421327493045,19.0154119871739
0.00246248335408525,19.0171674945814
0.00214883975980357,19.0187819328512
0.00187506736571119,19.0203405217707
0.00162100088465804,19.0219390205237
0.00137066723101883,19.0236896881933
0.0011007649265858,19.0258222708308
0.000708687652813758,19.0295374121718
0.00039497801498452,19.0332982255294
0.00017362798569253,19.0366271815679
-1.22023693350813e-05,19.0401248615867
-0.000190260870230567,19.0445463136107
-0.000340895961066351,19.0502574562111
-0.000402153282692473,19.0551870591309
-0.000396821484513557,19.0596700519146
-0.00033001720397981,19.0637055415084
-0.000203056227895054,19.0673449233439
-1.51038461004413e-05,19.0706287965942
0.000236986170518182,19.07361238077
0.000558074823878602,19.0763457226354
0.000955706156376803,19.0788806270532
0.00144232388952977,19.0812743631458
0.00203932203754855,19.0835937574859
0.00278994904733179,19.0859382998822
0.00377263963248834,19.0884372111977
0.00514159524071024,19.0912920729051
0.00685103499811006,19.0942529626327
0.00820637239337025,19.0962777774751
0.00974411030207243,19.0983025923174
0.0113167133126405,19.1001158552812
0.0129623474775466,19.1017734753661
0.0147141244345274,19.1033094259074
0.0166498300728899,19.1047807662459
0.0187753836790441,19.1061758469256
0.0211528464027343,19.1075199421325
0.0238082395312614,19.1088104624103
0.0267871977446721,19.1100538729056
0.0301326013144845,19.1112526237851
0.0338852692548042,19.112407158812
0.0381041102856651,19.1135220786608
0.0428503424038272,19.1146000646563
0.0481952935914222,19.1156440450442
0.0542200511259071,19.1166567065869
0.0610276242267086,19.1176420307853
0.068738075921455,19.1186036076227
0.0774969859521724,19.1195452967251
0.0874833187747149,19.1204713344926
0.098920294056153,19.1213864622266
0.112090932136507,19.1222961125791
0.127365711836971,19.1232069568032
0.145239886872914,19.1241272721695
0.16640515825419,19.1250681268672
0.191210697924529,19.1260214398796
0.219954056086571,19.1269808333668
0.253402848698986,19.1279571518274
0.29262618025666,19.128967395327
0.339423596192834,19.1300457519119
0.375314788731427,19.1308145556301
0.412358633818144,19.1315833593483
0.445260194825473,19.1322696799738
0.474082925917701,19.1328994396992
0.499263769170637,19.1335034866481
0.52072238076879,19.1341054194652
0.537911516972147,19.1347292405062
0.549598865611521,19.1354088689203
0.552930387801212,19.1361835174615
0.54489363143752,19.1369757549131
0.524291932292203,19.1378052595257
0.489337271812573,19.1386882505383
0.437789701784761,19.139635736591
0.373812373271356,19.1405695333954
0.328884261954637,19.1411420074711
0.280544848550874,19.1417144815468
0.237695992750549,19.1422015172553
0.200742991020843,19.1426171480952
0.168144488607735,19.1429883534471
0.1388840871131,19.1433318925072
0.112324085688042,19.1436586271776
0.0880059392394598,19.1439769363398
0.0655301047951639,19.1442949725901
0.0444270559046495,19.1446236760221
0.0237800599170773,19.1449865548648
0.00777266338789927,19.1453092754268
-0.00115942931012671,19.145511577582
-0.00927674953029617,19.1457138797372
-0.0158343668629039,19.1458935932481
-0.0218878101552377,19.1460758143162
-0.0279780256651139,19.1462792255168
-0.0338549862722985,19.1465003260499
-0.0393593797154533,19.1467370045924
-0.0444026502161855,19.1469885205017
-0.0489386956676261,19.1472550465618
-0.0529470545368899,19.1475374138853
-0.056423002588461,19.1478369904521
-0.0594234574831774,19.1481632050409
-0.0618000117395869,19.1485007928241
-0.0636683507805795,19.1488624295434
-0.0650442669595463,19.1492518523358
-0.0659419091390958,19.1496735348315
-0.0663732054364164,19.1501330667805
-0.0663461386196468,19.1506375430328
-0.0658625421467791,19.1511961686432
-0.0649123214042956,19.1518226990384
-0.0634694193080159,19.1525351878287
-0.0614803922611355,19.1533610318993
-0.0588331966648363,19.1543478985809
-0.0552373319244297,19.155605472944
-0.0510992934341934,19.157011577035
-0.0470871641027415,19.1583724733393
-0.0432528214941322,19.1596931162346
-0.0396221119834199,19.1609757478182
-0.0362085861385363,19.1622211462541
-0.0330186429298829,19.1634293528758
-0.0300538096708674,19.1646000583504
-0.0273119576956161,19.1657328062408
-0.0247880956103427,19.1668270982173
-0.0224749829907765,19.1678824440187
-0.020363657138016,19.1688983785647
-0.0184439049021056,19.1698744582492
-0.0167046877497755,19.17081024306
-0.0151061972193745,19.1717219127208
-0.0135653464276498,19.1726567868259
-0.0120869946535787,19.1736161867804
-0.0106751162017718,19.1746021288126
-0.0093335053676403,19.1756169712149
-0.00806572102439919,19.1766635014962
-0.00687503465215755,19.1777450461578
-0.00576437584138245,19.17886561766
-0.00473627520165289,19.1800301155291
-0.00379280414357302,19.1812446087632
-0.00293551031137604,19.1825167447343
-0.00216534619815319,19.1838563634146
-0.00148258617252947,19.1852764625076
-0.000886722461695363,19.1867948021866
-0.00038250010943065,19.18841418662
1.70601852584396e-05,19.1900755817662
0.000329113551671626,19.1917973219034
0.000568624519905959,19.1935992585374
0.000749607080548505,19.1955076145652
0.000885522170462619,19.1975589410763
0.000989868505499377,19.1998081979962
0.00107725431566382,19.2023475678993
0.00116615086490273,19.2053625539945
0.00128089976645065,19.2090969660458
0.00141982256808885,19.2129838887648
0.00160496474716754,19.2174281742988
0.00183136342790799,19.2223060862004
0.00207393151057749,19.2272449801795
0.00230031888866524,19.2317544085222
0.00250429190619183,19.2357938659837
0.00269893952132902,19.2396423851495
0.00289073175864387,19.2434218333523
0.00308388398854959,19.2472005819283
0.00328177330108854,19.2510259014852
0.00348744194836816,19.2549352238772
0.00370383254378935,19.2589609739795
0.00393397015836154,19.2631337340813
0.00418110127850532,19.2674840340955
0.00444885043838034,19.2720436986485
0.00474145924451367,19.2768472098788
0.00506417895387886,19.2819330276212
0.00542371920495261,19.2873417260239
0.00579013707038804,19.2925690931936
0.00617565338994235,19.2977628049352
0.00657894386816824,19.3028601246979
0.00700495448807005,19.3078800492821
0.00745780734076026,19.3128238684958
0.00794269912212797,19.3176995028241
0.00846512833831171,19.3225113853539
0.00903108823454345,19.3272620502945
0.0096471009101642,19.3319518556904
0.0103203417281427,19.3365796191672
0.0110707225585407,19.3412135072493
0.011915875862114,19.3458744978735
0.0128750224290532,19.3505700581499
0.0139754313447659,19.3553247086398
0.0152592462574364,19.3601945004693
0.0168061201966727,19.3653204930711
0.0188370828603251,19.3711675260011
0.0206861325438092,19.3759093609236
0.0226668192800043,19.3806511958461
0.0242807767076355,19.3844601820328
0.0256125321098259,19.3877431950484
0.0267299392407686,19.3907976515518
0.0276352053000125,19.3937697704853
0.0282694055639399,19.3965899199754
0.0286360193600688,19.3993766961906
0.0287133667890397,19.4022718783219
0.0284201132757344,19.4055359989618
0.0274462946344786,19.4098850513156
0.0265599914565806,19.4125760582726
0.0255043092969704,19.4152670652297
0.0244333517152636,19.4177120356424
0.0233611040556077,19.4200027842627
0.0222876130680156,19.422208089701
0.0212155340139066,19.4243659454585
0.0201484934830785,19.4265000271244
0.0190901923699725,19.4286268529577
0.0180441385983216,19.4307589179697
0.017013617491313,19.4329062742345
0.0160015839931922,19.435077426148
0.015010704630227,19.4372798900607
0.0140433844283592,19.439520561846
0.0131017770368544,19.441805986841
0.0121877949281664,19.4441425665787
0.0113031229299305,19.4465367182362
0.0104492212706263,19.4489950398341
0.00962734170573664,19.4515244313457
0.00883852971164981,19.4541322550836
0.00806262305993549,19.4569046241404
0.00730138537581982,19.4598670963413
0.00655856156345048,19.4630426788042
0.00583810173037385,19.4664580226732
0.00514415681802532,19.4701439988522
0.00448102692061347,19.4741365162718
0.00385306953506498,19.4784776435075
0.00326454561943166,19.4832173768924
0.00271938201913439,19.4884168196707
0.00222087276791096,19.4941540014426
0.00177147373033343,19.5005329536899
0.00138218080001159,19.5075059755028
0.00105621160295742,19.5150312739122
0.000793455214179471,19.5232248168107
0.000590843245360344,19.5323371398812
0.000455912867938688,19.5408635932324
0.000341737106601424,19.5508495077796
0.000262130792065607,19.5608495077797
0.000207311415692047,19.5708495077797
0.000170146847037054,19.5808495077797
0.000145403398799833,19.5908495077797
0.000129322565721648,19.6008495077797
0.000119289965092011,19.6108495077797
0.000113526534459547,19.6208495077797
0.000110831366984497,19.6308495077797
0.000110394118308111,19.6408495077797
0.000111669444919942,19.6508495077797
0.000114295609993246,19.6608495077797
0.000118041162070238,19.6708495077797
0.000122769109277013,19.6808495077797
0.000128412568392174,19.6908495077797
0.000134958506989216,19.7008495077797
0.000142437502194237,19.7108495077797
0.000150918125722095,19.7208495077797
0.000160505036548178,19.7308495077797
0.000171340268469722,19.7408495077797
0.000183607580420603,19.7508495077797
0.000197540117867889,19.7608495077797
0.00021343205757046,19.7708495077797
0.000231655446526626,19.7808495077797
0.00025268420833749,19.7908495077797
0.000277128450858597,19.8008495077797
0.000305784063724525,19.8108495077797
0.000339705670943576,19.8208495077797
0.000380316283460787,19.8308495077797
0.000429576374881328,19.8408495077797
0.000487548788265184,19.8504413902982
0.000553514699358255,19.8593046538461
0.000628416346757485,19.8674823515555
0.000713440940144171,19.8750277723756
0.000809956762782035,19.881990830111
0.000919519444558548,19.888417835378
0.00104389194831333,19.8943517673466
0.0011850707359282,19.899832527347
0.00134531748448133,19.904897154157
0.00152719394608422,19.9095800316483
0.00173360456855936,19.9139130941143
0.00196784529366503,19.9179260255504
0.00223366436481257,19.9216464401975
0.00253533384467431,19.9251000603499
0.0028777421213787,19.9283109046597
0.00326651114424123,19.931301484016
0.00370814923260617,19.9340930054353
0.00421025934517494,19.936705608663
0.0047818293436206,19.9391586541809
0.00543365383883293,19.9414710914721
0.0061662271942511,19.9436277368228
0.00697566892374396,19.9456191719764
0.00787309456693579,19.947479719898
0.00887533996810798,19.9492441613744
0.0100094967575414,19.9509514214459
0.0113261672869865,19.9526561104999
0.0130082360718636,19.9545312839869
0.0149632093197079,19.9564272754241
0.0165908706673205,19.9578590398903
0.0183088031357262,19.9592908043565
0.019846298713367,19.9605520941859
0.021217476815432,19.9617053659394
0.0224467589974911,19.9628113067654
0.0235314775688875,19.963910944556
0.0244514484602674,19.9650434815697
0.0251665622249474,19.9662624999468
0.0255940892138506,19.967675434204
0.0254406386604085,19.9697186708911
0.0247837595976566,19.9712513675857
0.0237607998218053,19.9727840642803
0.0225864669025869,19.9741885674033
0.0212665185128843,19.9755872024171
0.0198094048446007,19.977033416043
0.0182242947847273,19.9785648080284
0.0172207830642004,19.9795338805788
0.0162398727826294,19.9805029531293
0.0149518989725077,19.9818439452556
0.0126585539577495,19.9844770068644
0.0107430367661139,19.9869969818226
0.00915710424100595,19.9893911546623
0.00783147216529182,19.9916854021403
0.00670821211772343,19.9939116016745
0.0057381314971138,19.9961132199358
0.0049853964321707,19.9980566099679
0.00431905720850687,20
