ecg,time
2.22245753779263e-05,15.0095638124625
2.33961258972871e-05,15.0195638124625
2.46127004040161e-05,15.0295638124625
2.58777453217676e-05,15.0395638124625
2.71949854582244e-05,15.0495638124625
2.85684532105665e-05,15.0595638124625
3.00025218326341e-05,15.0695638124625
3.15019432553372e-05,15.0795638124625
3.30718910753098e-05,15.0895638124625
3.47180094641958e-05,15.0995638124625
3.64464689083725e-05,15.1095638124625
3.82640298725175e-05,15.1195638124625
4.01781156979936e-05,15.1295638124625
4.21968963083533e-05,15.1395638124625
4.43293846114622e-05,15.1495638124625
4.65855478758603e-05,15.1595638124625
4.89764368369972e-05,15.1695638124625
5.15143358811646e-05,15.1795638124625
5.42129383927058e-05,15.1895638124625
5.70875522743552e-05,15.1995638124625
6.01553418151629e-05,15.2095638124625
6.34356135566512e-05,15.2195638124625
6.69501556906355e-05,15.2295638124625
7.07236429392382e-05,15.2395638124625
7.47841219920003e-05,15.2495638124625
7.916359664295e-05,15.2595638124625
8.38987371076289e-05,15.2695638124625
8.90317450592661e-05,15.2795638124625
9.46114153405898e-05,15.2895638124625
0.000100694447985861,15.2995638124625
0.000107347081421845,15.3095638124625
0.000114647141387127,15.3195638124625
0.000122686632980842,15.3295638124625
0.000131575049443221,15.3395638124625
0.000141443637005577,15.3495638124625
0.000152450949978569,15.3595638124625
0.000164790169077244,15.3695638124625
0.000178698862477195,15.3795638124625
0.000194472181577485,15.3895638124625
0.000212480965265473,15.3995638124625
0.000233196984791709,15.4095638124625
0.000257228781991611,15.4195638124625
0.000285373567733403,15.4295638124625
0.000318694063584175,15.4395638124625
0.000358635143794592,15.4495638124625
0.000406231537039739,15.4593801090065
0.000460150444211772,15.468479398687
0.000521097195327388,15.476893624113
0.000589992166688056,15.4846730243053
0.000667896561061562,15.491865286346
0.000756017672079053,15.4985149271085
0.000855723942517563,15.5046634604171
0.000968564438369299,15.5103495812047
0.00109629185242154,15.5156093317835
0.00124088848203814,15.5204762568047
0.00140459517695544,15.5249815644363
0.00158994577930939,15.529154288496
0.00179980641239728,15.5330214412081
0.00203742136950562,15.5366081527492
0.00230646872000742,15.5399378145029
0.00261112678004684,15.5430322264813
0.00295615729702137,15.5459117394687
0.00334700862283741,15.5485953991074
0.00378994888809549,15.5511011028251
0.00429224204688689,15.5534457690639
0.00486238530507613,15.5556455300034
0.00551044276352192,15.5577159701922
0.00623976730392983,15.5596512140342
0.0070411878952827,15.5614285157515
0.00792266491629975,15.5630756133568
0.00889567990146893,15.5646191310355
0.009976662047836,15.5660850245156
0.0111911621336613,15.5675017781784
0.0126266066997956,15.5689470517979
0.0144340969901049,15.5705161298113
0.0171427001667843,15.5725249447133
0.0190183866741981,15.5737658388916
0.0210037710932837,15.5750067330698
0.0228211391724692,15.5761198680513
0.0244514604894804,15.577138074972
0.0259251753047026,15.5781156870045
0.027242447448526,15.5790903811818
0.0283832961705929,15.5800985760179
0.0293059196577101,15.5811911035762
0.0299223720722858,15.5824732331137
0.0298974697106033,15.5844166599901
0.0292461179510918,15.5858110130939
0.0281890382178618,15.5872053661978
0.0269394320666258,15.5885047463429
0.0255021964555696,15.5898212160895
0.0238849220189338,15.5912050078731
0.0220937766624428,15.5926957790137
0.0201268886869662,15.5943409880911
0.017996814594026,15.5962145123795
0.0156777147490947,15.5984613273799
0.0137201092640558,15.6005826820066
0.012075276180989,15.6025767511386
0.0106863952687734,15.6044572228601
0.00950571481532025,15.6062381817373
0.00849385992172718,15.6079341121993
0.00761830586618712,15.6095606640999
0.00685175611531672,15.6111360172844
0.00617037015808971,15.6126836047789
0.00555124139874658,15.6142386943767
0.00496668271654243,15.6158687493963
0.0043578008328625,15.6177780865823
0.00394971624614571,15.6192102147223
0.0035793978150706,15.6206423428623
0.00328455820939049,15.6218921814333
0.0030367214412355,15.623033012245
0.00281173397232364,15.624153189818
0.00259548400420114,15.6253194160982
0.00237439221847415,15.6266199692392
0.00212294116039485,15.628262200602
0.00175138839940179,15.6311141253966
0.0014448708003489,15.6340325518331
0.0012018524648376,15.6369406981812
0.000971630967999022,15.6405716364127
0.00078208638796977,15.6450004556133
0.000668091566943515,15.6499458224166
0.000645567498011165,15.6553265132797
0.000713660126073593,15.6600626761231
0.000855022074655867,15.6643063290731
0.00106102562711971,15.6680885994583
0.00132740294354498,15.6714565838191
0.00165222201463944,15.6744564987376
0.00203522016181805,15.6771348680595
0.00247796712569481,15.6795387843938
0.00298348966082556,15.6817111219407
0.00355751559170003,15.683694332187
0.00420963859742938,15.6855300841738
0.00495530313598633,15.6872603166641
0.00582072092231365,15.6889323066505
0.00684989671162022,15.6906019841614
0.00813815748990874,15.6923671748757
0.00995663096654824,15.6944666528613
0.0122639506241527,15.696719753092
0.0144118919579207,15.6985415484109
0.0168501714738925,15.7003633437298
0.0192273858438951,15.7019252249828
0.0216359862321895,15.7033193683113
0.0242035605161717,15.7046247235149
0.0269921668177757,15.7058635746683
0.0300575159452216,15.7070478327401
0.0334703751039669,15.7081898129156
0.0372625876371338,15.7092855474177
0.0415125199220915,15.7103440113281
0.0462830172295531,15.7113667449237
0.0516342243531719,15.7123537193504
0.0576562082026762,15.7133091612688
0.0644439633719629,15.7142356438902
0.0721070458450412,15.7151357320635
0.0807740446965731,15.7160121233255
0.0905941054310401,15.7168673936543
0.101751738413896,15.7177048199548
0.114465023693066,15.7185275096443
0.128997340039555,15.7193387189007
0.145669494202725,15.720141912383
0.16487678971766,15.7209408792697
0.18711683525633,15.7217400286617
0.21304781915495,15.7225452567706
0.243627682843454,15.7233661079551
0.27947899336903,15.7241994974054
0.320982888320766,15.725040179114
0.369501211603634,15.725906823007
0.41083678873193,15.7265804017011
0.454376058553484,15.7272539803952
0.492804226325688,15.7278407373869
0.526473526446366,15.7283700617769
0.556384894778758,15.7288760660391
0.582710031608765,15.7293823303811
0.605075307851342,15.7299128655925
0.622429219562641,15.7305052257036
0.631506666839748,15.7311910413909
0.628437560666657,15.7319020566045
0.612127129679761,15.7326634949736
0.58579014861689,15.7333824165656
0.548715991576444,15.7341259202876
0.497841623099305,15.7349393810687
0.429620601869576,15.7358440671886
0.37427186782086,15.7364879425904
0.314234573568751,15.7371318179922
0.262954141501691,15.737656794407
0.22055314786854,15.7380855102689
0.184056428064952,15.7384588855843
0.151749508053633,15.7387995387858
0.122681509105164,15.7391205641185
0.0962313283126164,15.7394312329441
0.0719028564740669,15.7397399438597
0.0491660642260726,15.7400572413059
0.0270904128045936,15.740404255131
0.00864000938830913,15.7407379842317
-0.00127533918948388,15.7409408546614
-0.010249585335642,15.741143725091
-0.0170453632144062,15.7413128784304
-0.0232783661500486,15.7414828860371
-0.0296069199776947,15.7416738538876
-0.0357563016021076,15.741882260868
-0.0415479057725043,15.7421059042784
-0.0468806299709633,15.7423439368651
-0.0517005256454435,15.742596421707
-0.0559824034252434,15.742864077379
-0.0597188761405536,15.7431481532386
-0.0629136203435071,15.7434503860843
-0.0655770364545202,15.7437730133274
-0.0677232841187217,15.7441188330949
-0.0693680955649272,15.7444913122372
-0.0705249515490722,15.7448947527617
-0.0712252166248224,15.7453705383119
-0.0713770599625963,15.7458516719868
-0.0710652232430413,15.7463840828684
-0.0702832416655422,15.7469812324802
-0.0690072060606163,15.7476608859271
-0.067186088175754,15.7484494837628
-0.0647114171888803,15.7493928148679
-0.0613035060948882,15.7505948871819
-0.0570817453615886,15.7520263340444
-0.0529504503323919,15.7534128316787
-0.0489719232315403,15.7547608056303
-0.0451796537988291,15.7560723691415
-0.041592374092037,15.7573481433842
-0.038220661675236,15.7585880038925
-0.0350696670449363,15.7597914775164
-0.0321404452789287,15.7609579534138
-0.0294307637430476,15.7620867936475
-0.0269357076817232,15.7631773877648
-0.0246482033791411,15.7642291742779
-0.0225594992374351,15.76524164121
-0.0206596137677165,15.7662143124261
-0.0189377477374794,15.7671467235446
-0.0173463302319171,15.7680598600446
-0.0158118266491751,15.7689962987979
-0.0143389963736714,15.769957421431
-0.012931795787029,15.770945264129
-0.0115939958053682,15.7719622115071
-0.010329125695477,15.7730110849393
-0.00914041942942517,15.7740952546023
-0.008030759191553,15.7752187897419
-0.00700261577416831,15.7763866646974
-0.0060579850295568,15.7776050488526
-0.00519831863136415,15.7788817275463
-0.00442444577954061,15.7802267362919
-0.00373647941848026,15.7816533611266
-0.0031336941622861,15.7831798099885
-0.00262289089589494,15.7848014608487
-0.00221435752730759,15.7864664668136
-0.00189111596512784,15.7881931141688
-0.00163821580406451,15.7900016269367
-0.00144157633669369,15.7919188080821
-0.00128755598676441,15.7939821988461
-0.00116229088292912,15.7962486215997
-0.00105043773436298,15.7988143480736
-0.00093177824439954,15.8018767361486
-0.000783588660807268,15.8056091034876
-0.000611493519939312,15.8095231405769
-0.000392407628354438,15.8140178241039
-0.000134049177859671,15.8189899680013
0.000163319580569076,15.8246246322089
0.000493431187295354,15.831037808854
0.000834563943981464,15.8379891449235
0.00115113554587336,15.844685725525
0.001460592280733,15.8513927317072
0.00175139854999582,15.857841623693
0.00203330236131002,15.8642173847633
0.00230388268974302,15.8704169983663
0.00256820525848016,15.8765121726215
0.0028269426889911,15.8824722556083
0.0030830445418071,15.8883236443353
0.00333800222716656,15.8940607492844
0.00359397012130852,15.899696095335
0.00382887450230107,15.9047247501391
0.00404211625833485,15.9091593999767
0.00424880968643485,15.9133316838627
0.00446181110599842,15.9174929345482
0.00469803535518163,15.9219365456926
0.00496765876854483,15.9267801101058
0.00524662540334006,15.931524588263
0.00554833282913759,15.9363584536566
0.00581752211652305,15.9404103260515
0.00608286140280791,15.9441708115402
0.0063562606740889,15.9478145924927
0.00664424423263765,15.9514248895707
0.00695239627068088,15.9550539956661
0.00728639447505914,15.9587404366597
0.00765253440781872,15.9625155389813
0.00805824577211257,15.9664074966424
0.00851258504011818,15.9704431917326
0.00902686364189317,15.9746494346473
0.00961551938196666,15.9790538529116
0.0102973870781449,15.9836855497505
0.011054723141771,15.9883257775255
0.0119071081042473,15.9930142133534
0.0128697250100163,15.997740769643
0.0139664224805659,16.0025203869356
0.0152354786296569,16.0074018377997
0.0167490655684572,16.0125128819778
0.0186976764487645,16.0182567899086
0.0206054285735939,16.023261392778
0.0221941563320393,16.0271528505685
0.0238194814054759,16.0310443083591
0.0252143816206061,16.0344749746797
0.026387038422254,16.037612680538
0.027352472103717,16.0406341804189
0.0280613590726581,16.0435170180796
0.0285033277771335,16.0463273126234
0.0286660035619619,16.0491957937099
0.0284940216602585,16.0523257563427
0.0277525157572182,16.0563672435021
0.0268978571384402,16.0592816526312
0.0258269066697845,16.0621960617603
0.024744356403413,16.064765455933
0.0236656461041934,16.0671288261825
0.0225864656628913,16.0693834439297
0.0215081694404403,16.0715778857129
0.0204341149102061,16.0737404809627
0.019368033707839,16.0758901658829
0.0183135370967953,16.0780408583854
0.0172740064501628,16.0802034603871
0.0162525453635107,16.0823869996267
0.0152519841869429,16.0845992818772
0.0142748960229644,16.0868473004103
0.0133235833950476,16.0891375833639
0.0124001200934092,16.0914763342777
0.0115063319226229,16.0938696645767
0.0106438187116009,16.0963236974765
0.00981395823893313,16.0988446962351
0.0090179124230013,16.1014391785948
0.00824251916518204,16.1041656465558
0.00748086784740333,16.1070756609804
0.00673672077262113,16.1101906273208
0.0060139157602052,16.1135357725164
0.00531648690016177,16.1171402614371
0.00464861467067,16.121037976447
0.00401454237946006,16.1252685719748
0.00341843792186529,16.1298791053575
0.00286418792870209,16.1349268240015
0.00235513013981243,16.1404841764891
0.00189383309521818,16.1466468861348
0.00148454456848004,16.1534984104204
0.00114051817611466,16.1608776320881
0.00085491671999623,16.1688915735081
0.000621199857257986,16.1776842951052
0.000433355984972322,16.187445802568
0.000296979204060162,16.197445802568
0.000203186797517461,16.207445802568
0.000141961920488152,16.217445802568
0.000100639594898578,16.227445802568
7.22492992748797e-05,16.237445802568
5.28683015973298e-05,16.247445802568
3.99792067300837e-05,16.257445802568
3.17587815034584e-05,16.267445802568
2.6843054359268e-05,16.277445802568
2.42376660937595e-05,16.287445802568
2.3244195096987e-05,16.297445802568
2.33841514059839e-05,16.307445802568
2.43323095304031e-05,16.317445802568
2.58670113040782e-05,16.327445802568
2.7836677881931e-05,16.337445802568
3.0424278305998e-05,16.347445802568
3.37950132163707e-05,16.357445802568
3.7623066339788e-05,16.367445802568
4.17168292455842e-05,16.377445802568
4.59901635110753e-05,16.387445802568
5.041098590881e-05,16.397445802568
5.49752340896747e-05,16.407445802568
5.96937198753301e-05,16.417445802568
6.45855546691358e-05,16.427445802568
6.96749488967448e-05,16.437445802568
7.49897643779822e-05,16.447445802568
8.05609980155101e-05,16.457445802568
8.64227818996715e-05,16.4674458025681
9.26126933820894e-05,16.4774458025681
9.91722772217684e-05,16.4874458025681
0.000106147740295667,16.4974458025681
0.000113590812844141,16.5074458025681
0.000121559791797295,16.5174458025681
0.000130120798346106,16.5274458025681
0.000139349297595803,16.5374458025681
0.000149331945569476,16.5474458025681
0.000160168850301224,16.5574458025681
0.000171976361713388,16.5674458025681
0.000184890542494797,16.5774458025681
0.000199071523543454,16.5874458025681
0.000214709018863789,16.5974458025681
0.000232029375263448,16.6074458025681
0.000251304675653862,16.6174458025681
0.000272864622670784,16.6274458025681
0.000297112235495515,16.6374458025681
0.000324544851559453,16.6474458025681
0.00035493740934072,16.6571790009185
0.000386695908558885,16.6661046090579
0.000419568320842271,16.6742711579102
0.000453402003431674,16.6817462307905
0.00048807253930247,16.6885926237523
0.000523461018272697,16.694867814106
0.000559448500824016,16.7006244049975
0.000595914611621471,16.7059105271635
0.000632746430014747,16.7107702072338
0.000669836102458487,16.7152437726751
0.000707091803378185,16.7193681691659
0.000744431938887977,16.7231773234878
0.00078179631426062,16.7267024592887
0.000819145256175773,16.7299724421055
0.000856460736396622,16.7330141186062
0.000893757785022829,16.735852701333
0.000931085988224588,16.7385122059633
0.00096853902082519,16.7410160142972
0.00100627610763582,16.7433876594663
0.00104454825317918,16.7456520605387
0.00108375161262976,16.7478377209274
0.00112455096632207,16.7499812500908
0.00116818038320947,16.7521386156312
0.00121744723669572,16.7544227752566
0.00128309175045195,16.7572423011979
0.00132820519923041,16.7590457341897
0.00137599917964777,16.7608491671816
0.00142178158034204,16.7624818116407
0.00146698411501647,16.7640099689874
0.0015146205804671,16.765537282938
0.00156814591189665,16.7671597760087
0.00163396793554903,16.7690311509765
0.00173388150724279,16.7716396753315
0.00189075973026608,16.7752576029365
0.00204318469737384,16.7783149424243
0.00220835520485905,16.7812286387739
0.00242417134754007,16.7845582888016
0.00275246523646521,16.7888833925753
0.0032239964970478,16.7940375766612
0.00373144485675935,16.7985952752736
0.00428980869442984,16.8027354117711
0.00490105144760366,16.8064760056074
0.00556924954532342,16.8098569223991
0.0062987350907691,16.8129195101368
0.00709343215450462,16.815700980821
0.00795800194162306,16.8182376259513
0.00889909249306071,16.8205656719676
0.0099256101612494,16.8227190847182
0.0110490426499919,16.8247287857743
0.0122848845707155,16.8266240229366
0.0136575750562155,16.8284371709882
0.015183436384166,16.8301808521009
0.0169364939176966,16.8319185258087
0.0189821807758399,16.8336769220946
0.0213431050873525,16.8354359096217
0.0239929970399969,16.8371492071418
0.0268757276433431,16.8387715822111
0.0299562862722338,16.8402863523399
0.0332385411844547,16.8417008265734
0.0367708654823959,16.8430370376785
0.0405709067615899,16.8442995866824
0.0447151843911914,16.8455090285476
0.0492482200732178,16.8466703533532
0.0542033507100638,16.8477843921396
0.0596556292897776,16.8488598819304
0.065663055622717,16.8498992039107
0.0723004541381928,16.8509060823829
0.0796557426767425,16.8518841277981
0.0878264819088602,16.8528361185094
0.0969373993808965,16.8537657987495
0.107137905416681,16.8546767912881
0.118611738083236,16.8555729473816
0.131586686840186,16.8564584098282
0.146357022274969,16.8573382464343
0.163298961868717,16.8582181478019
0.182907931985474,16.8591050238475
0.205858157298545,16.8600077863199
0.232722590334592,16.8609264393629
0.263658921431377,16.8618484700082
0.299450503359802,16.8627834153199
0.341200541953613,16.8637473843349
0.390844609078406,16.8647755471909
0.426790487578931,16.8654718254595
0.463583361031783,16.8661681037282
0.496299033253879,16.8667961413334
0.525037010718485,16.8673800840956
0.55013848273024,16.8679477799395
0.571420002835982,16.868522382217
0.588171448940261,16.8691306948308
0.598746264393397,16.8698180183771
0.599391435692735,16.8705686462337
0.588021276810379,16.8713476050706
0.563189550998395,16.8721761163869
0.524566100348882,16.8730368324344
0.471878763745439,16.8739278854481
0.417203544243513,16.874691584252
0.367534357862529,16.8753051849402
0.313663753717119,16.8759187856284
0.266709064779179,16.8764291160207
0.226940734096993,16.87685536096
0.19224056579768,16.8772309963478
0.161289373297219,16.877575721319
0.133305390877834,16.8779016040675
0.107754352661787,16.8782174893555
0.0841956321773096,16.8785315293763
0.0621484018958169,16.8788539769709
0.0407699416942471,16.8792049980579
0.0219945643113694,16.879559427648
0.0122924575343648,16.8797667427683
0.00349508905719055,16.8799740578887
-0.00330120055156057,16.880150223735
-0.0095351542200284,16.880327278282
-0.0158466434514598,16.8805255333424
-0.02197158730102,16.8807414512948
-0.0277396807238587,16.8809728452192
-0.0330556915354498,16.8812189083079
-0.0378696841366653,16.8814797548194
-0.0421591940637786,16.8817561607177
-0.0459187064378494,16.8820494384777
-0.0491532269732704,16.8823613948231
-0.0518679402216505,16.8826943456932
-0.0540961139330601,16.8830564306385
-0.0557791788329659,16.8834375336794
-0.056991128049346,16.8838500529975
-0.0577470184419233,16.8842995441588
-0.0580580246464183,16.8847929410104
-0.0579298947479187,16.8853392382401
-0.057358617321432,16.8859516294958
-0.0563251562743202,16.8866478535862
-0.0547864260676491,16.8874544703456
-0.0526489755572234,16.8884172988851
-0.0496711039129519,16.8896396354552
-0.0460409089706784,16.8910576293261
-0.0424693721459851,16.8924301124302
-0.039021248097457,16.8937628467329
-0.0357314071593707,16.8950581153246
-0.0326200103789307,16.8963166798117
-0.0296987963774601,16.8975385388864
-0.0269738223520191,16.8987233298702
-0.0244468779122488,16.8998705409325
-0.0221163731863324,16.9009796214987
-0.0199780067919162,16.9020500357475
-0.0180253314930232,16.9030812824409
-0.0162502600737293,16.9040728935051
-0.0146435233648381,16.9050244182213
-0.0131950813176372,16.9059353968244
-0.011814217822911,16.9068608745829
-0.0104926768723536,16.9078102392811
-0.00923489139674493,16.9087853169666
-0.00804506210092965,16.9097883194433
-0.00692722188722966,16.9108218515026
-0.0058851946466812,16.911889009797
-0.00492255599039812,16.9129935134074
-0.00404259670975483,16.9141398808967
-0.0032482911778874,16.9153336762915
-0.0025422739808459,16.9165818607304
-0.0019268300522854,16.9178933126141
-0.0014039075499499,16.9192796295337
-0.000975171145371038,16.9207564299356
-0.000642132893192099,16.922345609898
-0.000415967775841506,16.9239880592019
-0.000285597071089674,16.9256836898092
-0.000238030061572684,16.9274510341577
-0.00026196895464584,16.9293134523115
-0.000347708714953922,16.9313027354305
-0.000487292687356002,16.9334651391773
-0.000675087531867608,16.9358745422468
-0.000909608593627161,16.938667412433
-0.00120101222030295,16.9421768597452
-0.00148897497539263,16.9459525780122
-0.00176262395695096,16.9501319497398
-0.00197084279100734,16.9541018903643
-0.00210870300093428,16.9576691928081
-0.00219103464464547,16.9610564777109
-0.00222167298829907,16.9644619716265
-0.00219321280050473,16.9681429029197
-0.0020927282087189,16.9720785464824
-0.00193139479336661,16.9758899635741
-0.00171827101929267,16.9796538932967
-0.00150064965509484,16.9828701613152
-0.00127408243302113,16.9858637657026
-0.00103689615213731,16.9887610745173
-0.000788652636084834,16.9916236920004
-0.000529154549526533,16.9944896645644
-0.000258206436926771,16.9973860962398
2.44502787893662e-05,17.0003341690026
0.000319177777411002,17.0033517183884
0.000626475176179615,17.0064547086573
0.000946987081071343,17.0096579147413
0.00128153549965889,17.0129755174927
0.00163115392072436,17.0164214826113
0.00199713271072915,17.0200098530476
0.00238108233227166,17.0237550040446
0.00278502520565331,17.0276719118251
0.00321153116981294,17.0317764713881
0.0036639166038534,17.0360858679683
0.00414653065500538,17.0406189419053
0.00466516189567193,17.0453964464789
0.0052276185051669,17.0504411844686
0.0058018191355546,17.0554129450585
0.00639355860170544,17.0603216942638
0.00700796834529907,17.0651653819659
0.00765138764998255,17.0699464259664
0.00833077370194852,17.074666215051
0.00905382193347254,17.0793255828231
0.00983193769263504,17.0839413297487
0.010691166072214,17.0885951731094
0.0116467226382674,17.0932803588908
0.0127223292154511,17.0980157548971
0.0139514535695256,17.1028376566039
0.0153903925004549,17.1078331521798
0.0171623578326082,17.1132422453217
0.0196298056801912,17.1198261069013
0.021265775284302,17.1238150509199
0.0229543106046762,17.1278039949385
0.0244233828876984,17.1313286592261
0.0256605451901037,17.134512795359
0.0266900103229741,17.1375485470715
0.0274777964277287,17.1404694306531
0.027997575176919,17.1432913626731
0.0282434319485353,17.1461389526965
0.0281747840123228,17.1491879753417
0.0276372230438479,17.1528878380042
0.0268317014103205,17.1560162590282
0.0257604971716616,17.1591446800523
0.024684144090371,17.1618116689364
0.023616440373643,17.1642229553122
0.0225480416579814,17.1665068020152
0.0214791414761939,17.1687213844478
0.0204129658417088,17.1708987911171
0.0193533015762146,17.1730599004974
0.0183038623181616,17.1752197852634
0.0172681219564134,17.1773901475763
0.0162492724812682,17.1795806094327
0.0152502272274553,17.1817994573655
0.0142736253680421,17.1840541345958
0.0133218506957682,17.1863515544266
0.0123970391699415,17.1886983482204
0.0115010891022951,17.1911010523344
0.0106356751051166,17.1935662496201
0.00980225136868834,17.1961007188402
0.00900206308131313,17.1987115527029
0.00823405461699036,17.2014139679888
0.00747919527318379,17.2042972916981
0.00674136416968184,17.2073818444539
0.00602434826392957,17.2106922257599
0.00533213227052187,17.2142568356376
0.00466885505569923,17.2181085941417
0.00403872755171185,17.2222859412922
0.00344590490850478,17.22683432272
0.00289429656939074,17.2318086702272
0.00238729389221658,17.2372780658645
0.00192753942464205,17.2433332951333
0.00151689158148416,17.2500971644694
0.00117042007076074,17.2574037883569
0.000883153014050521,17.26532850884
0.000648508110039726,17.2740096899405
0.000460406372101518,17.2836300967439
0.000322425086311968,17.2936300967439
0.000225801233500717,17.3036300967439
0.00015815978067233,17.3136300967439
0.000110831312097931,17.3236300967439
7.77418917738617e-05,17.3336300967439
5.46340248248898e-05,17.3436300967439
3.85216026145951e-05,17.3536300967439
2.73089704107677e-05,17.3636300967439
1.95246846317037e-05,17.3736300967439
1.41979604183567e-05,17.3836300967439
1.06412688690999e-05,17.3936300967439
8.28262601220761e-06,17.4036300967439
6.73128710222535e-06,17.4136300967439
5.72294295137129e-06,17.4236300967439
5.07779138980604e-06,17.4336300967439
4.67319902733212e-06,17.4436300967439
4.42554507266371e-06,17.4536300967439
4.27798593048041e-06,17.4636300967439
4.19211769279953e-06,17.4736300967439
4.14224866831969e-06,17.4836300967439
4.4497428614959e-06,17.4936300967439
5.00985561257263e-06,17.503630096744
5.64538421397596e-06,17.513630096744
6.30289223778276e-06,17.523630096744
6.98077846268849e-06,17.533630096744
7.68556129798713e-06,17.543630096744
8.41873138949799e-06,17.553630096744
9.1777281621407e-06,17.563630096744
9.95934061411323e-06,17.573630096744
1.07615059103904e-05,17.583630096744
1.15835348778678e-05,17.593630096744
1.24257145665056e-05,17.603630096744
1.32889036989556e-05,17.613630096744
1.4174298463881e-05,17.623630096744
1.50833338755118e-05,17.633630096744
1.60176495113163e-05,17.643630096744
1.69790760114725e-05,17.653630096744
1.79696271469345e-05,17.663630096744
1.89914957186874e-05,17.673630096744
2.00470544726664e-05,17.683630096744
2.11388624166422e-05,17.693630096744
2.22696759975909e-05,17.703630096744
2.34424643803265e-05,17.713630096744
2.46604283013654e-05,17.723630096744
2.59270223017144e-05,17.733630096744
2.72459804051304e-05,17.743630096744
2.86213454883922e-05,17.753630096744
3.00575027227043e-05,17.763630096744
3.15592175840038e-05,17.773630096744
3.31316790536273e-05,17.783630096744
3.47805487686907e-05,17.793630096744
3.65120170395495e-05,17.803630096744
3.83328668361598e-05,17.813630096744
4.02505470639777e-05,17.823630096744
4.22732567131176e-05,17.833630096744
4.44100417840222e-05,17.843630096744
4.66709072840492e-05,17.853630096744
4.90669470712772e-05,17.863630096744
5.16104949189988e-05,17.873630096744
5.4315300918495e-05,17.883630096744
5.71967382701711e-05,17.893630096744
6.02720466883611e-05,17.903630096744
6.35606201351287e-05,17.913630096744
6.70843484993078e-05,17.923630096744
7.08680252780331e-05,17.933630096744
7.49398364741896e-05,17.943630096744
7.93319500337637e-05,17.953630096744
8.40812305418039e-05,17.963630096744
8.92301110333786e-05,17.973630096744
9.4827663301268e-05,17.983630096744
0.000100930920910411,17.993630096744
0.000107606526574315,18.003630096744
0.000114932799519247,18.013630096744
0.000123002351765173,18.023630096744
0.000131925429072497,18.033630096744
0.000141834218968114,18.043630096744
0.000152888464489378,18.053630096744
0.000165282863239292,18.063630096744
0.000179256941138875,18.073630096744
0.00019510840795654,18.083630096744
0.000213211491927494,18.093630096744
0.000234042522979683,18.103630096744
0.000258216278219233,18.113630096744
0.000286538658357084,18.123630096744
0.000320084753168499,18.133630096744
0.000360317464100268,18.1436300967441
0.000408140598452055,18.1534183225546
0.000462310815162225,18.1624905151904
0.000523542011117764,18.1708796006322
0.00059275990711715,18.178635730551
0.000671031154326446,18.1858064699838
0.000759568991246469,18.1924362195245
0.000859748526020414,18.1985663837527
0.000973126323370895,18.20423555493
0.0011014635586237,18.2094796783303
0.00124675203750837,18.2143322075463
0.00141124340798292,18.218824265748
0.00159748367285156,18.2229848077274
0.00180835284722984,18.2268407720509
0.00204711101808896,18.2304172205127
0.00231745444990415,18.2337374816282
0.0026235825731772,18.2368232980805
0.00297028180127028,18.2396949686388
0.00336302977211015,18.2423714926653
0.00380812986061974,18.2448707275868
0.00431288919266029,18.2472095586891
0.00488585913677849,18.249404093252
0.00553717363635309,18.2514699014418
0.00626915857240941,18.253398562366
0.0070734980498598,18.2551703811646
0.00795827661703102,18.2568130634012
0.00893512348906942,18.2583531679641
0.010020723975467,18.259816679523
0.0112411313054472,18.2612322849726
0.0126875750559229,18.2626805138875
0.0145147115082654,18.2642575861108
0.0172956942351013,18.2663064105387
0.0191626374826341,18.2675346717965
0.0211329853890699,18.2687629330543
0.0229351297528323,18.269866953066
0.0245541721416479,18.270881008963
0.0260174739620912,18.2718573732879
0.0273235670661317,18.2728331650996
0.0284512070606272,18.2738452139202
0.0293566582898487,18.2749461969463
0.0299464452078329,18.276248759696
0.0298410769389004,18.2782682645511
0.0291424202650762,18.2796468920922
0.0280601995081845,18.2810255196332
0.0267891662377762,18.2823237541333
0.0253315356817942,18.2836457221195
0.0236948218557913,18.2850393963805
0.0218845540891431,18.2865446393323
0.0198975300590102,18.2882106879899
0.0179857259904649,18.2898986743248
0.0156711414897932,18.2921420423987
0.0137124263733377,18.2942654401992
0.0120668109923698,18.2962614979692
0.0106775249223773,18.2981437303016
0.00949672706904274,18.2999262137478
0.00848497338219312,18.301623424896
0.00760969443114041,18.3032509911848
0.00684357479958517,18.3048270375904
0.00616278655582244,18.3063748747491
0.00554449021709946,18.3079294842812
0.0049612358428078,18.3095574567031
0.00435546386624291,18.311458185554
0.00394539427755551,18.3128980769666
0.00357346755178472,18.3143379683792
0.00327832603679546,18.3155908905284
0.003030682540518,18.3167326275374
0.00280608607532352,18.3178526428478
0.00259039115566275,18.3190176681447
0.00237010763079951,18.3203152598892
0.00212018818535192,18.3219490591236
0.00174868253815721,18.3248024970534
0.00144054623959379,18.327740265
0.00119532524276848,18.330685059059
0.000960580534723505,18.3344242391682
0.00077366701796039,18.3388754959146
0.000662758387193666,18.343845351539
0.000643827816601143,18.349203049907
0.000714512317655893,18.3539233192509
0.000858006832587466,18.3581517635904
0.00106589908501629,18.3619202940748
0.00133402334830894,18.3652757963253
0.00166056470785795,18.3682650012908
0.00204525540015017,18.3709338342888
0.00248977641193517,18.3733297670912
0.00299716605040328,18.3754953231608
0.00357336238554292,18.3774733543177
0.00422806799787769,18.3793052818549
0.00497694808675118,18.3810330480336
0.0058469114400814,18.382704633846
0.00688304620205422,18.3843766783965
0.0081827972369399,18.3861482467158
0.0100300464094214,18.3882688572573
0.0123558786096872,18.3905270239212
0.0144862195432454,18.392325392263
0.0169011011679718,18.3941237606049
0.0192791842865065,18.3956821133424
0.0216840749243642,18.3970704977431
0.0242563796298462,18.3983748830034
0.0270477201896904,18.3996116089001
0.0301192385647123,18.4007949771513
0.0335395423346883,18.4019361804014
0.0373397485230432,18.4030310144681
0.0415991100587926,18.4040886829909
0.0463805954794219,18.4051107105505
0.0517453468038633,18.4060972092108
0.0577816017497749,18.4070520254307
0.0645856268759343,18.4079779317631
0.0722673702098695,18.4088775012722
0.0809560903246627,18.40975345749
0.0908012957117348,18.4106083575698
0.101988135320973,18.4114454769557
0.114735525981528,18.4122679263433
0.129307902218358,18.4130789661247
0.146027424292743,18.4138820668848
0.165291322005056,18.4146810327655
0.187599672471853,18.415480286724
0.213615071414428,18.4162857735569
0.244304568957525,18.417107160138
0.280261800723193,18.4179406328537
0.321893364146054,18.4187816628425
0.3705767054815,18.4196492306177
0.411742546465333,18.4203189986303
0.45505999480606,18.4209887666429
0.493379935869424,18.4215740102589
0.526979619660195,18.422102736284
0.556830455055167,18.4226085937909
0.58309299807999,18.4231150783129
0.605384777688421,18.4236462948919
0.622638258426231,18.4242402226047
0.631527448033173,18.4249262687825
0.628259425922642,18.4256379036082
0.611725861057453,18.4264003655627
0.585220175066753,18.4271191910049
0.547937249104516,18.4278636030017
0.496785129983909,18.4286786423187
0.428273246394637,18.4295845188986
0.373121833161687,18.4302247577675
0.313358057056913,18.4308649966365
0.262265921243157,18.4313878441445
0.21997482149117,18.4318154691004
0.183550537799248,18.4321882328994
0.151297620746526,18.4325285190785
0.122272657138754,18.4328493325229
0.0958576113331389,18.4331599131271
0.0715571371821916,18.4334686654158
0.0488391107959694,18.4337862009716
0.0267602994376717,18.4341339669897
0.00853738519865179,18.4344641373014
-0.00133844085665574,18.4346663652102
-0.0102794138535758,18.4348685931191
-0.0170700356035276,18.4350376819277
-0.0233040568406403,18.43520778511
-0.0296322975113793,18.4353988317673
-0.0357804373970744,18.4356073053808
-0.0415702646386332,18.4358310098551
-0.0469009169730231,18.436069102298
-0.0517185913674318,18.4363216487964
-0.0559981878493852,18.4365893702287
-0.059732374650416,18.436873517949
-0.0629248622715814,18.4371758307069
-0.0655860708137413,18.4374985480156
-0.0677301694509017,18.4378444704382
-0.0693728920526033,18.4382170677999
-0.0705276341037099,18.4386206458871
-0.0712251937011924,18.4390960702365
-0.0713755511203154,18.4395773354023
-0.0710622282768558,18.4401099156086
-0.0702787066031603,18.4407072794131
-0.0690010166867479,18.4413872075665
-0.0671780195726866,18.4421761762412
-0.0647009866513453,18.4431200592695
-0.0612892903506034,18.4443231800736
-0.0570674306312592,18.4457544691916
-0.0529362718995133,18.4471408502132
-0.0489580362015792,18.4484887158363
-0.0451661532707568,18.4498001737755
-0.0415793237155954,18.4510758424386
-0.0382081048002494,18.452315596041
-0.035057631740498,18.4535189608836
-0.0321289471317325,18.4546853259802
-0.0294198078393246,18.4558140534549
-0.0269252902930614,18.4569045330073
-0.0246383135256141,18.4579562033211
-0.0225501201713029,18.4589685525637
-0.0206507243674505,18.4599411046832
-0.0189293237987389,18.4608733952936
-0.0173380290095483,18.461786600232
-0.0158036684039823,18.462723110599
-0.0143309978538051,18.4636843105205
-0.012923973295558,18.4646722371189
-0.0115863650278891,18.4656892761859
-0.010321701551912,18.4667382505644
-0.00913321592228724,18.4678225322882
-0.00802378925209943,18.4689461929858
-0.00699589110607046,18.4701142101086
-0.00605151594906035,18.471332757193
-0.00519211390359393,18.4726096252659
-0.00441851244407474,18.4739548578881
-0.00373082258926752,18.4753817529578
-0.00312831677047216,18.476908536844
-0.00261787666254354,18.4785302919051
-0.0022096574927775,18.4801954558434
-0.00188668979991837,18.481922314038
-0.00163402654388364,18.4837311061886
-0.00143758961803036,18.4856486596034
-0.00128373890376823,18.487712557039
-0.00115861012742195,18.4899796991404
-0.00104685540245578,18.4925465305547
-0.000928237284462113,18.4956109173464
-0.000780143940279699,18.4993432633141
-0.000608076584186405,18.5032584651165
-0.000388979801706565,18.5077553121998
-0.000130716822395606,18.5127280880241
0.000166639170287111,18.5183657943061
0.000496901188387157,18.5247861813921
0.000837611883008385,18.5317333711109
0.0011541505232617,18.5384317044732
0.00146334812169302,18.545135344569
0.00175406072703751,18.5515846720048
0.00203577988036555,18.5579585505774
0.00230625792431589,18.5641578215915
0.00257046270860012,18.5702518552225
0.00282911981069609,18.5762112507362
0.00308515138205302,18.58206177521
0.00334006093471289,18.5877981544583
0.00359599603876343,18.5934327800824
0.00383050945263167,18.5984528020424
0.00404354438446028,18.602882998533
0.0042501783263394,18.6070538794974
0.00446326232812809,18.6112163987031
0.00469981424402474,18.6156655112267
0.00496935560094181,18.6205064665355
0.00524839884113775,18.6252510238347
0.00554936431979664,18.6300717785457
0.00581833293848464,18.6341197998045
0.00608360465041957,18.6378788110002
0.00635699851644456,18.6415220475793
0.00664501916288163,18.6451323277428
0.00695324563243003,18.6487617871682
0.00728735538387511,18.6524488686374
0.00765364747662549,18.6562248582884
0.00805955870302297,18.6601179357868
0.00851415578956067,18.6641549795053
0.00902876477775524,18.6683628051879
0.00961784433265256,18.6727690526547
0.0103002598468875,18.6774028440283
0.0110578680326697,18.6820429652534
0.0119106342102146,18.6867316493
0.012873672533049,18.6914583219289
0.0139708938194354,18.6962381528921
0.0152406491861684,18.7011200791893
0.0167553229943418,18.7062323688939
0.0187062894198211,18.7119803363721
0.0206114906876669,18.7169764546923
0.0221996643248357,18.7208659741747
0.0238241688803573,18.724755493657
0.0252182943026193,18.7281848532673
0.0263903001915348,18.73132196123
0.0273550787156374,18.7343433194761
0.0280631226747231,18.7372257538752
0.0285042468164671,18.7400360115229
0.0286659921035857,18.7429049234561
0.0284927790994251,18.7460362398534
0.0277483075223277,18.750083742065
0.0268931706855972,18.752995469956
0.0258223793974266,18.7559071978469
0.0247399092871392,18.7584753220903
0.0236612063671322,18.7608380901842
0.0225820265148529,18.7630923827837
0.0215037422985063,18.7652866449568
0.0204297148673478,18.767449152502
0.0193636759355664,18.7695988146562
0.0183092359635044,18.7717495337662
0.0172697751378255,18.7739122023788
0.0162483960024721,18.7760958419078
0.0152479276919894,18.7783082543253
0.0142709422725194,18.7805564302295
0.0133197411566857,18.7828468963731
0.0123963970519137,18.785185855731
0.011502734947042,18.7875794191993
0.0106403535843128,18.7900337107874
0.00981062986272323,18.7925549945885
0.00901472477069982,18.7951497899103
0.00823938020103464,18.7978769659641
0.00747779318706555,18.8007877666392
0.00673372549891496,18.803903614585
0.00601101581429553,18.8072497513784
0.00531369893075722,18.8108553593028
0.00464595577859261,18.8147543416906
0.00401202966500291,18.8189863791789
0.00341608779625526,18.8235985637115
0.00286201521075469,18.8286481914632
0.00235314681524216,18.8342077870243
0.00189204784631244,18.8403731877002
0.00148303403757207,18.8472266281114
0.00113925382437986,18.8546081443716
0.000853871201822619,18.862624885192
0.000620348211173097,18.8714210607564
0.000432675125208037,18.8811868978915
0.00029649319471915,18.8911868978915
0.000202874451679718,18.9011868978915
0.000141759059251098,18.9111868978915
0.00010050641666068,18.9211868978915
7.21625051291055e-05,18.9311868978915
5.28138808012561e-05,18.9411868978915
3.9947895945228e-05,18.9511868978915
3.17439728181975e-05,18.9611868978915
2.68399505888628e-05,18.9711868978915
2.42428550827437e-05,18.9811868978915
2.32553198066021e-05,18.9911868978915
2.33996204565548e-05,19.0011868978915
2.43510641570833e-05,19.0111868978915
2.5888356523425e-05,19.0211868978915
2.78601683040289e-05,19.0311868978915
3.04499324920033e-05,19.0411868978915
3.38226814432299e-05,19.0511868978915
3.76526037792748e-05,19.0611868978915
4.1748211870879e-05,19.0711868978915
4.6023443801172e-05,19.0811868978915
5.04462683184768e-05,19.0911868978915
5.50126616196213e-05,19.1011868978915
5.97334670894489e-05,19.1111868978915
6.4627824622239e-05,19.1211868978915
6.97199725832819e-05,19.1311868978915
7.50378019489548e-05,19.1411868978915
8.06123413742368e-05,19.1511868978915
8.64777585043038e-05,19.1611868978915
9.2671671223595e-05,19.1711868978915
9.92356710492679e-05,19.1811868978915
0.000106216019248855,19.1911868978916
0.000113664509739121,19.2011868978916
0.000121639514408002,19.2111868978916
0.000130207243138335,19.2211868978916
0.000139443266515507,19.2311868978916
0.000149434366674971,19.2411868978916
0.000160280803278511,19.2511868978916
0.00017209910965034,19.2611868978916
0.000185025571749928,19.2711868978916
0.000199220594181602,19.2811868978916
0.00021487422902327,19.2911868978916
0.000232213244086274,19.3011868978916
0.000251510251235235,19.3111868978916
0.000273095624151714,19.3211868978916
0.000297373242387596,19.3311868978916
0.00032484155939274,19.3411868978916
0.000355249074178865,19.350911677059
0.000387019605475389,19.3598292250802
0.00041990229648361,19.3679883938168
0.000453744908879588,19.375456728462
0.0004884231220683,19.3822969756407
0.000523818035559477,19.388566566527
0.000559810704623558,19.3943180619861
0.000596280786018467,19.399599553277
0.000633115476567918,19.4044550311503
0.000670207023368072,19.4089247901783
0.000707463779928598,19.4130457462511
0.000744804393505959,19.4168517995622
0.000782168821493265,19.420374150326
0.000819517762389173,19.4236416441293
0.000856833481930199,19.4266811115063
0.000894131373563946,19.4295177533788
0.000931461621971029,19.4321755795942
0.000968918550046266,19.4346779740593
0.00100666230478858,19.4370484842028
0.0010449454302664,19.4393120639837
0.00108416661981781,19.4414972911414
0.00112499543741266,19.4436409371481
0.00116867725561582,19.4457993728383
0.00121805615811327,19.4480869096033
0.00128414703731569,19.450922430831
0.00132920290364469,19.452721148899
0.00137693047106816,19.454519866967
0.00142266630243069,19.4561490162741
0.0014678952693194,19.457676412583
0.00151562266422811,19.4592049295544
0.00156933221121558,19.460830992024
0.00163555230820943,19.462710858101
0.00173693743894621,19.4653515768566
0.00189186297123562,19.4689171126306
0.00204214882070054,19.4719312534281
0.00220605420213774,19.4748262474338
0.00242048354325027,19.478140955013
0.00274588459155932,19.4824394810843
0.00321701974009439,19.487604617269
0.00372362628527379,19.4921675631134
0.0042811368926281,19.4963131580623
0.00489148093993633,19.500058947275
0.0055586441327862,19.5034442438822
0.00628700765446451,19.5065107409629
0.00708053963734471,19.5092958226454
0.00794387045636075,19.511835671577
0.0088835382188978,19.5141663092499
0.00990839485107083,19.5163217558093
0.0110299377881083,19.5183331094827
0.0122638097008005,19.5202299380131
0.013633973359376,19.5220440372579
0.0151562424633252,19.5237876877639
0.0169043371504849,19.5255245414213
0.0189442672415971,19.5272822036542
0.0212991803135221,19.5290409519798
0.0239436018236365,19.5307548046875
0.0268215557925999,19.5323782850015
0.0298976276724513,19.5338943031765
0.033175349911582,19.5353099685139
0.0367020252779812,19.5366469715714
0.040495738125774,19.5379101716373
0.0446328160808839,19.5391201215024
0.0491591313602846,19.5402821817685
0.0541066036052477,19.54139679156
0.0595505422637624,19.5424727871107
0.0655491167353889,19.5435125915928
0.0721769821939347,19.5445199109602
0.0795219026855901,19.5454983515566
0.0876812116889362,19.5464506859621
0.0967795006931793,19.5473806723715
0.106965736357558,19.5482919222477
0.118423054201206,19.549188276101
0.131378723928869,19.5500738848539
0.146125985430757,19.5509538020492
0.163039745006215,19.5518337069758
0.182613558512701,19.5527204920854
0.205518528105541,19.5536230286342
0.232338015225551,19.5545417301189
0.263220516825955,19.5554637151012
0.29894646891336,19.5563984704
0.34061309268329,19.5573619769943
0.390137785009304,19.5583889873336
0.426145090907343,19.5590870056816
0.463023824185865,19.5597850240295
0.495810888318708,19.5604141283774
0.524607931039181,19.5609985765369
0.549767080982883,19.5615663872007
0.571112774400192,19.562140728803
0.587944829554787,19.56274826557
0.598639715649626,19.56343376402
0.599469989719516,19.5641841475865
0.588302587594086,19.5649625028689
0.563703045676154,19.5657900794368
0.52527263089351,19.5666509775134
0.472826297040674,19.5675412653252
0.420593359395948,19.5682751606588
0.370520642650625,19.5688976189104
0.316059393817597,19.5695200771619
0.268669230229659,19.5700358547753
0.228623700431621,19.5704651083129
0.193730284863675,19.5708425181538
0.162630804658468,19.571188338499
0.134526700950539,19.5715148670753
0.108876502345231,19.5718310328258
0.0852379917967445,19.5721449696638
0.0631361902283664,19.5724667417332
0.0417610772452344,19.5728156626773
0.022212367705228,19.5731830652512
0.0124354506164739,19.5733916587771
0.00357492288238795,19.573600252303
-0.00323176814762564,19.5737765655051
-0.00946381207552799,19.5739534360758
-0.0157759432511905,19.5741515414593
-0.0219033090290799,19.5743673346809
-0.0276748453930315,19.574598615247
-0.0329948616613754,19.5748445674867
-0.0378131471567157,19.5751052996149
-0.0421070693864085,19.5753815829998
-0.0458710096467534,19.5756747261446
-0.0491099100600445,19.5759865318945
-0.0518289993523263,19.5763193120049
-0.0540633910740176,19.5766815521988
-0.0557501480792739,19.5770624618073
-0.0569656862115394,19.5774747502277
-0.0577251043552558,19.5779239681214
-0.0580396109154808,19.5784170373897
-0.0579150052015341,19.5789629355447
-0.0573473726903714,19.5795748191887
-0.0563178114041878,19.5802703889315
-0.0547834781261784,19.5810761180596
-0.052651479995646,19.5820376200279
-0.049682109797892,19.5832574370328
-0.0460527808103339,19.5846757991447
-0.0424814685485926,19.5860485603192
-0.0390331668247781,19.5873815480976
-0.0357428932296929,19.5886770602588
-0.0326308894198971,19.5899358657912
-0.029708946597236,19.5911579670305
-0.0269831609202264,19.5923430029616
-0.0244553529899601,19.5934904623729
-0.0221239582988369,19.5945997947739
-0.0199846962542854,19.5956704641867
-0.0180311363926425,19.5967019691546
-0.0162552046406467,19.5976938414393
-0.0146476416931134,19.5986456302947
-0.0131984144375575,19.5995568761273
-0.0118173970861152,19.6004822038495
-0.0104956590996293,19.6014314108584
-0.00923763972578375,19.6024063177942
-0.00804754065941231,19.6034091342412
-0.00692939608918611,19.6044424621956
-0.00588703143883263,19.6055093947967
-0.00492402408217771,19.6066136466495
-0.00404366677371889,19.6077597305218
-0.00324893600219189,19.6089532027887
-0.00254246854542759,19.6102010142443
-0.00192655148245919,19.6115120288895
-0.00140313486394949,19.6128978235265
-0.000973884631978604,19.6143739851569
-0.000640312763182948,19.6159623592818
-0.000413543471748623,19.6176045294499
-0.000282647968252797,19.6192997568704
-0.000234622198238141,19.6210665661366
-0.000258158933987945,19.6229282743718
-0.000343543402700555,19.6249166028913
-0.000482807576962597,19.6270776824179
-0.000670301540056631,19.6294851381362
-0.000904506358607911,19.6322748025214
-0.00119545214118407,19.6357773410371
-0.00148363049522305,19.639551923336
-0.00175754064761336,19.6437271594253
-0.0019668559729861,19.6477055158653
-0.00210555558371685,19.6512774399169
-0.00218862462723961,19.6546659621817
-0.00222004486949208,19.6580694351358
-0.00219262731784498,19.6617426572998
-0.0020930942660854,19.665682160748
-0.00193260487269184,19.669494112726
-0.00171933835049204,19.6732716167245
-0.00150174769767918,19.6764924138716
-0.001275260173118,19.6794878518667
-0.00103816242519887,19.6823858868756
-0.000790008150556521,19.68524860353
-0.000530598633597813,19.6881142473855
-0.000259738396175395,19.6910100253497
2.28305258439714e-05,19.6939571762243
0.000317468954170904,19.6969735639709
0.000624674734763477,19.7000751708377
0.00094509083436828,19.7032767798341
0.00127953728523536,19.7065925737737
0.00162904519985597,19.7100365160649
0.00199490203859302,19.7136226438935
0.00237871465531883,19.717365323593
0.00278250087587765,19.721279518854
0.00320882455039914,19.7253811075954
0.00366099414300541,19.7296872532049
0.00414334821782355,19.7342167703515
0.00466166092686443,19.7389903849743
0.00522372020692572,19.7440308723527
0.00579815301207603,19.749004306105
0.0063898943017476,19.7539129392424
0.00700433292630302,19.7587569806307
0.00764773266837423,19.7635382400971
0.00832706868970268,19.7682582677483
0.00905002866422475,19.772917859507
0.00982795095627817,19.7775334566754
0.0106869349225825,19.7821872008312
0.0116421673006119,19.7868722358679
0.0127173475759396,19.7916074034514
0.0139458920109476,19.7964288880551
0.0153839716160857,19.8014234909952
0.0171543604506386,19.8068302074733
0.0196218265969751,19.8134166136015
0.0212587911679525,19.8174087809148
0.0229486485839322,19.821400948228
0.0244186242963694,19.8249272705783
0.0256564804715911,19.8281121553839
0.0266866154185248,19.8311481541972
0.0274752742179301,19.8340695550514
0.0279959080265482,19.8368916322752
0.0282426772477533,19.8397389327957
0.0281751635206852,19.842786919427
0.0276397339392509,19.8464829969833
0.0268346572214855,19.8496143659476
0.0257631904905917,19.852745734912
0.0246867328161304,19.8554139250944
0.0236190245383684,19.8578257267215
0.0225506340862069,19.8601098501724
0.0214817346734864,19.8623245961164
0.0204155486428699,19.8645020985492
0.0193558625617703,19.8666632579011
0.0183063906776943,19.8688231592211
0.0172706076568625,19.870993512444
0.0162517063337918,19.8731839446729
0.0152526008469421,19.8754027460362
0.0142759311495443,19.8776573623506
0.0133240818180561,19.8799547087849
0.0123991894905279,19.8823014183211
0.0115031532337368,19.8847040283986
0.0106376483953585,19.887169122732
0.00980412982920448,19.8897034809664
0.00900384345344103,19.8923141963665
0.00823581657147272,19.8950161838868
0.00748092908104137,19.8978990333806
0.00674306069817285,19.9009830541204
0.00602599778106221,19.9042928369492
0.00533372456279379,19.9078567714508
0.00467037954831569,19.9117077652991
0.00404017354841842,19.9158842433142
0.00344726198276204,19.9204316314202
0.00289555513502573,19.9254048337805
0.00238844591544951,19.93087289025
0.00192857881789701,19.9369265227064
0.0015178139077004,19.9436884490281
0.00117119090190959,19.9509936400823
0.000883788644365588,19.9589166343173
0.000649024274240656,19.96759568589
0.000460817557191621,19.9772134242419
0.000322714359823431,19.9872134242419
0.000257091426029124,19.993606712121
0.00020482095473714,20
