ecg,time
0.00110534582633511,15.0050973661707
0.00125131884059146,15.0102512970577
0.00141689080763756,15.0150221775822
0.00160468194036641,15.019440829252
0.00181766152653355,15.0235359857506
0.00205919915881823,15.0273344479562
0.00233312404338246,15.030861230717
0.00264380070188579,15.0341397177721
0.00299622210210034,15.0371918231042
0.00339612913771335,15.0400381531973
0.00385016780528753,15.042698187851
0.00436610089525527,15.0451904929768
0.00495310406393649,15.0475329766916
0.00562219590569297,15.0497432268392
0.00637021904176307,15.0517972061551
0.00719564153247692,15.053695001069
0.00810950839235481,15.0554686795666
0.00912828489903028,15.0571503496627
0.0102781076947076,15.0587755236021
0.0116067000180172,15.0603927807365
0.0132988512733264,15.0621680513667
0.0158811535481669,15.0644819011438
0.0175335357182857,15.0658103023995
0.0192657804005192,15.0671387036551
0.0208442102091307,15.0683364497333
0.0222593418777037,15.0694423086278
0.0235298025893783,15.0705094009763
0.0246504381623817,15.0715765910905
0.0255984452270013,15.072683291551
0.0263289703004856,15.0738865958991
0.0267454733847257,15.0753102829323
0.0264538871018737,15.0774930846733
0.025710154059466,15.0789461085753
0.0246337475960143,15.0803991324774
0.0234003566123823,15.0817678241468
0.0220124741548867,15.08315176394
0.0204790678743496,15.0845975355082
0.0188079003367531,15.0861429310447
0.0177152901986787,15.087158677188
0.0166581518664481,15.0881744233313
0.0141496960403446,15.0908012200924
0.011681147546003,15.0937858975687
0.00970339560318214,15.0965920715841
0.00814684114127672,15.0991757237565
0.00686184610537647,15.1016602403338
0.00574218244698744,15.1041866154576
0.00478305958686212,15.1067232602515
0.00393112363451968,15.109380200193
0.00317650800847049,15.112182851345
0.00264895021212755,15.1144939101091
0.00219438994178264,15.1168049688732
0.00185900772543926,15.1187620170561
0.00158694054970987,15.1205532401733
0.00134734739379911,15.1223216847385
0.00112340303754948,15.1241781717349
0.000899736882249206,15.1262826354535
0.000645729207079972,15.1290765431244
0.000341362427506771,15.1332588246473
0.000140687986391033,15.1368245324043
-5.21554478857798e-06,15.1401158139589
-0.000130279013678139,15.1437895642085
-0.000238281373756635,15.1484109656824
-0.000299076557827501,15.1537179623839
-0.000292479526222581,15.1584014130463
-0.000227141013456272,15.1626727226364
-0.000104520719929435,15.1665488468734
7.63721563305324e-05,15.1700705849069
0.000318667922372617,15.1732877389779
0.000627509228388374,15.1762508857019
0.00101050830864851,15.1790109166021
0.00147977704948493,15.1816248235264
0.00205509315579524,15.1841579641576
0.0027685244779084,15.1866859064677
0.00368075945286586,15.1893225472275
0.00488933547655813,15.1921959983814
0.00641933273188062,15.1952099849792
0.00796730541421699,15.1977784888204
0.00943642495963103,15.1998732241372
0.010913549825603,15.2017012922979
0.0124750545806255,15.2033802794157
0.0141842445329827,15.2049722326595
0.0160453387023088,15.206468830975
0.0181197307593075,15.2079058007945
0.0204295940774979,15.2092812152559
0.0230189837234098,15.2106051042362
0.0259232635654538,15.2118792818103
0.0291827596658919,15.2131063678418
0.0328463403514784,15.2142902531949
0.0369648891043706,15.2154332739927
0.0415995892672843,15.2165386900497
0.0468234672817514,15.2176101868972
0.052721031044098,15.2186512002278
0.0593931355476815,15.2196653756794
0.0669611696419883,15.2206565811516
0.0755769688842869,15.2216294254044
0.0854285621852008,15.2225888737992
0.096755869514097,15.2235407312858
0.109873453379237,15.2244920840712
0.125207724054678,15.2254520011564
0.143368620354586,15.226433104174
0.164769045564383,15.2274318339477
0.189597597080524,15.2284372214133
0.218550893110356,15.2294616663443
0.252596595004966,15.2305235206959
0.29327172264484,15.2316553121838
0.328451541677469,15.2325563820114
0.365296136175361,15.233457451839
0.39803338706719,15.2342497306574
0.426647151521651,15.2349628834851
0.451645472177652,15.235632757166
0.473068059640359,15.2362843736614
0.490571189746171,15.2369391896985
0.503368036431702,15.2376208949163
0.50990139894702,15.2383634191134
0.50722761812824,15.2391808109241
0.49335115217852,15.240015250711
0.466985856219449,15.2408819706627
0.426501346489634,15.2417920570809
0.370102695055783,15.2427545967083
0.327646976160567,15.2433666151232
0.280956632481111,15.243978633538
0.239135182920789,15.2444961487369
0.202978565281024,15.2449337157558
0.171029674166065,15.245321655322
0.142309765644355,15.2456785033652
0.116212981890157,15.2460159286777
0.0923137227746362,15.2463425420414
0.0702576537142381,15.2466661280259
0.0496672590981658,15.246995951728
0.0299396030465605,15.2473483260651
0.00907444989987853,15.2477794155218
-0.000727013233596513,15.2480123508931
-0.00954063938636762,15.2482452862645
-0.0159991848117028,15.2484342727754
-0.0219211638243837,15.2486249716744
-0.0278449876090678,15.2488369928248
-0.0335382262216956,15.2490669105196
-0.0388533958470489,15.2493126748646
-0.0437093730265867,15.2495736136379
-0.0480645662847059,15.2498499699211
-0.0518951217867112,15.2501426474301
-0.0552327004576094,15.2504577166123
-0.0579667810982175,15.2507852840882
-0.060190530173508,15.2511347263012
-0.0619181151561251,15.2515091623698
-0.0631635840472895,15.251912319139
-0.0639401652962407,15.2523487998593
-0.0642587613569959,15.2528243474378
-0.064126269511142,15.2533462380785
-0.0635430963063814,15.2539241510955
-0.0624976651003794,15.2545720780604
-0.060962876518235,15.255308476378
-0.0588842235115636,15.256161456881
-0.0561481172105864,15.2571801154925
-0.0524580088924214,15.2584786392894
-0.0484241567235336,15.2598659221219
-0.0445336766509395,15.2612075161845
-0.0408313349770797,15.2625078048519
-0.0373385365707261,15.263769059496
-0.0340658447583376,15.2649921426486
-0.0310173091699325,15.2661772003337
-0.028192485856135,15.2673240315548
-0.0255875780405382,15.2684322824437
-0.0231962125872765,15.2695015455852
-0.0210100500128082,15.2705314056966
-0.0190193047833346,15.2715214532021
-0.0172132034223875,15.2724712773386
-0.0155803890163735,15.27338044515
-0.0140123162642141,15.2743075398261
-0.0125051244973856,15.2752585623516
-0.0110629088308193,15.2762353889942
-0.0096895250428043,15.2772402550369
-0.00838860729587641,15.2782757932141
-0.00716351608923413,15.2793451339708
-0.00601728397136406,15.2804520382829
-0.00495255838058483,15.2816010779381
-0.00397154110507536,15.2827978863248
-0.00307592318423036,15.2840495175352
-0.00226681287432442,15.2853649786141
-0.00154465209900523,15.2867560522067
-0.00090911244373314,15.2882386361185
-0.000358952203112265,15.2898350755095
8.51420553901689e-05,15.2914803623745
0.000436535866428977,15.2931799043306
0.000710838123961067,15.2949523278733
0.000922518146515724,15.2968213875768
0.00108539976770412,15.298819512825
0.00121321824799307,15.3009940990508
0.00132056674857239,15.3034213426258
0.00142507100622091,15.3062435611735
0.00155527620479841,15.3098168274963
0.00170917554349573,15.3136042036985
0.00189960843326435,15.3176901780581
0.00210334413015965,15.3216244044248
0.00231761668818533,15.3255031513151
0.00254031782095743,15.3293924374519
0.00277050737170858,15.3333391850125
0.0030085279803594,15.3373812450079
0.0032558510672961,15.3415522715314
0.00351487347797316,15.3458844419756
0.00378874730106614,15.3504102500152
0.00408131370308997,15.3551640895532
0.00439720066448509,15.3601836653446
0.00474217382700624,15.3655113056975
0.00510397786607768,15.3709017996566
0.00547459470068521,15.3761928858127
0.00585875879841973,15.3814131673441
0.00625839560273704,15.3865441679384
0.00667775260334033,15.3915954489075
0.0071211938430421,15.3965730697604
0.00759360633594754,15.4014842566476
0.00810017363116858,15.4063337520421
0.00864649034045984,15.4111242841401
0.00923864091975586,15.4158565742013
0.00988332726131036,15.4205298368449
0.0105899584434916,15.4251545503268
0.0113833276185168,15.429816823341
0.0122780263515634,15.4345079801773
0.0132970672242877,15.4392466969927
0.0144730716058524,15.4440690111974
0.0158609698061845,15.4490612759952
0.0175806118598185,15.454460048662
0.0199980754753546,15.4610493118535
0.0216104527280452,15.4650462604604
0.0232792373535226,15.4690432090673
0.0247320253379367,15.4725705449633
0.0259555342461078,15.4757539287551
0.0269733989689278,15.4787868008432
0.0277522837226763,15.4817058315293
0.0282646486952905,15.4845240315295
0.0285043519390588,15.4873653241574
0.0284311333315939,15.4904031347366
0.0278940761846709,15.4940734950659
0.0270812671821351,15.4972158383077
0.0259989720790244,15.5003581815496
0.0249144710618172,15.5030284785524
0.0238404038675204,15.5054388248418
0.0227663704668117,15.507720213529
0.0216921996491703,15.5099315541715
0.0206209560000823,15.512105189522
0.0195563285806179,15.5142621191959
0.0185019578604362,15.516417493986
0.0174612558414396,15.5185830818877
0.0164373590699154,15.5207685713104
0.0154331254236171,15.5229823334054
0.0144511422512739,15.5252319117873
0.0134937367913476,15.527524362422
0.0125629907334992,15.5298664961469
0.0116607463727842,15.5322650884367
0.0107886179782076,15.5347270471448
0.0099480046794135,15.5372595593778
0.00914009410526637,15.5398702615874
0.00836587657784793,15.542567385995
0.00760477215218715,15.5454442205473
0.00686039814490072,15.5485219606871
0.00613653881016108,15.5518252326137
0.0054371796377416,15.555382499604
0.00476647181496381,15.5592267625511
0.00412865787588419,15.5633965215976
0.0035279524997647,15.5679371722062
0.00296835819622116,15.57290332296
0.00245339387300128,15.5783631633292
0.00198584376684464,15.5844057178892
0.00156769022063936,15.5911509505474
0.00121419016497175,15.5984346388042
0.000933024438436184,15.6064220246425
0.000760472863149189,15.613265930477
0.000594544518293741,15.6220352414495
0.000471376323099987,15.6310526665689
0.000375951375532275,15.6410526665689
0.000312526119733406,15.6510526665689
0.000272110494534178,15.6610526665689
0.000248145358820113,15.6710526665689
0.00023599754940651,15.6810526665689
0.000232536508515193,15.6910526665689
0.000235738606159988,15.7010526665689
0.000244367478148686,15.7110526665689
0.00025775319396579,15.7210526665689
0.000275659563793783,15.7310526665689
0.000298218481608938,15.7410526665689
0.000325915940722928,15.7510526665689
0.000359625510584403,15.7610526665689
0.000400697057290121,15.7710526665689
0.00045052280724081,15.7809421525462
0.000507443719304067,15.7901137304326
0.000572090532511591,15.7985968896473
0.000645399439239278,15.8064423237792
0.000728500354595493,15.8136980136603
0.000822697948538306,15.8204086150892
0.000929477728407953,15.8266157174352
0.00105052479904269,15.8323580863821
0.00118774882503298,15.8376718641767
0.00134331324390263,15.8425907404581
0.00151966750339034,15.8471461229987
0.00171958682069795,15.8513673041228
0.001946217278398,15.8552816157148
0.00220313036708238,15.8589145689711
0.00249438946634378,15.8622899995898
0.00282463145556894,15.865430221077
0.003199171404419,15.868356178847
0.00362413561269535,15.8710876131511
0.00410663941093571,15.8736432476773
0.00465503090070078,15.876041011267
0.00527923470256122,15.8782983146818
0.00598994787125838,15.8804288376068
0.00677342819966792,15.882386717075
0.00763830354336195,15.8842035865224
0.00859758952935323,15.8859109537986
0.00967073167074757,15.8875408088105
0.0108899733681904,15.8891310468059
0.0123475654286168,15.8907698900434
0.0142903845145554,15.8926485935831
0.0161275541671183,15.8942122156744
0.0181334279606015,15.8957758377658
0.0199237182113032,15.8971084328643
0.0214830788444638,15.8982674664983
0.0228814119373673,15.8993483866779
0.0241344646656356,15.9004014760871
0.0252325684428608,15.901464248775
0.0261482384721891,15.9025783513679
0.0268280007902337,15.9038100650048
0.0271459691888487,15.9053247062537
0.0268225674502456,15.9070791515463
0.0258681409015223,15.9088335968388
0.0247388116417969,15.9102613378193
0.0234603892488955,15.9116220894204
0.0220274997234838,15.9130107363774
0.0204479913997167,15.9144713104158
0.0187280909259108,15.9160425964861
0.0180648987839631,15.9166528556673
0.0174141757442901,15.9172631148486
0.0149204351507957,15.9197775434415
0.0122646419718246,15.9228602831556
0.0101536422056933,15.9257445630309
0.00851354628061482,15.9283731793957
0.00718762984452929,15.9308506328936
0.006035204870685,15.9333617347342
0.00502754565112715,15.9359378508493
0.00414561834872207,15.9386022864927
0.00337442322186823,15.9413781356749
0.00270163346058479,15.9442900121119
0.00230814685080789,15.9462905857895
0.00196282133846505,15.9482911594672
0.00168048633219976,15.9501465823167
0.00143595648004237,15.9519583148101
0.00121111685367138,15.9538380613581
0.000991086850483106,15.9559336241282
0.000751609217592911,15.9586011314594
0.000454133277011061,15.962754873935
0.000255458304592282,15.9663978409909
0.000117383009167929,15.969680702615
4.54678319664884e-06,15.9732619094576
-8.6208568628777e-05,15.977641363054
-0.000131032810761053,15.9829718345205
-0.000106797898680656,15.987651646967
-2.25637426258051e-05,15.9919304823413
0.000119751230313056,15.995819091961
0.000320816503855589,15.9993565475876
0.000583562078140127,16.0025911806795
0.000912773918812473,16.0055701641142
0.00131544577391647,16.008340537162
0.00180235087212178,16.0109533698794
0.00239028143716377,16.0134644424561
0.00310466879150734,16.0159332680184
0.00398302575958796,16.0184226306259
0.00508073499486861,16.0210003692802
0.006413030236492,16.0236162696945
0.00787980676249154,16.0260525684732
0.00938413451142117,16.0281931045145
0.0109169269156695,16.0300780105575
0.0125148392949066,16.0317822041897
0.0142492899122946,16.0333855390617
0.0161468348228447,16.0349017084888
0.0182377845490085,16.0363424531966
0.0205700218479091,16.0377256142587
0.0231686332398773,16.0390501989196
0.026082250876152,16.040325813963
0.0293497211616639,16.0415540963534
0.0330198468716605,16.0427388182296
0.037147915695072,16.0438834886836
0.0417939611430241,16.0449907139954
0.0470318701096467,16.0460641941926
0.0529484303368938,16.0471076093663
0.0596464318893749,16.0481246750628
0.0672496422397064,16.04911932584
0.075911845781677,16.0500961261053
0.0858263808021534,16.0510602995445
0.0972403429711158,16.0520179034097
0.110480051787141,16.0529764268092
0.125993442261595,16.0539456711503
0.144428267058136,16.0549393898968
0.166026231442802,16.0559455145885
0.191112396572531,16.0569606780837
0.220419674264072,16.0579985646254
0.254989380532039,16.0590799695876
0.295998007058334,16.0602287289914
0.330033367589307,16.0611120660035
0.365411438142822,16.0619954030156
0.39698262478343,16.0627809901142
0.424660433225434,16.0634950751196
0.448794969190934,16.0641698173599
0.469340383302726,16.0648288333191
0.485890155714159,16.0654931818739
0.497585367153992,16.0661866917074
0.502752515909969,16.0669439335526
0.498452430877053,16.0677682970833
0.482913130393511,16.06861032357
0.454827155845324,16.0694842909735
0.412591751416063,16.0704005403423
0.354457931396659,16.0713690953269
0.313653665656418,16.0719499380029
0.269281659725595,16.0725307806788
0.229391295299098,16.0730278318545
0.19460095882253,16.0734540816338
0.163679125856164,16.0738356691039
0.135783984368934,16.0741890286014
0.110376269025255,16.0745249013774
0.0870631629531266,16.0748515361088
0.0655026663246878,16.0751767619846
0.0453050718789864,16.0755105270577
0.0257778741133582,16.075872076789
0.00401483762234143,16.0763441912656
-0.00387296205048423,16.076541919045
-0.011071516556497,16.0767396468243
-0.0172641183405624,16.0769263576537
-0.0231799181806027,16.0771228629272
-0.0290437815455347,16.0773400343948
-0.034640896524705,16.0775746359644
-0.0398405998788778,16.0778249293291
-0.0445718490287446,16.0780904510328
-0.0487990587958579,16.0783715926115
-0.0527693924540103,16.0786939721187
-0.0558671787792838,16.0790089162852
-0.0584450506559466,16.0793436754379
-0.060518646744743,16.0797012217045
-0.0621015195204085,16.0800847625647
-0.0632074996537804,16.0804982408406
-0.0638492105962485,16.0809465350485
-0.0640365471928158,16.0814357490945
-0.0637749255294626,16.0819736503257
-0.0630619518300657,16.0825710443029
-0.0618825730340714,16.0832427572897
-0.0602043093660311,16.0840091589048
-0.0579623181427177,16.0849021018977
-0.0550170994123169,16.0859801111303
-0.0509609664504324,16.0873974598865
-0.0469798555294221,16.0887677859114
-0.0431620960467552,16.0900934997772
-0.039541566370197,16.0913785851799
-0.036135180396754,16.0926248195594
-0.0329508575925586,16.0938328208243
-0.0299908245511031,16.0950026252239
-0.0272532638228147,16.0961339916112
-0.0247333076863752,16.0972265605646
-0.0224237513609448,16.0982799340858
-0.0203156307848218,16.0992937096005
-0.0183987212523413,16.1002674860936
-0.016661976260781,16.1012008520778
-0.0150579963280667,16.1021144360097
-0.0135117965837191,16.1030512763319
-0.0120281556892737,16.1040127566795
-0.0106110297810219,16.1050009193353
-0.00926418598411392,16.1060181537819
-0.00799114699720464,16.1070672852389
-0.00679513823257887,16.1081516868026
-0.00567903204825457,16.109275429748
-0.0046452888286567,16.1104434895182
-0.00369589409864322,16.1116620355426
-0.00283228996293163,16.1129388518611
-0.0020552975617458,16.1142839707913
-0.00136502417032707,16.1157106722171
-0.000760742243245556,16.1172371528369
-0.000249106330137703,16.1188593244479
0.000159428286871599,16.1205247743974
0.00048199109641273,16.1222518275738
0.000733662153921847,16.1240607175049
0.000928652992360599,16.1259782539335
0.00108075441064358,16.1280419810164
0.00120402794774815,16.1303087174533
0.00131412745988075,16.1328747138775
0.00143187492338039,16.1359372368258
0.00158148434827668,16.1396709785944
0.00175893059861258,16.1435860566658
0.00196208761630184,16.1475637160963
0.00217906091820979,16.1514715782502
0.00240697591230478,16.1553783774688
0.00264393136821036,16.159334355077
0.00288938760886058,16.1633790878091
0.00314414664858561,16.1675471231491
0.00341015961181244,16.1718710453723
0.00369032364994046,16.1763834624764
0.00398835368508025,16.1811185811573
0.00430881002960078,16.1861136433673
0.00465737221102522,16.1914102455493
0.00502452875303388,16.1968084132113
0.0053990569826216,16.2020982276454
0.00578682700874794,16.207324141563
0.00618926433824156,16.2124603247916
0.00661069522764699,16.2175170567438
0.00705544461894601,16.2224996718901
0.00752841239561158,16.2274154486664
0.00803478911891037,16.2322692344801
0.00858017141215418,16.2370639207063
0.00917063449204404,16.2418003778795
0.00981285765538203,16.2464779311139
0.0105149692234835,16.2510993839065
0.0113027265151591,16.2557596287748
0.0121901411482025,16.2604477239503
0.0131997442994562,16.2651816914638
0.014363094519256,16.2699952167382
0.0157325784884311,16.2749687769344
0.0174194023897762,16.2803187524418
0.0198360867077882,16.2869623539417
0.0214696478749353,16.2910303621113
0.0231668385881619,16.2950983702809
0.0246385212976356,16.2986613382235
0.0258763206231803,16.3018605870589
0.0269078017967926,16.3048987626011
0.0277043835274769,16.3078285041337
0.0282341019637748,16.3106497397034
0.0284923078475787,16.3134852475993
0.0284419594330565,16.3165025167529
0.0279465145397959,16.3201009264409
0.0271423886434449,16.3233048044811
0.0260538309662228,16.3265086825214
0.0249668712744973,16.3292029727596
0.0238926272469286,16.3316230689451
0.0228187485905892,16.3339094291325
0.0217446219880933,16.3361234983951
0.0206732314213029,16.3382985089631
0.0196082585590351,16.3404558781537
0.0185533542716067,16.3426109862251
0.0175119454848488,16.3447757379897
0.016487184524466,16.3469599063335
0.015481944981737,16.3491719138201
0.0144988289326014,16.3514193342189
0.0135401781094161,16.3537092364605
0.0126080880586321,16.3560484313262
0.0117044139398417,16.3584436839312
0.0108307833433484,16.3609018783171
0.00998860697571359,16.363430170106
0.00917908453801722,16.3660361493518
0.00840321693307064,16.3687279912642
0.00764140011109401,16.3715947342732
0.00689610476193971,16.3746612126389
0.00617111964649685,16.3779518005122
0.00547042031840039,16.3814947276641
0.00479815053320846,16.3853227124851
0.00415854990767422,16.3894739037977
0.0035558376333093,16.3939932383462
0.00299403173190455,16.3989346818157
0.00247668163845863,16.4043654355955
0.00200661098832836,16.4103730004392
0.00158583680689798,16.4170750846096
0.00122880468790582,16.4243284080986
0.000944290844913582,16.4321874207254
0.000747495653110453,16.4398695149464
0.00058957847526483,16.4482276270845
0.000462651399412871,16.4574575131254
0.000366737503755131,16.4674575131254
0.000302560533283696,16.4774575131254
0.000261165177479514,16.4874575131254
0.00023601081566187,16.4974575131254
0.000222455570003643,16.5074575131254
0.000217338347838252,16.5174575131254
0.000218588280472107,16.5274575131254
0.000224905160639306,16.5374575131254
0.000235534174131092,16.5474575131254
0.000250125200275989,16.5574575131254
0.000268655205207044,16.5674575131254
0.000291396425554659,16.5774575131254
0.000318922378388371,16.5874575131254
0.000352152950999981,16.5974575131254
0.000392448995271942,16.6074575131254
0.000441297891479895,16.6173669694508
0.000497045095125706,16.6265603698132
0.000560332876128679,16.6350660089125
0.000632093893077596,16.6429341108851
0.000713444861434643,16.6502123133973
0.000805671079196656,16.6569450092818
0.000910233746961782,16.663173584049
0.00102878901606122,16.6689366441616
0.00116321267215076,16.674270208119
0.00131562892387149,16.6792078703445
0.00148844191606895,16.6837809646896
0.00168437446317099,16.6880187243369
0.00190651172896046,16.6919484322865
0.00215835423639671,16.6955955582095
0.00244388178871105,16.6989838992938
0.00276763201689697,16.7021357285049
0.00313480046634996,16.7050719443143
0.00355136725502541,16.7078122278187
0.00402426543985885,16.7103752225743
0.00456161007306183,16.7127787444567
0.00517301880619947,16.7150400400775
0.00587008263119214,16.7171761352102
0.00664119660176675,16.7191440012213
0.00749175865607216,16.7209663348359
0.00843373331051693,16.7226741541517
0.00948477976540104,16.7242984204314
0.0106733434929352,16.7258743042913
0.0120707775673894,16.7274712475874
0.0138776416775534,16.7292496368302
0.0159256088336458,16.7310055527466
0.0176615318885307,16.732357441729
0.0194933286151798,16.7337093307114
0.021133223841737,16.7349007208028
0.0225997536343982,16.735992838686
0.0239187067328106,16.7370428273711
0.025087360297012,16.7380898883606
0.0260845673168217,16.7391723712979
0.0268678910965744,16.7403441373737
0.0273479781738529,16.741717297031
0.0271768105708819,16.7437956059679
0.0264829697486847,16.7452519448465
0.0254253995761675,16.7467082837251
0.0242023884979569,16.7480648397094
0.0228177759381591,16.749431268086
0.0212801783813166,16.7508569522804
0.0195975610027551,16.752379980932
0.0184556778193678,16.75341601321
0.0173419059351456,16.7544520454881
0.0159981325606782,16.7557698663287
0.0133485066929118,16.7586501356451
0.0109861924374198,16.7616515407624
0.00916220701645191,16.7643778241311
0.00771680177518156,16.7669021611383
0.00649304666316487,16.7693929540472
0.00542496880921441,16.7719363022845
0.00452738453975448,16.7744447511967
0.00376117167588072,16.7769599648632
0.00307717610763212,16.7796123886745
0.00243945816170057,16.7825780952897
0.00204892945834846,16.7847241496411
0.001709175745942,16.7868702039924
0.001446089997992,16.7887649531767
0.00122919680270338,16.7905233027817
0.00103642795850224,16.7922739062404
0.000854614983946012,16.794129101671
0.000670749545537789,16.7962635978919
0.000454424773849644,16.7992257864513
0.000215283174183738,16.803361383498
6.31579932595092e-05,16.8067876764968
-4.88676958488923e-05,16.8100366588378
-0.000142956290127124,16.8137251750033
-0.000216736851011004,16.8184065884796
-0.000239999659777371,16.8236225706372
-0.000202040843409997,16.8282496028004
-0.000107650607878732,16.8324655678757
4.26856573455143e-05,16.836286566935
0.000250888528517064,16.8397599670915
0.000520144775686835,16.8429284098375
0.000855568226204114,16.8458407600043
0.00126458619765352,16.8485461337089
0.00175822405067069,16.8510953953132
0.00235293354370855,16.8535417555914
0.00307529542595928,16.8559480130244
0.00397271521465479,16.8584001796447
0.00511177779409025,16.8609770071265
0.0065269753476778,16.8636485003202
0.00808851762832901,16.8661366893618
0.00965228985326231,16.868270467415
0.0112241897426172,16.8701268086609
0.0128662320153696,16.8718110301572
0.0146380157749661,16.8733876379434
0.0165901618628811,16.8748901811294
0.0187315727854916,16.8763120545334
0.0211209734215359,16.8776783424578
0.0237872079513644,16.8789891956339
0.0267755697155917,16.8802514600855
0.0301298934910373,16.8814682633343
0.0338953810266065,16.8826414596029
0.0381310989670472,16.8837753530149
0.0429008056625282,16.8848729369605
0.0482768352665171,16.8859369951681
0.0543506139912992,16.8869716425621
0.0612285014910529,16.8879806023743
0.0690396303912931,16.8889679335902
0.0779422123009573,16.8899380439525
0.0881368554492498,16.8908961872517
0.0998811235580069,16.8918485286526
0.113515210596426,16.8928026434869
0.129507029034677,16.8937684674501
0.148536233296294,16.894760047479
0.170758756856101,16.8957610846852
0.196575076436341,16.8967719322916
0.226743117761987,16.8978063913678
0.262345085381815,16.898885670041
0.304392656005005,16.9000289872118
0.347086564356061,16.9011021814817
0.382423023549293,16.9019618208087
0.412784299699431,16.9027086158389
0.439337066334144,16.9033966311702
0.46235100021055,16.904055618936
0.481652264492822,16.904707858468
0.496677482827039,16.9053751975281
0.506295911747829,16.906085240936
0.508190520110021,16.9068838589541
0.499503997317753,16.9077095234336
0.478987176866715,16.9085606273916
0.445155861693909,16.9094501182579
0.396283386885934,16.9103872980672
0.351784250015106,16.9110830033147
0.301164470477196,16.9117787085623
0.255957568139202,16.9123514455474
0.217550095835334,16.9128203108256
0.183999760816117,16.9132270819709
0.154031788764056,16.9135958776283
0.126908421841189,16.9139407633347
0.102145544758357,16.91427133687
0.0793707172610155,16.9145954940779
0.0582320572429625,16.9149214840733
0.0382696664019527,16.9152613387628
0.0184444454593475,16.9156440766671
0.00183020936964522,16.9160170138654
-0.00575095116059871,16.9162099203234
-0.0126742199477376,16.9164028267814
-0.0186659766551456,16.9165859716629
-0.0246158276096247,16.9167866352018
-0.030457377686673,16.9170070651947
-0.0359938858440216,16.9172443075004
-0.0411110352111375,16.9174969813171
-0.0457475020895135,16.917764855109
-0.0498730754247519,16.9180484813004
-0.0537463668849786,16.9183754115359
-0.056737144977153,16.9186936333191
-0.0592088570252931,16.9190321583397
-0.0611779066514943,16.9193941066094
-0.0626581748618541,16.9197828437228
-0.0636634502610318,16.9202025109702
-0.0642059539147568,16.9206582457244
-0.0642947754024178,16.9211565016529
-0.0639340085602198,16.9217055374594
-0.0631185440363584,16.9223172271159
-0.0618298142194036,16.9230073622288
-0.0600291810955515,16.9237984527648
-0.0576390012644957,16.9247268199165
-0.0544841410176125,16.9258634932117
-0.0504044202020191,16.9272779612479
-0.0464381793771269,16.9286406090498
-0.0426435050651762,16.9299599104503
-0.0390499740011631,16.931239275339
-0.0356725221041784,16.9324801411819
-0.0325179505364669,16.933682943577
-0.029587763007414,16.9348476210616
-0.026879631775827,16.9359738804525
-0.0243883125788012,16.9370613350481
-0.0221063208901808,16.9381095726209
-0.0200244901218367,16.9391181825521
-0.0181324579183745,16.9400867577273
-0.0164190956735495,16.9410148797211
-0.0148234548175211,16.9419313428081
-0.0132862994951516,16.9428712038406
-0.0118122545086618,16.9438359530167
-0.0104052556722221,16.9448276723468
-0.00906904308977129,16.9458488015034
-0.00780710655929429,16.9469022286468
-0.00662263243791885,16.9479914067136
-0.00551844764493517,16.9491205097008
-0.00449696052195426,16.9502946475312
-0.00356009768154563,16.9515201694842
-0.00270923503511872,16.9528051065199
-0.00194511950732098,16.9541598412101
-0.00126777470115914,16.9555981712493
-0.000676376979640065,16.9571391011402
-0.000180930858914328,16.9587657817366
0.000213708194661978,16.9604380571688
0.000524288402501989,16.9621742304693
0.000765733221993699,16.9639952202843
0.00095213703691363,16.9659289070667
0.0010972303486436,16.9680146713673
0.00121510699629393,16.9703128223049
0.00132166295383922,16.9729274233563
0.00143870085985556,16.9760793099481
0.00158567159166757,16.9798145258905
0.00176350000961785,16.9837818616774
0.00196950736601444,16.9878576603405
0.00218481068151081,16.9917860513235
0.00240738041362726,16.9956640790563
0.00263618437711518,16.9995560490475
0.0028713187834068,17.0035080477721
0.00311396790617205,17.0075575376676
0.00336623096358391,17.0117379806012
0.00363095000114059,17.0160814634934
0.00391159430369119,17.0206204881582
0.0042122583593428,17.0253895325005
0.00453782985898365,17.0304264324133
0.00489441690663149,17.0357736747507
0.00526365185528003,17.0411013005115
0.00564451730458433,17.0463566364096
0.00603952422569557,17.0515335110269
0.0064516492124472,17.0566268370408
0.00688505038267753,17.0616423615873
0.00734438598409248,17.0665868285033
0.00783474788914661,17.0714664181487
0.00836160310679171,17.0762852594883
0.00893086335295265,17.081045393024
0.00954897922652528,17.0857469762386
0.0102230724649803,17.0903888467623
0.0109718390027982,17.0950327227594
0.0118137987492004,17.0997073917107
0.0127676992680991,17.1044191442064
0.0138604677257685,17.1091927576672
0.015133482503924,17.114083671409
0.0166643814291699,17.1192304892268
0.0186653102820834,17.1250843496711
0.0205189175493957,17.1299158388302
0.022097023032684,17.1337685615304
0.0237083581237508,17.1376212842305
0.0250923313651537,17.1410264189128
0.0262581415475038,17.1441519183908
0.0272184112959074,17.1471686634837
0.0279220982939304,17.1500477790798
0.0283597100067087,17.1528588312878
0.0285180750168856,17.1557332011528
0.0283401009854108,17.1588786273176
0.0275783360619627,17.1629826273292
0.026725378444863,17.1658753821464
0.0256624278365301,17.1687681369635
0.0245865608940572,17.171328776282
0.0235133131826545,17.1736898441567
0.0224391326675867,17.1759450579029
0.0213655909708253,17.1781418604744
0.0202960948408705,17.1803081710744
0.0192343571101487,17.1824628153432
0.0181839604582063,17.1846197139804
0.0171482366373137,17.1867898835541
0.0161302394771812,17.1889825295158
0.0151327447821703,17.1912057103595
0.0141582618483348,17.1934667669547
0.013209044318898,17.1957726287731
0.0122870999797934,17.1981300477659
0.0113942048277443,17.2005457760023
0.0105319067306117,17.2030267446485
0.00970154082780312,17.205580200523
0.00890423382367272,17.2082138726359
0.00813382629319745,17.2109624540194
0.00737742358533593,17.2138974465113
0.0066388824012359,17.2170403714754
0.00592204961194404,17.220416940899
0.00523096861322872,17.2240568775295
0.00456982847113651,17.227994698182
0.00394287987433228,17.232270760963
0.00335429559725109,17.2369328814765
0.00280796698032744,17.2420390576738
0.00230720840786997,17.2476627440069
0.00185455430419132,17.2539009286078
0.00145522417113791,17.2608172278178
0.0011203934326922,17.2682722030593
0.000907423013092012,17.2747397953477
0.00071252785887257,17.2827780632306
0.000557472937351622,17.2915381742376
0.000437653546986076,17.3009745805502
0.000349957986944916,17.3109745805502
0.000291759539285032,17.3209745805502
0.000254727147878426,17.3309745805502
0.000232802019892573,17.3409745805502
0.000221723593189523,17.3509745805502
0.000218620091668319,17.3609745805502
0.000221633826626742,17.3709745805503
0.000229624699063282,17.3809745805503
0.000241967501045598,17.3909745805503
0.000258429778128753,17.4009745805503
0.000279109582950334,17.4109745805503
0.000304418563405536,17.4209745805503
0.000335105766119309,17.4309745805503
0.000372327515396346,17.4409745805503
0.000417779958678939,17.4509745805503
0.000470893883394709,17.4604755456161
0.000531368876200629,17.4692716865009
0.000600026407526363,17.477406351248
0.000677921121376631,17.4849289576346
0.000766284373576454,17.4918857832948
0.000866522246855529,17.4983199065475
0.000980230629031664,17.5042714589832
0.0011092177355601,17.5097778465704
0.00125553186290975,17.514873931892
0.00142149162340205,17.5195922073195
0.00160972283363194,17.5239629640901
0.00182320002915567,17.5280144550066
0.00206529778115306,17.5317730413804
0.00233984996250101,17.5352633359514
0.00265122496619489,17.5385083534286
0.00300441886068754,17.5415296659173
0.00340517379570073,17.5443475604225
0.00386013440665286,17.546981215373
0.00437705795655206,17.5494489069629
0.00496510708915005,17.551768257145
0.00563527487094422,17.5539565605067
0.00638410385402796,17.5559893120247
0.00721005975251724,17.5578669130752
0.00812396555505532,17.5596208394124
0.00914186323992352,17.5612824220665
0.0102889892966498,17.5628859370671
0.0116108529621031,17.5644774767519
0.0132832605738384,17.5662134364363
0.0158132409330591,17.5684565678711
0.017500228878059,17.569794224646
0.0192778010900184,17.571131881421
0.020899356037875,17.5723333245391
0.0223509624601457,17.5734355160812
0.0236559450591648,17.5744945214676
0.0248116260297045,17.5755498132524
0.025797123308771,17.5766398305779
0.0265705539128062,17.5778181891961
0.0270441743709457,17.5791954421608
0.026883315068132,17.5812601870029
0.0261996085389208,17.5827300898184
0.0251497013355658,17.5841999926339
0.0239362913193635,17.5855642207329
0.02256379798509,17.5869351328127
0.0210408454818146,17.5883629475921
0.0193756840034,17.5898856269167
0.0182527652843787,17.5909141506841
0.0171567534383801,17.5919426744515
0.0158542495680454,17.5932301227378
0.0132400035029937,17.5960905933986
0.0109009882880161,17.5990785075553
0.00908959237505166,17.6017982058959
0.00765162038591504,17.6043192642473
0.00643068230270199,17.6068128781709
0.00538001609439774,17.6093196164813
0.00449862805937514,17.6117794891998
0.00373900923392116,17.6142613391435
0.00305037182702791,17.616913893054
0.00240776345714527,17.6198788076743
0.00203356760699047,17.6219088272952
0.0017051666510034,17.6239388469161
0.00144339257984392,17.6257706587844
0.00122358534500875,17.6274941301986
0.00102577423965238,17.6292257644363
0.000836897869827125,17.6310787055075
0.000642420716787448,17.6332458389259
0.000401115674358536,17.636429599415
0.00017186362476669,17.6402083998416
1.81788803839148e-05,17.6434018771499
-0.000103893423074937,17.6465718809941
-0.000212022063850407,17.6502259101576
-0.000305339397272891,17.6549024793382
-0.000352642141993603,17.6602056099521
-0.00033723897713565,17.6648901324753
-0.00026547184018737,17.6691583317504
-0.000138101888863197,17.6730201833956
4.66504488957491e-05,17.6765267755722
0.000292022700205566,17.6797232671789
0.000602817262394184,17.6826572197163
0.000986568278791462,17.6853819267395
0.00145457590886831,17.6879519801866
0.00202425581586548,17.6904261177709
0.00272771086016499,17.6928858047623
0.00362244051983605,17.6954384574472
0.00481173043410973,17.6982298569763
0.00635090496345084,17.7012210657519
0.00798253025050405,17.7038845567559
0.00951242694108198,17.7060243465962
0.0110320527746103,17.7078687034857
0.0126114144539094,17.7095361398653
0.0143327890498314,17.7111134879942
0.0162172448434008,17.7126065665199
0.0183087774512463,17.7140353173623
0.0206417566203075,17.715406208191
0.0232524878121151,17.7167239981041
0.0261820778655919,17.7179933300714
0.0294677870245235,17.7192151924808
0.0331607862068922,17.7203942146658
0.0373138208105108,17.7215330220365
0.0419859752430073,17.7226340884393
0.0472522644753468,17.7237014446714
0.0531980040007371,17.7247385012497
0.0599252131688544,17.7257489151292
0.067555801654583,17.7267364482658
0.0762429665065966,17.7277057018249
0.0861762350253731,17.7286616124416
0.0975971281914169,17.7296099307776
0.110821856722768,17.7305576592995
0.126278698937464,17.7315137609113
0.144576473567776,17.7324905438273
0.166148251850686,17.7334853055227
0.19117051526721,17.7344863661151
0.220338961722172,17.7355058261631
0.254615796520224,17.7365615402052
0.295520484245141,17.7376850725432
0.331007654331363,17.738581801282
0.36819699598208,17.7394785300208
0.40118857069372,17.7402654245164
0.429998086994836,17.7409729120072
0.455170398876973,17.7416374210677
0.476758552250425,17.7422841870077
0.494421016408154,17.7429348480897
0.5073632668081,17.743613483921
0.513995345134226,17.7443551458442
0.511321074361683,17.7451692578024
0.497371505626563,17.746001475902
0.470839891820982,17.7468672699179
0.430059576492091,17.7477778731005
0.373194659442112,17.7487421893828
0.330256665216667,17.7493570977504
0.283016222258826,17.7499720061179
0.240761545347109,17.7504910863932
0.204295497698864,17.7509291456147
0.172112250955844,17.7513170370455
0.143203949495629,17.7516735607893
0.116949686808766,17.7520104994729
0.0929153262501112,17.7523365132526
0.070741137441589,17.7526594029176
0.0500458971380819,17.7529884203352
0.0302242886793048,17.7533397981254
0.00928215171629007,17.7537691282088
-0.000624613594964951,17.7540027668494
-0.00952757031271547,17.75423640549
-0.0160037323843512,17.7544246255693
-0.0219404073478913,17.7546144798134
-0.0278817701358117,17.7548256300914
-0.0335939387869237,17.7550546508273
-0.038928347902052,17.7552994878398
-0.04380319709177,17.7555594631544
-0.0481764908684476,17.7558348136603
-0.0520256879193765,17.7561264363427
-0.0554485054944606,17.7564474367675
-0.0581882996195236,17.7567743936571
-0.0604159814831172,17.7571231222035
-0.0621466623142276,17.7574968351143
-0.0633944722045079,17.7578992665852
-0.0641726953725567,17.7583350293149
-0.0644922640157276,17.7588098807875
-0.0643600663250582,17.7593311201921
-0.0637764391972001,17.7599084631552
-0.0627296345707041,17.7605559608559
-0.0611921840984884,17.7612921860067
-0.0591087816041703,17.7621454874978
-0.0563638140686085,17.7631655732153
-0.0526529379019917,17.7644691145096
-0.0486101968505952,17.7658571202123
-0.0447106160112036,17.7671996831966
-0.0409989359822452,17.7685011291817
-0.0374966452140723,17.7697636789414
-0.034214408949515,17.7709881620356
-0.031156383802675,17.7721747016461
-0.0283222290147986,17.7733230800723
-0.0257082410645868,17.7744329308038
-0.0233081262562647,17.7755038367657
-0.0211136086922365,17.7765353754498
-0.0191149498654018,17.7775271322396
-0.0173014071717208,17.7784786934357
-0.0156616394982893,17.7793896252817
-0.0140915257343245,17.780315682132
-0.0125820864183645,17.7812656169056
-0.0111374649700708,17.7822412691053
-0.00976152549322556,17.7832448586323
-0.00845791330084471,17.7842789989684
-0.00723000267375491,17.7853467964542
-0.0060808427339639,17.7864519814308
-0.00501310047946894,17.7875990860765
-0.00402900051372749,17.7887936915161
-0.00313026033984144,17.7900427811841
-0.00231801894311629,17.7913552637196
-0.00159275426954626,17.7927427795556
-0.000954181025634499,17.7942210110489
-0.000401111140725468,17.7958119560025
4.67192079657949e-05,17.7974553018468
0.000401074379988136,17.7991520618625
0.000677647071393543,17.8009208031678
0.000890930445100776,17.8027849841668
0.00105474776107412,17.8047765512846
0.00118279503560098,17.8069420330284
0.00128955243847535,17.8093558562855
0.00139234308187778,17.8121558554054
0.00151859759640232,17.8156803966606
0.00166909578034475,17.8194593348878
0.00186109720525698,17.8236483866072
0.00206709057648873,17.8276774106243
0.00228011333824456,17.8315777026479
0.00249885552997253,17.8354418588486
0.00272294367115918,17.8393293814199
0.00295305465635901,17.8432840416703
0.00319080344999242,17.847342137804
0.00343857429786654,17.8515365867715
0.00369937307256508,17.8558992742293
0.00397675309833347,17.8604628141778
0.00427485675792719,17.8652620650142
0.00459863300429483,17.8703354850571
0.00495432154380172,17.8757264165604
0.00531957256035656,17.881041928489
0.00569799416541466,17.886299564062
0.00609056967505511,17.8914706889478
0.00650096272815688,17.8965598204134
0.00693317701521094,17.9015707757822
0.0073919541592243,17.9065114166122
0.00788235193920303,17.911387554063
0.00840983505603511,17.9162032391952
0.00898030829477873,17.9209603141109
0.00960022863059827,17.9256588011577
0.0102767366010923,17.9302974535087
0.0110296264088926,17.9349438940094
0.0118766620208617,17.9396204564569
0.0128371016423539,17.9443351851005
0.0139384228823599,17.9491138715296
0.0152232945276893,17.9540149103533
0.0167730194164111,17.9591854472208
0.0188176637704218,17.9651184932022
0.0206348521317378,17.9698269191037
0.0225748257864191,17.9745353450052
0.0241660054090106,17.9783521183596
0.0254808440573016,17.9816537133005
0.0265827498339595,17.9847300269399
0.0274727500963791,17.9877259137052
0.0280924778533325,17.9905715697014
0.0284446231623533,17.9933869099044
0.0285062805011953,17.9963169440428
0.0281924170542609,17.9996333768227
0.0272041415768221,18.0039963969796
0.0263122577866862,18.0067041984263
0.0252543777926797,18.0094119998729
0.0241819042063953,18.0118770577114
0.023108419876397,18.0141900275913
0.0220340827726432,18.016418903045
0.0209615770605208,18.0186015017288
0.019894522839108,18.0207615382743
0.0188366091065211,18.0229156476507
0.0177913293207185,18.0250764800084
0.0167619099053118,18.0272542689879
0.0157512977049602,18.0294577261932
0.0147621648965269,18.0316946015429
0.0137969220032942,18.0339720546906
0.0128577273415354,18.0362969317632
0.0119464980520784,18.0386759768254
0.0110649228333909,18.0411160014617
0.0102144657403578,18.0436240588261
0.00939638249359905,18.0462075764992
0.00861172321523316,18.0488745313272
0.00784616200455049,18.0516918267871
0.00709608471507479,18.0547032587811
0.00636530706433931,18.0579320104202
0.0056577558783241,18.0614052473608
0.00497753700462037,18.0651544330086
0.00432887509722172,18.0692161905299
0.00371601221659845,18.0736335147128
0.00314304026728151,18.0784577645337
0.00261367615697936,18.0837520508025
0.00213095114340982,18.0895978250685
0.00169709312093376,18.0961039789663
0.00132313610814456,18.1032129985859
0.00101792740214206,18.1108988104736
0.000820137784337854,18.1178777382637
0.000647063641595469,18.126092339939
0.000507289102384731,18.1351951717886
0.000399753433992687,18.1451951717886
0.00032759707862112,18.1551951717886
0.000280904207416386,18.1651951717886
0.000252454550153642,18.1751951717886
0.0002370880628469,18.1851951717886
0.000231266957455982,18.1951951717886
0.000232671478161172,18.2051951717886
0.000239857514047105,18.2151951717886
0.000252008152662825,18.2251951717886
0.000268777449416404,18.2351951717886
0.000290207563508199,18.2451951717886
0.000316702065037935,18.2551951717886
0.000349048271938913,18.2651951717886
0.000388493486505436,18.2751951717886
0.000436893877460664,18.2851951717886
0.000492542254320594,18.2945143866876
0.000555843130200789,18.303133696567
0.000627694947457665,18.3111031847604
0.000709205188905587,18.318471943891
0.000801659623113818,18.3252856684663
0.000906524528231235,18.331586867214
0.00102546407491062,18.3374151251643
0.00116036441222895,18.3428073225833
0.00131336275855628,18.3477978164887
0.00148687885586387,18.352418618582
0.00168365441557037,18.3566995679773
0.00190679698125206,18.360668494473
0.00215983446196008,18.3643513643446
0.00244677955489982,18.3677724279536
0.00277221040534273,18.3709543756985
0.00314137309051851,18.3739184966311
0.00356031161229979,18.3766848430194
0.0040360419972864,18.3792724194791
0.00457678969992433,18.3816994061334
0.0051923239745399,18.3839834342545
0.00589445257783979,18.3861419616364
0.00666992005396045,18.3881276589877
0.00752604620526192,18.3899688843486
0.00847555449076882,18.3916975827898
0.00953744266261957,18.3933460874805
0.0107430505628836,18.3949523389512
0.0121755546696426,18.3965972025291
0.0140728024579517,18.3984714268849
0.0159278373740948,18.4000814996091
0.0179595186286541,18.4016915723333
0.0197440745059226,18.403040040171
0.0212930129458032,18.4042082799436
0.0226810376740087,18.4052966820094
0.0239244368190596,18.4063563528137
0.0250137568278549,18.4074250143533
0.0259218349910347,18.4085442690113
0.0265959010690297,18.4097798698421
0.0269126612819798,18.4112939781228
0.026592568774252,18.4130643979888
0.0256383919144189,18.4148348178548
0.0245115151041715,18.4162706521884
0.023238225711037,18.4176363301015
0.0218125421612428,18.419028489363
0.0202422742589227,18.4204913885894
0.0185338232462596,18.422063625146
0.0178682048490199,18.4226805297557
0.0172158157817193,18.4232974343653
0.0147370026098908,18.4258187347834
0.0121339161118832,18.428865008933
0.0100491350420832,18.431732461629
0.0084233047913132,18.4343531721493
0.00710323427139933,18.43683268445
0.00595497338978877,18.4393473558586
0.0049670696829645,18.4418814889252
0.00410520990825414,18.4444836874962
0.00333128047411556,18.4472592820876
0.00265491061924778,18.4501725284382
0.0022612175306714,18.4521611589246
0.00191498744800361,18.454149789411
0.00163369292716197,18.4559774460853
0.00139155730765917,18.4577439812385
0.00116983908023786,18.4595591813953
0.000954104243522739,18.4615555086995
0.000723485960283701,18.4640178535907
0.000411728151980264,18.4681247150158
0.000191201167405749,18.4718976081492
4.1056451181555e-05,18.4751827345662
-8.29181480348559e-05,18.4786877508361
-0.000189894286553263,18.4829488910932
-0.000263392870677596,18.4884505779232
-0.000265435796500781,18.4932289032439
-0.000208103175749809,18.4976001833671
-9.35330267083722e-05,18.501566358615
7.87808996918897e-05,18.5051676972219
0.000311500150393098,18.5084524924285
0.000609247009534503,18.5114707237471
0.00097874724075843,18.5142713914485
0.00143048234321267,18.5169084260037
0.0019814923317993,18.5194433156564
0.00265935166060826,18.521946487993
0.00350875451094275,18.524501365006
0.00461145032040221,18.5272305739959
0.00603186599094802,18.5301436408761
0.00757957758435187,18.5328084905249
0.00908094867545649,18.5350187151417
0.0105634928932265,18.5369083129144
0.0121179475382064,18.5386297611653
0.0137982841076407,18.5402433055095
0.0156258110028247,18.5417603917508
0.0176577442886218,18.5432147947879
0.0199123342934386,18.5446030317109
0.0224380764546165,18.5459391513805
0.02526705473769,18.5472237680731
0.0284426132351717,18.5484613413605
0.0320110975322574,18.5496550794175
0.0360203193693061,18.5508068220502
0.0405327993797582,18.5519207272459
0.0456177009008667,18.5529999965627
0.0513564389871352,18.5540480059173
0.0578442809898015,18.5550680933844
0.0652007718822267,18.5560645678831
0.0735697752085134,18.5570417254944
0.0831303028304359,18.5580043954535
0.0941097804754902,18.558958191952
0.106803935406538,18.5599098558483
0.121612400914928,18.5608680549884
0.139099267117903,18.5618445650264
0.159830339688309,18.562844074068
0.183865239723189,18.5638482506845
0.211860810394566,18.5648687311097
0.244716619811357,18.565922394832
0.283810932561667,18.5670377929418
0.328043871634918,18.5681841374714
0.36653674538401,18.5691280120943
0.399083011090831,18.5699189072623
0.427427411307531,18.5706300394383
0.452170181928,18.571299417257
0.473329014924606,18.5719517516129
0.490536680516905,18.5726084316837
0.502974796391774,18.5732933872411
0.509025742199433,18.5740413296061
0.505720206865796,18.5748600149743
0.491165112338813,18.5756964808374
0.464055534841828,18.576565689366
0.422754782440618,18.5774784670442
0.365470305701837,18.57844408197
0.323449563772177,18.5790449837868
0.277432293596697,18.5796458856036
0.236177521679785,18.5801560201504
0.20041444517858,18.5805893823277
0.168756872927789,18.5809748329972
0.140268983703841,18.5813301794678
0.114365120925575,18.5816667703147
0.0906291158740593,18.5819930904845
0.0687095112083308,18.5823169367002
0.048223533078159,18.5826477983491
0.0285374447733844,18.5830029354701
0.00738062519460771,18.5834462496839
-0.00160577417215843,18.5836629313199
-0.00974270174665322,18.5838796129558
-0.0161480534332047,18.5840677007147
-0.022068396025807,18.5842590026899
-0.0279856729535644,18.5844715841799
-0.0336685801581507,18.5847020159607
-0.0389713953739696,18.584948279087
-0.0438140660529319,18.5852097226291
-0.0481556397283688,18.5854866048888
-0.0519720989925883,18.585779841717
-0.0552732546661449,18.5860931492213
-0.0579975861626038,18.5864211850553
-0.0602122816226042,18.5867711722768
-0.0619312275453932,18.5871462095018
-0.063168449102599,18.5875500341947
-0.0639371343719289,18.5879872632645
-0.0642481261740023,18.5884636571569
-0.064108241002166,18.5889865153838
-0.0635177442545922,18.5895655728524
-0.062464888123334,18.5902148566802
-0.0609223346037141,18.5909529084684
-0.0588351456751747,18.591807997706
-0.0560887184430227,18.5928295991412
-0.0523825789792887,18.594133345121
-0.0483522587675023,18.5955195803396
-0.0444664056793774,18.5968601913069
-0.0407692497451179,18.5981595108832
-0.0372819292048376,18.5994197884759
-0.0340148465368351,18.600641877135
-0.0309719376799659,18.6018259197222
-0.0281526705724515,18.6029717152099
-0.0255531780757372,18.6040789111239
-0.0231670313812794,18.6051471019119
-0.0209858484196679,18.6061758740439
-0.0189998131870284,18.6071648192095
-0.0171981327939191,18.6081135271522
-0.0155694408525003,18.6090215644461
-0.0140023847757571,18.6099493038987
-0.01249633204222,18.6109010037443
-0.0110553468433858,18.6118785633246
-0.00968327915915988,18.6128842275452
-0.00838375556751042,18.6139206412399
-0.00716012729144765,18.6149909500526
-0.006015415778293,18.6160989343237
-0.00495225537518186,18.6172491909289
-0.0039728325759405,18.6184473864157
-0.00307882061168844,18.6197006197771
-0.00227130693640426,18.6210179606926
-0.00155070888956128,18.6224112824853
-0.000916668327758641,18.6238966206286
-0.000367906108020975,18.6254965428413
7.4276227767889e-05,18.6271430575545
0.000424245647910633,18.6288443605883
0.000697560467605926,18.6306191181853
0.000908676820337858,18.6324912743118
0.00107142122612666,18.6344935683266
0.00119955689728738,18.6366739543158
0.00130775365756144,18.6391097758068
0.00141384108929281,18.6419462879798
0.00154712816848354,18.6455514602214
0.00170360373931656,18.6493445366552
0.00189643054308611,18.6534290916937
0.00210234444354721,18.6573642724944
0.00231861137250228,18.6612455083641
0.00254318760214348,18.6651383535812
0.00277520216469106,18.6690895281499
0.00301506125681698,18.6731368010737
0.0032642918958543,18.677313804289
0.0035253398279895,18.6816527332275
0.00380140250493851,18.6861861302805
0.00409636881616242,18.6909484690376
0.00441492496665772,18.6959775537184
0.00476291816188325,18.7013158361848
0.00512635585026748,18.7066930748901
0.00549921428004478,18.711978505566
0.00588559015624273,18.7171905399516
0.00628770819057319,18.7223146627963
0.00670978075559229,18.7273594108448
0.00715623516765865,18.7323310845565
0.00763199186204343,18.7372366766286
0.00814228341624366,18.7420808081325
0.00869275775147849,18.746866061762
0.00928956167934488,18.7515930434799
0.00993946856707132,18.7562608848113
0.0106534289409986,18.7608889259999
0.0114551809750289,18.7655532123852
0.012360004062516,18.7702476652883
0.0133915057104666,18.7749917720695
0.0145836043268489,18.7798243952213
0.0159943746082892,18.7848390798883
0.0177547435779144,18.7902980926489
0.0201742784159588,18.7968263320166
0.0217644354862055,18.8007467451446
0.0234029033088898,18.8046671582726
0.0248345624314078,18.8081547249512
0.0260416167396142,18.8113202304165
0.0270433775919995,18.8143475184694
0.0278011405214329,18.8172543560639
0.0282926822328295,18.8200695813758
0.0285099973956509,18.8229187831212
0.028408640686344,18.8259834653721
0.0278172599812404,18.8297523117316
0.0269938808477611,18.8328223356083
0.0259184047390121,18.8358923594851
0.0248367688836606,18.8385329960645
0.0237630283339372,18.8409307480529
0.0226889590454245,18.8432055932321
0.0216149098403983,18.8454133119246
0.0205440449552382,18.847585103635
0.0194800633643919,18.8497414202892
0.018426592943872,18.851897107322
0.0173870271397053,18.8540637476563
0.0163644828794038,18.8562509121522
0.0153617985629663,18.8584668965276
0.0143815432154785,18.8607191957016
0.0134260263438117,18.8630148369468
0.0124973123506817,18.8653606179453
0.0115972277902654,18.8677633107636
0.010727370828252,18.8702298326687
0.00988912603295151,18.8727673869519
0.00908366637358156,18.8753836373847
0.00831053329532752,18.8780920820844
0.00755051155406293,18.8809825047282
0.00680748759126967,18.8840754574207
0.00608525788645984,18.8873958274952
0.00538782118975828,18.890972373098
0.00471933826686067,18.8948384452795
0.00408405448542771,18.8990329718125
0.00348617616012272,18.9036018995901
0.00292968124195569,18.9086006043025
0.00241804227273116,18.9140984557887
0.0019539846612674,18.9201862700502
0.00153943889038836,18.9269865347627
0.00119048569075456,18.9343112494908
0.000907806709859465,18.9425729376379
0.000742090314290999,18.9493519517914
0.000577734487143915,18.9583020434796
0.000458292478982902,18.9673564957235
0.00036627233868997,18.9773564957235
0.000305183269842214,18.9873564957235
0.000266327757440374,18.9973564957235
0.000243360319546894,19.0073564957235
0.000231806071087733,19.0173564957235
0.000228646319741469,19.0273564957235
0.000231931612687614,19.0373564957235
0.000240471258732501,19.0473564957235
0.000253620052753014,19.0573564957235
0.000271150433954973,19.0673564957235
0.000293189002043843,19.0773564957235
0.000320202337923907,19.0873564957235
0.000353027899662706,19.0973564957235
0.000392957096818082,19.1073564957235
0.000441794566200209,19.1173381988307
0.000497626293376197,19.1265990133274
0.000561051960228297,19.1351651086427
0.000632985662833333,19.1430874520019
0.000714536413109599,19.1504144091311
0.000806986851753649,19.1571909971782
0.000911797610757527,19.1634591412057
0.00103062547571863,19.1692579203345
0.00116534776093925,19.1746237720507
0.00131809127989595,19.1795906635058
0.00149126368735149,19.1841902617562
0.00168759261571884,19.1884520998278
0.0019101692751385,19.1924037332817
0.00216250216894866,19.1960708806105
0.00244858109147305,19.1994775669036
0.00277295650684405,19.2026462757179
0.00314084061430521,19.2055981028006
0.00355823518636806,19.2083529161947
0.00403210220283967,19.2109295401573
0.00457059617346612,19.2133459708817
0.00518339005477089,19.2156196421328
0.00588215543290293,19.2177677851363
0.00665477963449499,19.2197459419033
0.00750732025101434,19.2215787396201
0.0084520505609074,19.2232976311993
0.00950717935794432,19.2249342010086
0.0107023328596382,19.2265248118666
0.0121132370226454,19.2281432020975
0.0139550575065154,19.2299620498242
0.0159125999107028,19.231652598837
0.0180739911744197,19.2333431478498
0.0198948319035227,19.2346962763821
0.0214627752064399,19.2358581667699
0.0228672887336166,19.2369393101705
0.0241263530855463,19.2379915235962
0.025230865836246,19.2390524153639
0.0261538599180655,19.2401632880748
0.0268428445314241,19.2413892196157
0.0271756126281293,19.242889958236
0.0268679159449531,19.2446558411223
0.0259160460971963,19.2464217240087
0.0247874109206329,19.2478518540097
0.0235101864147609,19.2492119496103
0.0220781456419362,19.2505991709413
0.0204989811957023,19.2520579150251
0.0187789508662972,19.2536269515806
0.0181269047671291,19.2542258338271
0.0174861018489915,19.2548247160736
0.0148738371235627,19.2574556640907
0.0122044747498354,19.2605618679794
0.0101029150958582,19.2634427274025
0.00847091216965278,19.2660668262762
0.00714909085505162,19.2685444763287
0.00599991947096752,19.2710566024941
0.00499739215097699,19.2736275184578
0.0041298034633724,19.2762528880606
0.0033588645540233,19.279028171729
0.00268585424880568,19.281940581023
0.00228235123107357,19.2839946254942
0.00192934453031413,19.2860486699653
0.00164645152940146,19.2879193833223
0.0014061806129985,19.2897094869863
0.00118857708105865,19.2915331871079
0.000979423569729664,19.2935176368657
0.000760516710764562,19.2959139013281
0.000456457124612046,19.3000309045958
0.000235740339543136,19.3039649716813
9.1913837514351e-05,19.3073087332579
-2.22133089832755e-05,19.3108080690466
-0.000116227347701791,19.3150137237371
-0.000173576508784227,19.3204833422473
-0.000160459559891863,19.325238437304
-8.77625916201693e-05,19.3295914776426
4.2374699646235e-05,19.3335436779927
0.000230481855509174,19.3371350029614
0.000479307991083877,19.3404137894502
0.000793304548638055,19.3434266472101
0.00117894228773632,19.3462204022602
0.0016461725187747,19.3488460266313
0.00221079251740374,19.3513601355249
0.00289755037891007,19.3538250963507
0.00374243150001836,19.3563040523627
0.00480419326470703,19.358878263343
0.00612259627865418,19.361542251521
0.00760221893736001,19.3640624745325
0.00912121098132618,19.3662733062082
0.0106538210177835,19.3681989847587
0.0122421031792461,19.3699297747437
0.0139621990297441,19.3715549057864
0.0158184330219004,19.373071784033
0.017877584650374,19.3745241746438
0.0201670975120019,19.3759145174761
0.0227198838710641,19.3772472141643
0.0255813773468948,19.3785303620187
0.0287872926338072,19.3797647116036
0.0323895490231047,19.3809556861939
0.0364401815076421,19.3821059863764
0.0409969977088573,19.3832180512038
0.0461335592032159,19.3842959721424
0.0519331316334956,19.3853431521479
0.058494574662882,19.3863631606473
0.0659375300826416,19.3873599164812
0.0744110601207578,19.3883380184048
0.0840996416621667,19.3893024274669
0.0952386293858513,19.390258955827
0.108136665040667,19.3912147119138
0.123212115586073,19.3921787932392
0.141064789279018,19.3931639317992
0.162119700173909,19.3941674365148
0.186551059146749,19.3951775729268
0.215047667058234,19.3962069155103
0.248568298196991,19.3972740726791
0.288634704449134,19.3984118252854
0.323621883738459,19.3993257716436
0.360301349835242,19.4002397180018
0.392894583879626,19.4010425268303
0.421400528066719,19.4017647369279
0.446310673959337,19.4024422553746
0.467663130653155,19.4031000873071
0.485124772803585,19.4037594812953
0.497937417508168,19.4044434686286
0.504621673450976,19.4051840910147
0.50232404026744,19.4060052226134
0.488950850482607,19.4068415215974
0.463254663165186,19.4077080663606
0.423657041983032,19.4086159222082
0.368415304239021,19.4095743483013
0.32635949189201,19.410189192468
0.280016968244654,19.4108040366346
0.238449748215054,19.4113238943691
0.20248437012894,19.4117633315361
0.170685951146614,19.4121528440693
0.142089026014975,19.4125110533492
0.116095985144394,19.4128496674762
0.0922871709430674,19.4131773072762
0.0703137810784539,19.4135017321644
0.0498061204574079,19.4138321034394
0.0301810802328339,19.4141843304535
0.00956637304433212,19.4146114431784
-0.000635613308643437,19.4148546196077
-0.00787917145353636,19.4150450707423
-0.014495196526862,19.415235521877
-0.0203302302405443,19.4154198871581
-0.0262573367862535,19.4156271113552
-0.0320130665277058,19.4158532317169
-0.0374245410627113,19.4160956640277
-0.0423956497749443,19.4163533991045
-0.0468759247778438,19.4166264560928
-0.0508379340317082,19.4169155720394
-0.0543988680786977,19.4172354949176
-0.0572498255059225,19.4175592386032
-0.0595875422211756,19.417904128893
-0.0614268473483394,19.4182732503318
-0.0627816672616091,19.4186701450522
-0.0636654758593491,19.4190991782822
-0.0640898128196899,19.4195657775632
-0.0640626797679716,19.4200767858217
-0.0635865621133748,19.4206410055968
-0.0626530929760524,19.421271542367
-0.061239883124284,19.4219852583856
-0.0593014079968859,19.422807119956
-0.056745125380586,19.4237788202711
-0.0533497099607666,19.4249880191199
-0.0492997692051118,19.4263874205267
-0.0453786589915404,19.4277384369574
-0.0416382821477695,19.4290469924923
-0.038103732394744,19.4303159459182
-0.0347875329360402,19.4315464655393
-0.0316949450550126,19.4327388580033
-0.028826362960703,19.4338930056891
-0.0261786079815243,19.4350085966422
-0.0237457729851911,19.4360852434829
-0.0215198656110481,19.4371225403136
-0.0194913478806372,19.4381200830724
-0.0176496079680148,19.4390774669778
-0.0159833762811399,19.4399942685196
-0.0144027433467193,19.440917148187
-0.0128820071325478,19.4418637366713
-0.0114254689594974,19.4428357570081
-0.0100370159829773,19.443835382422
-0.00872032328996711,19.4448651672677
-0.00747880078714611,19.4459281433374
-0.00631553922472829,19.4470279458234
-0.00523325329391451,19.4481689836029
-0.00423422135135157,19.4493566749915
-0.00332022068138355,19.4505977834259
-0.00249245608469538,19.4519009116502
-0.00175147753519161,19.4532772592485
-0.00109707863761774,19.4547418434201
-0.000528159017950841,19.4563155958367
-6.14871497571102e-05,19.4579531055968
0.000309358335444434,19.4596413627587
0.000600434959355234,19.4613987922424
0.000826415158138981,19.4632479497014
0.00100125910882456,19.4652193187429
0.00113873910284522,19.4673568234023
0.00125330105665181,19.4697296470469
0.00136193054970351,19.4724626666039
0.00149025902112127,19.4758459601945
0.00164564310076709,19.4796034204925
0.00183946113328371,19.4837081080802
0.00204752280231319,19.4876610850198
0.00226705410756918,19.4915555233666
0.00249575481333063,19.4954587288467
0.00273241867801674,19.4994183377368
0.00297716948667608,19.5034726070236
0.00323133961207219,19.507655457779
0.00349726507119791,19.5119992538583
0.00377810383020917,19.5165366219534
0.00407775685774248,19.5213020524481
0.00440095453016597,19.5263332913145
0.00475360490898358,19.5316726650172
0.0051207458605498,19.5370385107525
0.00549746412523025,19.5423177995339
0.00588753085430438,19.5475231684148
0.00629333389711602,19.5526419324927
0.00671906963456366,19.5576817164363
0.00716922444986594,19.5626488827464
0.0076487596860037,19.5675502036036
0.00816296225204774,19.5723902053093
0.00871753727486502,19.5771713740752
0.00931869415543635,19.581894245427
0.00997327387490408,19.5865579025503
0.0106934077730307,19.5911882825938
0.0115020593413619,19.5958539865438
0.0124150314642916,19.6005508603173
0.0134563994580711,19.6052990482653
0.0146611014011108,19.6101396259374
0.0160897271216252,19.6151718729397
0.0178824087205398,19.6206793721296
0.0203037300225693,19.6271627697826
0.0218804609489621,19.6310343194085
0.023499578921548,19.6349058690343
0.0249149842082818,19.6383635989307
0.0261088380155107,19.6415153782165
0.0270974281437148,19.6445387129673
0.0278379048930684,19.6474361183209
0.0283123052951221,19.6502494742827
0.0285110332062587,19.6531059821088
0.0283859155280742,19.6561946313028
0.027745572306541,19.6600561339246
0.026913219041641,19.6630681488641
0.0258426117225019,19.6660801638037
0.0247631390796934,19.6686958067367
0.0236896655961394,19.6710825168048
0.0226156083737044,19.6733515421286
0.0215417284489273,19.67555603618
0.0204712714350263,19.6777262015205
0.019407943569323,19.6798820041718
0.0183553609572365,19.6820380160392
0.017316900168774,19.684205653087
0.0162956603873824,19.6863943793006
0.0152944624879384,19.6886124209243
0.0143158589134289,19.6908672273933
0.0133621432583527,19.6931657978577
0.0124353643998818,19.6955149154359
0.0115373346609688,19.6979213460458
0.0106696379386175,19.7003920107747
0.00983364548697044,19.7029341229514
0.0090305172767024,19.7055553638433
0.00825817330192337,19.7082751791644
0.0074991938349719,19.7111782215292
0.00675745695344487,19.7142853132512
0.00603677392585026,19.7176215684015
0.00534115558665754,19.7212160143884
0.00467477111775356,19.7251023207916
0.00404186769388588,19.729319803156
0.00344664251017541,19.733914908557
0.00289304901671839,19.7389437083814
0.00238451458506282,19.7444766470637
0.00192370841213663,19.7506061594492
0.00151316528881592,19.7574446983757
0.00116824122976935,19.7648065045501
0.000889863367196147,19.7730888902996
0.000725899120592714,19.7799174695459
0.000563371785229837,19.788941052379
0.000445653876317487,19.7980577649785
0.00035560178667979,19.8080577649785
0.0002956732860142,19.8180577649785
0.000257373063226126,19.8280577649785
0.000234499926205936,19.8380577649785
0.000222676535264179,19.8480577649785
0.000218942554276592,19.8580577649785
0.000221374952229799,19.8680577649785
0.000228783186179888,19.8780577649785
0.000240498717543388,19.8880577649785
0.000256246639003329,19.8980577649785
0.000276078077953523,19.9080577649785
0.000300347599856683,19.9180577649785
0.000329729629461228,19.9280577649785
0.000365277518552572,19.9380577649785
0.00040853910392182,19.9480577649785
0.000459819961926252,19.9577207197002
0.000518240694895255,19.9666752305495
0.000584544131634796,19.9749585138962
0.000659730224908993,19.9826201347943
0.000744977447690646,19.9897067670068
0.000819219834791163,19.9948533835034
0.000906615065520915,20
