ecg,time
0.000569563423139574,15.0007593884316
0.000369058575261003,15.0029431617122
0.000131069919139748,15.0059417713485
-0.000151055497264486,15.0102883935002
-0.000338083916691864,15.013869092926
-0.000482972235036153,15.0172232731494
-0.000616911855970412,15.0210188047653
-0.000746415583529638,15.025831064554
-0.000837170626214875,15.0310477033241
-0.000868006321765938,15.0356874636572
-0.000843196050020625,15.0399192948015
-0.000760787830551417,15.0437608113587
-0.000616976090963129,15.0472601373582
-0.000406401641879598,15.0504663506444
-0.000122131674224955,15.0534292052264
0.000245705994912745,15.0562046577049
0.000712431545701414,15.0588562413223
0.00130525339678305,15.0614670092009
0.00207015351265965,15.0641359381529
0.00310280961965271,15.0670333892471
0.00446142497926995,15.0701403319654
0.0057195731408324,15.0725703412551
0.00717437932288249,15.0750003505447
0.00861000612663639,15.0770791784451
0.0100568148851533,15.078906182802
0.0115998694295794,15.0806059301974
0.013284992246166,15.0822195595493
0.0151195006211982,15.0837415941957
0.0171590532333696,15.0852041787793
0.0194235405619069,15.0866045879564
0.0219554135723328,15.0879530929954
0.0247853646244361,15.0892500903099
0.0279540899352676,15.0904994001835
0.031506191576875,15.0917041630815
0.0354889566515858,15.0928665204637
0.0399616505839657,15.0939901814152
0.0449926059382475,15.0950786486005
0.0506615648707731,15.0961353782482
0.0570634195270762,15.0971640093536
0.0643125710918645,15.0981684526573
0.0725511519436881,15.099153256237
0.0819548072739348,15.1001233243319
0.0927468462917395,15.101084358754
0.105218861860281,15.1020432799563
0.119764318814359,15.1030088942157
0.136942786501693,15.1039933716867
0.157300334256338,15.1050009167861
0.180903916242661,15.1060135607711
0.208407765374009,15.107043441446
0.240714809493476,15.1081082728992
0.279221630440818,15.1092381225797
0.322345121295503,15.1103888329956
0.360102763274095,15.1113428941765
0.392236449103806,15.1121474063164
0.420280192377978,15.1128718252458
0.444763964041664,15.1135531410851
0.465688624367472,15.1142157324331
0.482693451636036,15.114880570883
0.494993251911465,15.1155705775241
0.501073600271321,15.1163176521559
0.498085705050631,15.1171427764508
0.484034698736747,15.1179829939927
0.457670408453378,15.1188529022135
0.417436664236195,15.1197632047187
0.361623639451989,15.1207235726161
0.32043197347506,15.1213238678812
0.275271643383501,15.1219241631463
0.234684534507438,15.1224346077905
0.199412428721853,15.1228690070787
0.16813471140274,15.1232558257773
0.13995549378059,15.1236126681152
0.114311286833681,15.1239507945666
0.0907997281155322,15.1242786451729
0.0690796819040633,15.1246039779713
0.048778990468098,15.124936209183
0.0292839367014877,15.1252923364745
0.00844102363262683,15.1257338906133
-0.000695778002366658,15.1259565252965
-0.0089534397061346,15.1261791599797
-0.0153456369763129,15.126369435254
-0.0212333965984649,15.1265623513065
-0.027114604972625,15.1267766337259
-0.0327605617200932,15.1270088526462
-0.0380270202882819,15.1272569819962
-0.0428348664672858,15.1275203722724
-0.0471437130281319,15.1277992878086
-0.0510889860917861,15.1281087839736
-0.0542876660625359,15.128420217726
-0.0569668315762123,15.128751165939
-0.0591399543437566,15.1291043457597
-0.0608202841868943,15.1294828293476
-0.0620217043161588,15.1298903940768
-0.0627572093357756,15.1303317055539
-0.0630374073162876,15.1308125839354
-0.0628688494247808,15.1313404039711
-0.0622513619918802,15.1319251028105
-0.061172798058529,15.1325807936626
-0.0596053966737854,15.1333262543197
-0.0574935471783799,15.1341901773247
-0.0547210234362828,15.1352230046547
-0.0509800542621449,15.1365439430428
-0.0469878988242547,15.1379247830717
-0.0431451288551111,15.1392599707511
-0.039493580401572,15.1405537171383
-0.0360531012813545,15.1418082333318
-0.0328332358853319,15.1430243682432
-0.0298372624620103,15.1442022766825
-0.0270641132303949,15.1453417762208
-0.0245094806695755,15.1464425345236
-0.0221665811715079,15.1475041647508
-0.0200267585412702,15.1485262687491
-0.0180799984506404,15.1495084488816
-0.0163153795819978,15.1504502997673
-0.0147081781124272,15.1513591299551
-0.0131578385877547,15.1522909952898
-0.0116694010910732,15.153247103792
-0.0102468648915249,15.1542294338032
-0.00889405439923768,15.1552402943067
-0.00761456299626548,15.1562824099487
-0.00641170150321558,15.1573590266947
-0.00528844394080017,15.1584740528389
-0.00424737054419634,15.1596322512786
-0.00329060751400555,15.160839508433
-0.00241976229294569,15.1621032217906
-0.00163585193342482,15.163432878784
-0.000939219846786284,15.164840960085
-0.000329431664299339,15.1663444283612
0.000192676474511835,15.1679596660295
0.000607700706219039,15.1696144377581
0.000933292278611216,15.1713272007751
0.00118464825067349,15.1731171376817
0.00137599528143806,15.1750094414268
0.00152098459835896,15.1770389209382
0.00163328182474841,15.1792573007728
0.00172761150624124,15.1817498032542
0.00182232350370301,15.1846825200024
0.00194674391614887,15.1884250630996
0.00209444260628572,15.1922651014587
0.00226570507032147,15.1961051146583
0.00245735252341156,15.1999633209323
0.00266586062391051,15.2038837439267
0.00288826566564481,15.2079029058526
0.00312302038003468,15.2120536123149
0.00337016137962879,15.2163674876116
0.00363118696393744,15.2208767365969
0.00390887224112375,15.2256156209157
0.00420716992445391,15.2306218643923
0.00453133043819027,15.2359379309626
0.0048777567996713,15.241444469762
0.0052286195954943,15.2468046192858
0.0055920410214471,15.2521036697886
0.00596852608199387,15.2573019201372
0.00636252252576063,15.2624161786151
0.00677797237267469,15.2674518928278
0.00721943095216588,15.2724182355963
0.00769160700338141,15.2773209764111
0.00819955741445915,15.2821639658296
0.00874874948183141,15.2869488919435
0.00934519277700777,15.2916757860967
0.00999556455601826,15.2963434449114
0.0107112928714881,15.3009743097573
0.0115157286634954,15.3056410701912
0.0124244234754349,15.3103386504653
0.0134613019588939,15.3150871669398
0.0146610182513431,15.3199272601689
0.0160835345602439,15.3249570227739
0.0178667896501567,15.3304554076262
0.0202850178592233,15.3369503751882
0.0218623167145355,15.3408318302879
0.0234832952949734,15.3447132853876
0.024901124799584,15.3481788187103
0.0260971873509799,15.3513347903611
0.0270882527850848,15.3543599988177
0.0278323246071082,15.3572608904835
0.0283102785467985,15.3600758891357
0.028512895039912,15.3629318391032
0.0283928953726205,15.366015962717
0.027763898894616,15.3698559950221
0.0269331432589968,15.3728831845939
0.0258609003083601,15.3759103741658
0.024780492556839,15.3785333177402
0.0237065612835376,15.3809239739418
0.0226321239819707,15.3831956926062
0.0215578356118798,15.3854022844902
0.0204869161825796,15.3875742170509
0.0194230652794213,15.3897315968597
0.0183698977607467,15.3918890853076
0.01733079046027,15.3940581642197
0.0163088434481281,15.3962483516489
0.0153068783176013,15.3984679237278
0.0143274483557038,15.4007243790563
0.0133728477073892,15.4030247693924
0.0124451258165293,15.4053759361718
0.0115460957149206,15.4077847119811
0.0106773419494641,15.4102580967679
0.00984023686094235,15.4128033974425
0.00903594198845082,15.4154284079742
0.00826365874923981,15.4181480244032
0.00750470843069287,15.4210508614009
0.00676298282322851,15.4241576761639
0.00604228876668085,15.4274935797921
0.00534663281467649,15.4310875983775
0.00468017999709443,15.4349734049288
0.00404717396581825,15.4391903255521
0.00345181009529914,15.4437848248599
0.00289804334035183,15.4488129920932
0.00238930535771956,15.454345299381
0.0019282733757381,15.4604742220469
0.00151746426721766,15.4673128625543
0.00126342700919051,15.4725422343595
0.00106249240668357,15.4777716061648
0.000856770072701518,15.4848134725587
0.000678186777071994,15.4929964132558
0.000534957838205492,15.5019629417858
0.000422915028634861,15.5119629417858
0.000347981474992941,15.5219629417858
0.000299724508243009,15.5319629417858
0.000270546255618248,15.5419629417858
0.000255046551895713,15.5519629417858
0.000249547413096538,15.5619629417858
0.000251653289266958,15.5719629417858
0.000259887197795095,15.5819629417858
0.000273433006086685,15.5919629417858
0.000291977613416887,15.6019629417858
0.000315631651109707,15.6119629417858
0.00034491154921164,15.6219629417858
0.000380778014065379,15.6319629417858
0.00042474033231474,15.6419629417858
0.000477067539126927,15.6516244537899
0.000536804205371375,15.6605729008307
0.000604678264767227,15.6688463237499
0.000681700905704095,15.6764951678666
0.000769077017456672,15.6835668537046
0.000868192817688859,15.6901054943753
0.000980626130548539,15.6961521566098
0.00110816708617903,15.7017450962205
0.00125284483973916,15.706919954828
0.00141695780559688,15.7117099394966
0.00160310937574607,15.7161459960721
0.00181424952105995,15.7202569757499
0.00205372500365725,15.7240697891478
0.00232533839125885,15.7276095537498
0.00263342239676964,15.730899746746
0.00298293157050742,15.7339623636783
0.00337956002021461,15.7368180809304
0.00382989558906301,15.7394864350818
0.00434162732624486,15.7419860320102
0.00492383503941454,15.7443347994234
0.00558740848134837,15.746550317342
0.00633067658840132,15.7486122935025
0.00715077752820634,15.7505162470494
0.00805845433272197,15.7522941818014
0.00906971172481116,15.7539780679188
0.0102097612396486,15.7556028737552
0.0115240643332442,15.7572155540798
0.0131837638987116,15.7589708728184
0.0156956798343924,15.7612402093667
0.0173627370792678,15.7625877301744
0.0191181480350381,15.7639352509821
0.0207188268818068,15.7651458754126
0.022151488387956,15.766257083834
0.0234386133649616,15.7673250007396
0.0245771716032157,15.7683892565551
0.0255461422582933,15.7694885314126
0.02630356052714,15.7706768485178
0.0267614708992889,15.7720657506069
0.026582626955422,15.7741502900462
0.0258934475763403,15.775627286354
0.0248434475181397,15.7771042826618
0.0236330811265998,15.7784754404212
0.0222665516638275,15.7798526175878
0.0207525329602251,15.781285887523
0.0190993748034093,15.7828130636922
0.0180278986815316,15.7838045403333
0.0169816713487189,15.7847960169744
0.0156469942758987,15.7861288605132
0.01305752072951,15.7889953478023
0.0107623325187713,15.7919604824221
0.00897921757785433,15.794664738533
0.00755921345036854,15.7971768054232
0.00634639993290744,15.7996746704043
0.00528607037374959,15.8022280585123
0.00435660549679835,15.8048620519794
0.00356791337270015,15.807503694398
0.00292259600470014,15.8100535295798
0.00238183691188394,15.8125634867599
0.00191171336902756,15.81512603833
0.00147169315053686,15.8179681868885
0.0011386443092669,15.8205131334193
0.000853811121194465,15.8230580799502
0.000652935645732763,15.8251227956212
0.0004939265144584,15.826959627799
0.000355094777936307,15.8287444146089
0.000226162984373282,15.8305869850947
9.88448772300142e-05,15.8326218431967
-3.99289469053858e-05,15.8351480909204
-0.000260414865689597,15.8400970660825
-0.000410736491511229,15.8445467433194
-0.00050714813515452,15.8482599214582
-0.000583992013666818,15.8522211393389
-0.000644007557156099,15.8572317645864
-0.000657766881559536,15.8622313352643
-0.000619975275903721,15.8667290500112
-0.000529368284963486,15.87081626109
-0.000382621057699123,15.8745234598668
-0.000175392289440642,15.8778920185798
9.75280850087116e-05,15.8809666725079
0.000443087161210642,15.883798095681
0.00087073788444454,15.886437521446
0.00139413306917314,15.888938070751
0.00203340002944544,15.891354768589
0.00282083963131375,15.8937523222274
0.00380250152181,15.8961931395617
0.00502536409858494,15.898704152012
0.00646508333061894,15.9011753424167
0.00804181308038488,15.9034684078976
0.00966359630361057,15.9054921726115
0.0113391067718331,15.9073016750724
0.0130992189050531,15.9089526201092
0.0150184806538455,15.9105162279783
0.0171221025253349,15.9120013907827
0.019423681360358,15.9134070872698
0.0219855536859011,15.914758828384
0.0248434840981091,15.9160594566841
0.0280269957166645,15.9173079817835
0.0315926024854282,15.9185126023412
0.0355910292621866,15.9196759612013
0.0400787491892358,15.9208004977365
0.0451281520138255,15.9218904383876
0.0508204713908427,15.9229491676336
0.0572507569126817,15.9239800527498
0.0645379124960402,15.9249874134167
0.0728261106092284,15.9259757087266
0.0822949715774728,15.9269499461143
0.0931739052120479,15.927916022222
0.105763136819358,15.9288810971422
0.120474458218935,15.9298546557621
0.137898589827878,15.9308498396929
0.158444104260569,15.9318635705998
0.182288878049801,15.932884438214
0.210117011829556,15.9339256541459
0.242890008853607,15.9350069222532
0.282152327240064,15.9361631088672
0.325149843447452,15.9373209148495
0.361234355980125,15.9382487690556
0.392163968874816,15.9390431051769
0.419240067029889,15.9397660416176
0.442821546939073,15.9404503908442
0.462822511418094,15.9411190634358
0.478814506174301,15.9417926287624
0.489930742452031,15.9424942311335
0.494521710652935,15.9432566900793
0.489723431838885,15.9440879344951
0.473794291572581,15.9449353197285
0.445457250913291,15.9458125112316
0.403174687174973,15.9467295899292
0.358784081033226,15.9474896800219
0.317756563791516,15.948097555107
0.27266654012417,15.9487054301922
0.232537152616776,15.9492167062185
0.197649612794465,15.9496517782203
0.166675064228008,15.9500395281613
0.138743337891722,15.9503974444459
0.113307848368659,15.9507367117134
0.0899769183416776,15.9510657310731
0.0684172308712706,15.9513922336856
0.0482642044303552,15.9517255963352
0.0289170462857194,15.9520826834815
0.00828978978270626,15.9525238105831
-0.000916638731418276,15.9527502175565
-0.0092280046092601,15.9529766245299
-0.0156032004605219,15.9531685103121
-0.0214648374828094,15.9533627644791
-0.0273161245925171,15.9535784369224
-0.0329307088138323,15.9538121019481
-0.0381658036626689,15.9540617347129
-0.0429431986323045,15.9543266911609
-0.0472228752189334,15.954607243117
-0.05128785928733,15.9549319178733
-0.0544379240455243,15.955246151101
-0.0570686734135674,15.9555799044888
-0.0591957678254262,15.9559361227088
-0.0608324372788938,15.9563179225743
-0.0619924185240551,15.956729131798
-0.0626884732811323,15.95717447776
-0.0629308982798314,15.9576598586658
-0.0627258518875047,15.9581927511806
-0.0620724865770172,15.9587833490472
-0.0609579215427511,15.9594459074887
-0.0593534123369048,15.9601995602329
-0.057201625898374,15.9610736663573
-0.0543822836661007,15.96212026429
-0.0505712724761541,15.9634648081194
-0.0465999214081522,15.9648401670584
-0.0427834546522718,15.9661699537704
-0.0391609627545956,15.9674582748881
-0.0357509944066636,15.9687072622659
-0.0325622724689559,15.969917735453
-0.0295974719734582,15.9710898452693
-0.0268550488963469,15.9722234172143
-0.0243303130415431,15.9733181315567
-0.0220161780850188,15.9743736146051
-0.0199037583934536,15.9753894793516
-0.017982877920621,15.9763653355764
-0.0162425155902825,15.9773007802942
-0.0146406041580066,15.9782133288349
-0.01309633837206,15.9791490761544
-0.0116145614897973,15.9801093658373
-0.0101992448125103,15.9810962260776
-0.00885417425049155,15.9821120282464
-0.00758289500909695,15.9831595746221
-0.00638865936581169,15.9842422090157
-0.00527437164503461,15.9853639648865
-0.00424253024299126,15.9865297680836
-0.00329516602539566,15.9877457216919
-0.00243377561521736,15.9890195187492
-0.00165924664144313,15.9903610627545
-0.000971769306985856,15.9917834437749
-0.000370723080495068,15.9933045638128
0.000138599209028707,15.9949251540037
0.000543864714129954,15.9965881466157
0.00086228529044831,15.9983118911323
0.00110893258341947,16.0001163729387
0.00129797527520961,16.0020280161768
0.00144310832617801,16.0040837074744
0.00155820654883108,16.0063390283995
0.00165854572092493,16.0088875091384
0.00176402013594367,16.011918499197
0.0019001146703033,16.0156531958037
0.00206335274454639,16.0195500605605
0.00224839244756146,16.0234142478263
0.00245077866874964,16.0272591756791
0.00266732297535931,16.0311380969177
0.00289565325893196,16.0350921758308
0.00313481058909031,16.0391562822031
0.00338529410863166,16.0433625602806
0.00364889860739779,16.0477426090218
0.0039285206972074,16.0523290545824
0.00422804843141498,16.0571570122912
0.00455243014916847,16.0622653900963
0.00490804985845735,16.0676982189904
0.00527034507127968,16.0730232722673
0.00564559633539087,16.0782963413052
0.00603417187163393,16.0834776750307
0.00644008840056014,16.088576370285
0.00686733870374594,16.0935963854672
0.00732064862555679,16.0985461852714
0.00780499304168527,16.1034316729545
0.00832573008018955,16.1082569649265
0.00888863793740916,16.113023937171
0.00950003466154503,16.1177326624849
0.0101669073913049,16.1223819175752
0.0109058789276898,16.127022588548
0.0117368134421057,16.1316954281375
0.0126775498460451,16.136403612507
0.0137541186117016,16.141170461774
0.0150058649328388,16.146046944284
0.0165048812600045,16.1511590020393
0.0184380692016491,16.1568993804428
0.0208597904732699,16.1632104813899
0.0223894607598387,16.1669200125084
0.0239380994448147,16.170629543627
0.0252836053895941,16.1739738813589
0.0264172098756984,16.1770739196643
0.0273445536655357,16.1800870465332
0.0280060783538517,16.1829493497023
0.0284010080526715,16.1857619069455
0.0285116741417772,16.1886623419384
0.0282686442868319,16.1918859459348
0.0273495905154881,16.1962918268438
0.0264723417116979,16.1990653734466
0.0254136308399657,16.2018389200495
0.0243401862137803,16.2043399568605
0.0232667637129531,16.2066719574968
0.0221923683303312,16.2089117041169
0.0211193190521261,16.2111004999427
0.0200511682540747,16.2132636386581
0.0189916194714631,16.2154185938735
0.0179442036761497,16.2175785077704
0.0169121909010829,16.2197539181493
0.0158985715265053,16.2219537295424
0.0149060602544592,16.2241858110861
0.01393710843519,16.2264573901585
0.0129939128320982,16.2287753431406
0.0120784285354568,16.2311464095814
0.0111923797729519,16.2335773703167
0.0103372640037108,16.2360752225373
0.00951436994304109,16.2386473073952
0.00872477872991087,16.2413014866192
0.00795743954546803,16.2440915030435
0.00720500120443247,16.2470724997141
0.00647129634383986,16.2502669615555
0.0057602206179573,16.2537014291431
0.00507585223599885,16.2574066274666
0.00442240255931362,16.2614182548547
0.00380411684210754,16.2657781388645
0.00322511933029814,16.2705360475959
0.0026891995797987,16.2757527402535
0.00219950060844199,16.2815060071672
0.00175836911142447,16.2878992303965
0.00137425519599584,16.2949305796399
0.00112944784049142,16.3005292134661
0.000939314132360091,16.3061278472923
0.000738757132654362,16.3140100848799
0.000580758300258799,16.3224848651174
0.0004541616004009,16.3318714909187
0.000360524585835743,16.3418714909187
0.000297913330396715,16.3518714909187
0.000257561453437683,16.3618714909187
0.000233083162598964,16.3718714909187
0.000219956917494577,16.3818714909187
0.00021510915030619,16.3918714909187
0.000216530951213233,16.4018714909187
0.000222967374065547,16.4118714909187
0.000233699679373039,16.4218714909187
0.000248410258173461,16.4318714909187
0.000267109510217335,16.4418714909187
0.000290108431202949,16.4518714909187
0.000318029986062527,16.4618714909187
0.000351861728736397,16.4718714909187
0.000393061908413903,16.4818714909187
0.000442804670206132,16.4917002868589
0.000499677329637436,16.500809221625
0.000564393874680136,16.5092305686825
0.000637951461572948,16.5170155200084
0.000721531570633565,16.5242124154166
0.000816489749558141,16.5308662145266
0.000924366055195754,16.537018754229
0.00104690563380742,16.5427089917718
0.00118608469651885,16.5479732117664
0.00134414049250249,16.5528452097653
0.00152360527258853,16.5573564683568
0.0017273469602813,16.5615363264564
0.00195861661628316,16.5654121382522
0.00222110545971722,16.5690094232562
0.00251901505681726,16.5723520188642
0.00285714399273157,16.5754622383753
0.00324099899335028,16.5783610329923
0.00367693852678005,16.5810681665916
0.00417236535350535,16.5836024166078
0.00473599290500485,16.5859818138536
0.00537822639271424,16.5882239492801
0.00610353153962807,16.5903247261101
0.00690370338232703,16.5922599940243
0.00778843492018072,16.5940617023661
0.00877222447720519,16.5957616706728
0.00987734452314463,16.5973934480353
0.0111423651773024,16.5989994102647
0.0126958802332839,16.6006993939395
0.0148956704570962,16.6027628954502
0.0165933793748828,16.6041778804507
0.0184105650357303,16.6055928654512
0.0200980687284757,16.6068663113919
0.0215948583800929,16.6080066439768
0.0229401350878551,16.6090844047425
0.0241402328664605,16.6101440492234
0.0251807809908563,16.6112229280744
0.0260291356052776,16.6123664938091
0.0266211183493959,16.6136543514814
0.0267847958438233,16.6153217699887
0.0263074306935836,16.6169906270315
0.0253005168094621,16.6186594840742
0.0241442469012922,16.6200664706149
0.022838103269354,16.6214334759598
0.0213809599594698,16.622837865679
0.0197811263269706,16.6243206672178
0.018043763829429,16.6259214648596
0.0161978263093571,16.6276935951091
0.0144235428449462,16.629546482304
0.0118729071262117,16.6325612158601
0.00982333547377514,16.6354042145181
0.008217413607111,16.6380108950327
0.0069041681610838,16.6404920346401
0.00575970085571521,16.6430108114206
0.00475656037175146,16.6455973005642
0.00388513766380128,16.6482445844374
0.00318562298129474,16.6507440419838
0.00261558765738536,16.6531191833521
0.00214164952314565,16.6554050323766
0.00173806859741683,16.6576462536604
0.00138355377410872,16.659907787016
0.00105652183116665,16.6623109878243
0.000714289222845283,16.6652581024905
0.000517479520396033,16.6672142240718
0.000341317889188545,16.669170345653
0.000198283021901589,16.6709308731317
7.7266864620742e-05,16.6725634985441
-3.27993570871181e-05,16.6741813840898
-0.000139057281626168,16.6758826077239
-0.000249073880170787,16.6778117837161
-0.000379771936028958,16.6803671084114
-0.000566344453241865,16.684641018776
-0.000699547914728882,16.6882981449715
-0.000801377701399448,16.6915693796467
-0.000898179851304967,16.6952237875081
-0.000999743631222341,16.6999861907283
-0.00108096017020172,16.7054648371924
-0.00111217440508849,16.7102652992466
-0.00109458269433509,16.7146118719064
-0.00102396928455737,16.7185198503192
-0.000895641745532828,16.7220344134247
-0.000704198874435461,16.7252120604023
-0.000443378188319625,16.7281090894411
-0.000104705273542663,16.730786504812
0.000324665710828697,16.733309301684
0.000864146273522839,16.7357429411098
0.0015487336463209,16.7381738292344
0.0024501311549345,16.7407389703425
0.00371763745069221,16.7436604464245
0.00532292366583447,16.7467097801842
0.00671310736465577,16.7489767866641
0.00829665786622507,16.751243793144
0.00984307445476852,16.7531832468446
0.0114203707174875,16.7549196929582
0.0131168233974086,16.7565542476089
0.0149291629437732,16.7580757217397
0.0169361287621278,16.7595385696775
0.0191531224048779,16.7609363723588
0.02162931644083,16.7622836261842
0.0243948269460093,16.763579780213
0.0274905366580648,16.7648285237638
0.0309607309875616,16.7660328104564
0.0348498656620793,16.767193986102
0.0392165186692277,16.7683159555522
0.0441258875372786,16.7694018857082
0.0496538270354823,16.7704549923598
0.0558894034562475,16.7714785738114
0.0629407795010606,16.7724764130536
0.0709402325636165,16.7734526995796
0.080049370084692,16.7744118653749
0.0904705407077373,16.7753589294518
0.102462603684973,16.7762997761366
0.116364834472816,16.7772415421743
0.132640979325864,16.7781935610005
0.151953380363483,16.7791686647297
0.174584361970777,16.7801564824606
0.200842739101712,16.7811521577902
0.231468673271429,16.7821681762243
0.26749788710425,16.7832234010361
0.310629712899853,16.7843530934223
0.34567186191651,16.7852028631832
0.382077243412724,16.786052632944
0.414445937783229,16.7868064382299
0.442758992485064,16.7874912947753
0.467457342000769,16.7881402619971
0.488516538737668,16.7887774245055
0.505506563037658,16.7894247973015
0.517480157387188,16.7901088344775
0.522477978313556,16.7908720374536
0.517336675639806,16.7916830760833
0.50052740062383,16.7925180272298
0.47060554947697,16.793391931236
0.425774833091982,16.7943153667773
0.378020413922119,16.7950935952783
0.3339352861138,16.7957150019856
0.285448261405575,16.7963364086929
0.242660017653071,16.7968544180523
0.205854243616281,16.7972906311795
0.173413704034022,16.7976767324289
0.144297213166942,16.7980316027727
0.117868038292242,16.7983670288012
0.093681909048121,16.7986916785473
0.0713706149645119,16.7990133896071
0.050542257789531,16.7993415339718
0.030566503382654,16.799692804249
0.00928820124905373,16.8001265396285
-0.000230722026106096,16.8003497906226
-0.00881888344196253,16.8005730416168
-0.0153027478337633,16.800759252813
-0.021265408297162,16.800947601373
-0.0272385718601008,16.8011572192723
-0.0329851014453743,16.8013846610454
-0.0383545107489064,16.8016278650667
-0.0432638091004818,16.8018861436824
-0.0476702894824665,16.8021597229173
-0.0515538032186924,16.8024494881373
-0.0551489945131596,16.8027828555691
-0.0578973762054302,16.8031088965773
-0.0601304360329035,16.8034565149454
-0.0618652849600709,16.8038291225405
-0.0631162292091096,16.8042304720752
-0.0638966766275678,16.804665199583
-0.0642176355254272,16.8051390971517
-0.0640860010146734,16.8056595168363
-0.0635019972200306,16.8062362655809
-0.062453591357906,16.8068835221905
-0.0609126653414911,16.807620113136
-0.0588224368362656,16.8084749078201
-0.0560633637814742,16.8094989535598
-0.052314963153939,16.8108144485802
-0.0482671514606018,16.8122033722269
-0.0443624970334819,16.8135473364653
-0.0406454197770747,16.8148505398349
-0.0371374130452133,16.8161150999066
-0.0338492281513467,16.8173417810361
-0.0307851412464702,16.8185306626784
-0.0279449392849486,16.8196814961055
-0.0253250401443666,16.8207938918996
-0.0229192561900378,16.821867415786
-0.0207193973226575,16.82290163251
-0.0187157882931698,16.8238961185419
-0.0168977268734327,16.8248504548456
-0.0152538903465697,16.8257642058746
-0.0136876811262494,16.8266885966978
-0.0121819722034451,16.8276367864775
-0.0107409916657479,16.8286105556925
-0.0093686259385908,16.8296120997531
-0.00806854931109603,16.8306440015156
-0.00684417191307014,16.8317093290188
-0.0056985865224529,16.8328117639789
-0.00463451283346355,16.8339557757785
-0.0036542388852392,16.8351468627965
-0.00275955879482176,16.8363918967717
-0.00195170498936966,16.8376996310767
-0.00123127140649462,16.8390814822829
-0.00059812078115277,16.8405527946177
-5.12619473857516e-05,16.8421350229193
0.000391521339476309,16.8437753167731
0.000739451665103836,16.8454676863623
0.00100826705444352,16.8472306152969
0.00121239019310475,16.8490870990924
0.0013655009857,16.8510683331454
0.00148103204375129,16.8532195056562
0.00157297208439598,16.8556123325631
0.00165760772575023,16.8583778900057
0.00175935812957909,16.8618288423121
0.00188538752129493,16.865595848812
0.00204975052704866,16.8697407516688
0.00224784882252502,16.8741005788905
0.00244599136865364,16.8781127498423
0.00264509264991065,16.8819723057407
0.0028462228179512,16.8857830565836
0.00305076152608489,16.8896073964381
0.00326060055101333,16.8934900886537
0.00347811201601158,16.897467577439
0.00370607822639189,16.9015723522031
0.00394765137902869,16.9058355408343
0.0042063630792379,16.910288677373
0.00448621581631503,16.9149651154063
0.00479192045493224,16.9199014773218
0.00512934114707352,16.9251388488378
0.00548946427510728,16.9304781147432
0.005860954363332,16.9357085988662
0.00624952219188905,16.9408753937457
0.00665670500929006,16.94595503361
0.00708691826604756,16.9509577529649
0.00754468837271234,16.9558888196701
0.00803517813699806,16.9607548071915
0.00856393073754811,16.9655598100819
0.00913697524437146,16.9703059044412
0.0097609017452361,16.9749932239167
0.0104429982569358,16.9796206145319
0.0112064952339058,16.9842738653234
0.0120668021716064,16.9889555574643
0.0130447355023217,16.9936790327821
0.014169450461126,16.9984732140814
0.0154875985268002,17.0034056434357
0.0170922530983756,17.0086510028676
0.0192778182235915,17.0148532054016
0.0210025037621956,17.019250143249
0.0228221810728788,17.0236470810964
0.0243614382958371,17.0273548160288
0.0256455258381955,17.0306157584062
0.0267204010227746,17.0336768669851
0.0275749620842449,17.0366474285404
0.0281608829337518,17.0394832418336
0.0284782225339465,17.0423047087528
0.0284993353416665,17.0452635868602
0.0281239012610316,17.0486685175249
0.027342637224539,17.0521044646284
0.0262204758705381,17.0555404117319
0.0251221840338971,17.0583102232434
0.0240462510146992,17.0607575981753
0.0229721547520061,17.0630574576254
0.0218977024666335,17.0652790016936
0.0208256089327812,17.0674579133796
0.0197595206657229,17.0696167154171
0.0187031080423432,17.0717713817091
0.0176598317875906,17.0739341632156
0.0166328822580322,17.0761150376253
0.0156251712670767,17.0783225438787
0.0146393373296427,17.0805643126197
0.0136777585031502,17.082847420255
0.0127425630805117,17.0851786512641
0.0118356381310167,17.0875647079022
0.0109586439264313,17.090012370244
0.0101130168597291,17.0925286684586
0.00929998502955485,17.0951210147125
0.00852057199216552,17.0977973726926
0.0077569978358196,17.100638594254
0.00700945283626338,17.1036765380024
0.00628173076060952,17.1069349803213
0.00557778640948437,17.1104415663751
0.00490174826950249,17.1142283250435
0.004257853426607,17.1183325636913
0.00365033897474501,17.1227981491255
0.00308327174173898,17.1276775882353
0.00256029247524445,17.133035901667
0.00208435025654024,17.1389572842738
0.00165759346578122,17.1455546893168
0.00129259822663523,17.1527330980993
0.000994621053414106,17.1605022819431
0.000808436531513539,17.1673067852825
0.00063757261855787,17.1757226859154
0.000503769099887057,17.1848544455589
0.000401870124096775,17.1948544455589
0.000334293203978085,17.2048544455589
0.00029155482683905,17.2148544455589
0.000266780888121344,17.2248544455589
0.000255091508945166,17.2348544455589
0.000253187574978209,17.2448544455589
0.000258973498324259,17.2548544455589
0.000271241549152434,17.2648544455589
0.000289450721349701,17.2748544455589
0.000313602313226647,17.2848544455589
0.00034419960755254,17.2948544455589
0.000382283773277636,17.3048544455589
0.000429554039828316,17.3148544455589
0.000485560813185761,17.3243811637753
0.000549755865748682,17.3331865972204
0.000622977067734712,17.3413161300891
0.00070635064389358,17.348822392496
0.000801212301491896,17.3557543867752
0.000909098883120957,17.3621574645061
0.00103176166632681,17.3680736610988
0.00117118952912799,17.3735419845257
0.00132963879154156,17.3785986551085
0.00150966711953127,17.3832773247828
0.00171417526210444,17.3876092835131
0.00194645541799107,17.3916236538164
0.00221025147071937,17.3953475686341
0.00250983093090148,17.3988063456928
0.00285007713788202,17.4020236686649
0.0032366067727881,17.4050217758546
0.00367592349610366,17.4078216607703
0.00417562709917406,17.4104433048495
0.00474470566798527,17.4129059627361
0.00539396120913101,17.4152285332735
0.00612539483310881,17.4173995826862
0.00693410949479746,17.4194051550419
0.00783138533861752,17.4212799151182
0.00883445310337364,17.4230593098989
0.00997128190963124,17.4247834421437
0.0112948635761216,17.4265096618486
0.0129992425714676,17.4284228540814
0.0148743270241468,17.4302600733561
0.0164836168162833,17.4316959138372
0.0181791213157668,17.4331317543182
0.0196933658651368,17.4343963496987
0.0210441508267836,17.4355551399307
0.0222541343034168,17.4366679372066
0.0233197145489313,17.437775610202
0.0242200523016859,17.4389177285899
0.0249141212935921,17.4401490216173
0.0253166795133717,17.4415808653058
0.0251125798483031,17.4436857890807
0.0244307284740914,17.4452129163945
0.02339762949975,17.4467400437083
0.0222165454949806,17.4481479453525
0.0208922885944326,17.4495530272124
0.0194335082494484,17.4510069654256
0.0178492219205209,17.452547062809
0.0168556919759577,17.4535136323129
0.0158883753229842,17.4544802018167
0.0135046625074551,17.4570697375373
0.0111024500928572,17.4600789315373
0.00921893009760502,17.4628427666507
0.00772589208853773,17.4653960572001
0.0064680662370126,17.4678953558109
0.00536752962155652,17.4704436859354
0.00443073768723343,17.4729798557234
0.00366269618846429,17.4754047339618
0.00302219510731171,17.4777497001693
0.00247565197513831,17.4800609092513
0.00199344673535866,17.4824143803853
0.00153950457025626,17.4849873117578
0.00116900744750685,17.4874275195426
0.000912175332210918,17.4893511797767
0.000682255523595414,17.4912748400108
0.000496286492747235,17.4929994441019
0.000335246603709874,17.4946380056134
0.000186115790852679,17.4962963425704
3.93588935816291e-05,17.4980828591232
-0.000117543949668436,17.5001924629276
-0.00032743497579241,17.5034069205981
-0.000525251058785615,17.5069573723908
-0.000670394487573156,17.5099780393092
-0.000798931689655966,17.5130296782223
-0.000928758006564885,17.5165766836434
-0.00106935917220371,17.5211586549673
-0.00120158534979984,17.5267403611376
-0.00127550503091429,17.5315932024068
-0.00129758834102758,17.5360073939954
-0.00126389601316355,17.53998585405
-0.00116963490449697,17.5435801401783
-0.00100934701105108,17.54683791299
-0.000776525904787163,17.5498164001396
-0.000462945324395751,17.5525729273667
-5.62554295066164e-05,17.5551720116043
0.000465499419660793,17.5576949916924
0.00114582394426839,17.5602576647454
0.00208875141777072,17.5630783343659
0.00334909337071914,17.5661387761791
0.00495850289236819,17.569400878824
0.00621370450335658,17.571617114953
0.00762288991681815,17.573833351082
0.00904508658942028,17.5758104846345
0.0104787245660779,17.5775666796734
0.0120141951259486,17.5792172358529
0.0136818875613916,17.5807810082036
0.0155225599906535,17.5822792766807
0.0175710655110967,17.5837210196043
0.0198564126802423,17.5851079678184
0.0224119974454519,17.5864432006797
0.0252740441981092,17.587729477585
0.0284756077583207,17.5889668692869
0.0320644212064822,17.5901598995867
0.0360897785970268,17.5913111964597
0.0406087804213367,17.5924236766076
0.045686506206199,17.5935001502616
0.0514047420977347,17.5945446359752
0.0578581851251082,17.5955607446221
0.0651607412048819,17.5965523138027
0.0734512109160831,17.5975234986353
0.0829002971719323,17.5984788069111
0.093724819808872,17.5994235722804
0.106203208084966,17.6003640067382
0.120704575048607,17.6013078004503
0.13773768143483,17.6022650490771
0.158042963204019,17.6032500429499
0.181614956006922,17.6042393915837
0.208997681020876,17.6052397323928
0.240997994773437,17.6062649516219
0.278781007830539,17.6073369891339
0.323222580904798,17.6084715809639
0.365451610868465,17.6094758692298
0.400360723541028,17.6102868207183
0.43043046549907,17.6109991541795
0.45672007463796,17.6116615069953
0.479432364141042,17.6123017775497
0.498320905740089,17.6129421430284
0.512702123469148,17.6136061118643
0.521181403090519,17.6143266207703
0.520881199124364,17.6151330129753
0.509415252914091,17.6159554415162
0.485541008617752,17.6168105718481
0.447597890054442,17.6177109142734
0.393697003187345,17.6186652586758
0.348669778322365,17.6193272032159
0.298288818624003,17.619989147756
0.253458462065958,17.6205384202534
0.215244631788219,17.6209928815582
0.181793060981104,17.621390002493
0.151887249910618,17.6217518206849
0.12480929129236,17.622091510189
0.100078578033933,17.6224183010811
0.0773162634345664,17.6227400538776
0.0561492918066766,17.6230654181277
0.0360510083197684,17.6234080470173
0.0156352625276519,17.6238059731904
0.0075314565716776,17.6239836463599
3.53510421312969e-05,17.6241613195294
-0.00781258833704226,17.6243644069821
-0.0143668648638327,17.6245508009595
-0.0203032107566495,17.6247362724521
-0.0262876361317821,17.6249436018979
-0.0320698653926776,17.6251691326381
-0.0374887537457542,17.6254105914146
-0.0424549868850092,17.6256671550553
-0.0469220961422636,17.6259389575596
-0.0508683221346466,17.6262268143109
-0.0545330142484236,17.6265579897447
-0.0573432189553339,17.6268816768787
-0.0596366494505894,17.627226620504
-0.0614303461462992,17.6275961605636
-0.062738621536703,17.6279939576871
-0.0635750728420955,17.6284245301658
-0.0639510892708673,17.6288935143296
-0.0638741757104171,17.6294080484808
-0.0633457070881811,17.629977466878
-0.0623552433879523,17.6306155754415
-0.0608771047104522,17.6313403696388
-0.0588591562981076,17.632179115788
-0.0561930478426482,17.6331789571718
-0.05260149476112,17.6344469379949
-0.0485450667390942,17.6358422285539
-0.0446238519895877,17.6371915455327
-0.040886216478273,17.6384996558143
-0.0373555455352105,17.6397689324371
-0.0340436305980636,17.6410002699083
-0.0309554193927041,17.6421938126153
-0.0280911829404683,17.6433493423696
-0.0254477082455374,17.6444664822514
-0.0230190931369138,17.6455448014597
-0.02079736419285,17.646583864427
-0.0187730029247786,17.6475832467501
-0.016935410641239,17.6485425300811
-0.0152733211812527,17.649461282646
-0.0137026650153269,17.6503828688914
-0.012191932929692,17.6513281131167
-0.0107454926061642,17.6522986941737
-0.00936725486999161,17.6532967667036
-0.00806092590183587,17.6543248622062
-0.00682995471132959,17.6553859842359
-0.00567748045259677,17.6564837324689
-0.00460627727483825,17.6576224702549
-0.00361869649220118,17.6588075562959
-0.00271660535056791,17.6600456740274
-0.0019013208199972,17.661345315637
-0.00117353531326561,17.662717522333
-0.00053322829828404,17.6641770739153
2.04484295862049e-05,17.6657445245145
0.000472467461027653,17.6673798106774
0.000827506351624183,17.6690648776961
0.00110156066794182,17.6708181041847
0.00130913828529528,17.6726617212475
0.00146394770163522,17.6746256930331
0.00157936431933117,17.6767530295258
0.00166916489373832,17.6791111031921
0.00174904844987486,17.6818204345128
0.0018413879125513,17.6851558015459
0.00195873479009246,17.6889068030176
0.00211155325957902,17.6929826861728
0.00228567089595379,17.6969967126266
0.0024694815004945,17.7008615772149
0.00266070627088828,17.7046759553519
0.0028582633140484,17.7085028686309
0.00306223716594089,17.712387431996
0.00327373802334042,17.7163662884046
0.0034947090395581,17.7204721204676
0.00372775775869261,17.7247362295163
0.0039760432799884,17.7291902960564
0.00424325697092248,17.7338678364015
0.00453375740216312,17.7388056687828
0.00485292353472871,17.7440451885573
0.0051985930255693,17.7494896651185
0.00555157420792898,17.7547877029177
0.00592021577070745,17.7600317181024
0.00630466010528328,17.7651789473322
0.00670938754773315,17.7702456819323
0.00713843881877686,17.7752364086933
0.00759658396206899,17.7801594695005
0.00808883707909236,17.7850199922526
0.0086206368487119,17.7898212326835
0.00919789379641542,17.7945642629751
0.00982712122321733,17.7992485406443
0.0105155769020346,17.8038725322588
0.0112882219171383,17.8085307484661
0.0121593913052988,17.8132166429166
0.0131507779842225,17.8179463384394
0.0142926771783405,17.822751097069
0.0156345241866958,17.8277049269216
0.017278094362237,17.8330028273735
0.0195728088768752,17.8394173951142
0.0212470499780669,17.8436388267258
0.0229999065332556,17.8478602583375
0.024504382303201,17.8514946717298
0.0257656217626962,17.8547253416472
0.0268194862024141,17.8577751876685
0.0276461976445332,17.8607262970227
0.0282052282976141,17.8635551226067
0.0284944552629301,17.8663829396631
0.0284820165131885,17.8693682407931
0.0280523530993011,17.872857417586
0.0272618849384339,17.8761753917743
0.0261592625584797,17.8794933659626
0.0250665220736439,17.8822299439576
0.0239911327220126,17.8846667813389
0.0229168712652047,17.8869619110266
0.0218422854526758,17.8891811583439
0.0207702026715673,17.8913592232284
0.0197042808929786,17.8935182026609
0.0186481797169868,17.8956738513203
0.0176053437544444,17.8978383006594
0.0165789454846839,17.9000214677972
0.0155718788798822,17.9022318693958
0.0145867654283783,17.9044771415817
0.0136259658874515,17.9067643921671
0.0126915934377521,17.9091004556839
0.0117855199691134,17.9114921087311
0.0109093903645264,17.9139462330498
0.010064629209085,17.9164699809109
0.00925245188354914,17.9190709245241
0.00847387223442841,17.921757221054
0.00771114483068268,17.9246101922965
0.00696465954040608,17.9276613189083
0.00623821898025754,17.9309346202027
0.00553578647569284,17.9344580308746
0.00486149725112325,17.9382639283671
0.00421959027565556,17.9423900557659
0.00361429687839033,17.9468808458505
0.00304966688769788,17.9517895848808
0.00252930782753698,17.957182465928
0.00205612395660321,17.9631454874949
0.00163222016718747,17.9697943283477
0.00127128392561265,17.9770077045766
0.000985488638530195,17.9848183914949
0.000800138876266255,17.9919271217308
0.000635585584025736,18.0004021867684
0.000509095149368928,18.009410587288
0.000411893381344499,18.019410587288
0.000348453285647454,18.029410587288
0.000309493262561149,18.039410587288
0.000288285789685205,18.049410587288
0.00028013151327106,18.059410587288
0.000281933920180138,18.0694105872881
0.000291806695207368,18.0794105872881
0.00030876401524246,18.0894105872881
0.000332522727183248,18.0994105872881
0.000363412977036895,18.1094105872881
0.000402386584529672,18.1194105872881
0.000451125881305675,18.1294105872881
0.000508461072909474,18.1388356293235
0.000574170596872905,18.1475448572118
0.000649079207404264,18.1555869451184
0.0007343028048961,18.1630138017032
0.0008311755268136,18.1698736441895
0.00094123853730987,18.1762111220337
0.0010662521020234,18.1820676466809
0.00120821822970889,18.1874816689815
0.00136941042192934,18.1924889079208
0.00155240726791559,18.1971225644775
0.0017601349453994,18.2014135239399
0.00199591579147365,18.2053905457223
0.00226352942109013,18.2090804350386
0.00256728587023307,18.2125082143149
0.0029121190481967,18.2156973028932
0.00330370686902891,18.2186697032403
0.00374862762746949,18.2214461997873
0.00425457387106015,18.224046592281
0.00483065198517843,18.2264899826306
0.00548781913365967,18.228795149772
0.00622602249291684,18.2309451285656
0.00704207904210918,18.2329325946975
0.00794757179156766,18.2347920245914
0.00896016304460404,18.2365586916239
0.0101086907033301,18.23827289548
0.011448341644237,18.2399931833364
0.0131892060104,18.2419172314038
0.0150316256851243,18.2436987268059
0.0166452749808415,18.2451235294313
0.0183430636923762,18.2465483320567
0.0198581370302174,18.2478038618979
0.0212106131381056,18.2489565901801
0.0224221413836987,18.2500651235918
0.0234885048864773,18.2511699438916
0.0243882939301624,18.2523107669023
0.0250795145852372,18.2535432364746
0.0254741254951368,18.2549825241564
0.0252315735271822,18.2571398252822
0.0245282894568151,18.2586514501646
0.023484464189791,18.260163075047
0.0222930764286948,18.2615658857756
0.0209580315413899,18.2629706345042
0.0194882029543842,18.2644271870971
0.0178924043575045,18.265972748344
0.0168728704993115,18.2669625033107
0.0158847684607225,18.2679522582774
0.0134883226735873,18.2705663659885
0.0111055197603122,18.273567415988
0.00923845034071409,18.2763230291444
0.00775768268438944,18.278870961791
0.00650822618314482,18.2813704570754
0.0054156136300715,18.283919879828
0.00446784480601985,18.2865126374318
0.00367302702208265,18.2890659837645
0.0029854242682856,18.291661430027
0.00235247684604695,18.2944919122657
0.001769909320036,18.2976269174803
0.00144999209520642,18.2996471042866
0.00116706941524611,18.3016672910928
0.000936526970392027,18.3035166717718
0.000737538742429705,18.3052942941792
0.000554273573102706,18.3071130365978
0.000374661514314146,18.3091020808667
0.000181515718242624,18.3115251615414
-0.000113058950205582,18.3159857870878
-0.000327549376653918,18.3200899403025
-0.000473933194276851,18.3235338709234
-0.000600475204715868,18.3271665222007
-0.000721106143466445,18.3316067660185
-0.00082046586568714,18.3370406072398
-0.000858285695029238,18.3417912829456
-0.000841797876040921,18.3461359300629
-0.000769209263247527,18.3500746486875
-0.000636927277284665,18.3536573879712
-0.000440035414286162,18.3569292504768
-0.00017224166210164,18.3599393207061
0.000175304100926925,18.3627430387364
0.00061545238654298,18.3653985139407
0.00116821572893474,18.3679709170296
0.00187318661526857,18.37056123066
0.0028003076410115,18.373295807845
0.00407444800193202,18.3763432525841
0.00565412227663685,18.3794474486748
0.00724738402653312,18.382078859633
0.00873049529014507,18.3841850559626
0.0102141260224214,18.3860193642423
0.0118050173876698,18.3877338399273
0.0134976114335871,18.3893196926542
0.0153683066255766,18.3908398860933
0.01743635021168,18.3922927852455
0.0197362727557436,18.3936867610292
0.0223064594029695,18.395028649586
0.0251767646302334,18.3963184165307
0.0283921742540215,18.3975615563118
0.0319955243799443,18.398760136639
0.0360366019582992,18.3999168735903
0.0405765451610563,18.4010355964498
0.045684234518767,18.4021195454957
0.0514401331984726,18.4031720064611
0.0579421036950905,18.4041968206058
0.0653090109002442,18.4051981529063
0.0736856316966573,18.4061804052531
0.0832526263354439,18.4071485480522
0.094240310725889,18.4081083886067
0.106949521551736,18.4090669474845
0.121790770985597,18.4100334215282
0.139348780025632,18.4110204144011
0.160084593687087,18.412027355257
0.184137470481467,18.4130405533499
0.212184286534635,18.414072584408
0.245166566540977,18.4151420010003
0.284569504563553,18.4162811052535
0.328284676001105,18.4174340265915
0.365310224939136,18.4183636825785
0.39687106923393,18.4191532841708
0.42444552922729,18.4198690183575
0.448480206464621,18.4205454965837
0.468925477523874,18.4212062980427
0.485370312259861,18.4218723978619
0.496953229448334,18.4225675168077
0.502002457168819,18.4233259459312
0.497592639447843,18.4241515892068
0.481960559220257,18.4249946545677
0.453803467927628,18.4258692945948
0.411530263805868,18.4267857846262
0.353403806474286,18.4277543203512
0.312834732676425,18.4283323782995
0.26875769044084,18.4289104362478
0.229110148922936,18.4294057105736
0.194496059733812,18.4298310537603
0.163709353150972,18.4302122105825
0.135923807979975,18.4305654143818
0.110608138625188,18.4309013169112
0.0873737736043913,18.4312281319263
0.0658807395870657,18.4315536934003
0.0457389153919946,18.4318880175548
0.0262478122405635,18.4322506515725
0.00439679188058114,18.4327275988232
-0.00341951309313735,18.432924977383
-0.0105531948375471,18.4331223559428
-0.0166963630268554,18.4333089228751
-0.0226103950192814,18.4335068743964
-0.0284591941935188,18.43372531909
-0.0340326593801329,18.4339610815465
-0.0392041837208792,18.4342125009165
-0.0439051517635008,18.4344791655781
-0.0481007627461124,18.4347615042462
-0.0520634978409178,18.4350877938501
-0.0551262049589161,18.4354043342402
-0.0576699031345734,18.4357408167032
-0.059710726462442,18.4361002838925
-0.0612622964628856,18.4364859863305
-0.062338416676949,18.4369019193283
-0.0629516012799004,18.4373530283071
-0.0631115529557678,18.4378455053759
-0.0628233978538774,18.4383872386321
-0.0620841391536314,18.4389893111351
-0.0608780245582132,18.4396667620254
-0.0591714064853179,18.44044045001
-0.0568970446547034,18.4413432138922
-0.0539088269793887,18.4424361988934
-0.0498452776460491,18.443858485381
-0.0458874986059482,18.4452255600915
-0.0420962766471911,18.4465481993635
-0.0385037282427233,18.4478303027235
-0.0351259499830151,18.4490735687746
-0.0319703404982012,18.4502785774773
-0.0290387471842978,18.4514453490632
-0.0263290578019807,18.4525736375631
-0.0238361714015865,18.4536630841199
-0.0215527008542286,18.4547132933907
-0.0194695446023939,18.4557238655551
-0.0175763804576462,18.4566944011557
-0.0158620999683939,18.4576244881489
-0.0142708774946498,18.4585399445926
-0.0127380594570604,18.4594787441293
-0.0112683321215863,18.4604423386894
-0.00986564830858072,18.4614327962958
-0.00853376927398257,18.46245253874
-0.00727621035846185,18.4635044315825
-0.00609618863086678,18.4645918989324
-0.00499656784302975,18.4657190775457
-0.00397980053356455,18.4668910284381
-0.00304786659377959,18.4681140353122
-0.00220220679132805,18.4693960388882
-0.00144364827969226,18.470747293441
-0.000772316354470245,18.4721814065243
-0.000187520990641743,18.4737170851432
0.00030206518349375,18.4753421490428
0.000689938543293548,18.4770119632185
0.00099288998441832,18.478744836009
0.00122580359262774,18.4805614352787
0.00140269315958479,18.4824892475478
0.00153714356980644,18.4845669748212
0.00164298764394924,18.4868536292923
0.00173561060550385,18.4894503459807
0.00183556249283299,18.4925689755021
0.00196408670752427,18.4963031542119
0.00211985473434579,18.5001816967038
0.00229697962449687,18.5040207613522
0.0024928291142606,18.5078772032237
0.00270396939618082,18.5117955431031
0.00292785645978666,18.5158123083644
0.00316342762097168,18.5199602786928
0.00341114244897137,18.524271056397
0.00367281759651694,18.5287768010069
0.00395144192289148,18.5335116995923
0.00425110026285155,18.5385133772282
0.00457712782655451,18.5438241798645
0.00492520281838386,18.5493135015167
0.00527833020209207,18.5546611846338
0.00564432745635354,18.5599472208301
0.00602382199047765,18.5651340309466
0.00642124663529894,18.570237613741
0.00684059878308971,18.5752634543828
0.00728648385050639,18.580220436415
0.00776368351441442,18.585114177749
0.00827733858028848,18.5899483585959
0.00883301297792263,18.5947245105071
0.0094368245862989,18.5994425183966
0.0100955732032796,18.6041010761687
0.0108233645656657,18.6087376115031
0.0116417289404059,18.6134079782161
0.0125674167409755,18.6181114910564
0.0136254553696439,18.6228699425957
0.0148529504790388,18.6277293978382
0.0163161029911001,18.6328023107459
0.0181770297602248,18.6384238964311
0.0205972589586917,18.6448175845045
0.0221494239208078,18.6486056465378
0.0237318159024919,18.6523937085711
0.0251099682085118,18.6557909779287
0.0262723774988511,18.6589150892069
0.0272295461211837,18.6619323501941
0.0279295514391551,18.6648112928678
0.0283634351130891,18.6676235704196
0.0285176875785091,18.6705010398265
0.0283343278552412,18.6736534338681
0.0275596262244905,18.6777848919737
0.0267042510843714,18.680668718554
0.0256413750716559,18.6835525451343
0.024565390259536,18.6861095252651
0.0234917876464161,18.688469527554
0.0224172430509916,18.6907248121739
0.0213433886142773,18.6929223326095
0.0202736389665061,18.6950898183536
0.0192117022007391,18.697246010746
0.0181611527718442,18.6994047949481
0.0171253140561358,18.7015771780058
0.0161072308217538,18.7037723755834
0.0151096704224423,18.7059984700651
0.0141351344683169,18.7082628382045
0.0131858676968726,18.7105724621965
0.0122638714729125,18.7129341560712
0.0113709141455116,18.7153547544205
0.0105085361700063,18.7178412915144
0.00967806797667773,18.7204011347401
0.00888063104878558,18.7230421656367
0.00811074216436738,18.7257968102963
0.00735495713676853,18.7287385659523
0.00661714428262891,18.7318890297691
0.00590115446858301,18.7352740337957
0.00521103010484536,18.7389234642257
0.00455096035396111,18.7428720219309
0.00392519207219306,18.7471603021932
0.00333788971312158,18.7518364348338
0.00279293151957258,18.7569588498379
0.00229361070479092,18.7626016712554
0.00184243938826304,18.76886289067
0.00144515798163238,18.7757964386183
0.00117626843871336,18.7817038687041
0.000973348406530546,18.78761129879
0.000763383490047696,18.7957698846371
0.000600396542933467,18.8044494836416
0.000474483283224327,18.8137715931082
0.000381260660123833,18.8237715931082
0.00031975548021604,18.8337715931082
0.000281016098325085,18.8437715931082
0.000258550287698013,18.8537715931082
0.000247819132744392,18.8637715931082
0.000245788603730813,18.8737715931082
0.000250523108381693,18.8837715931082
0.000260869703528011,18.8937715931082
0.000276247648187627,18.9037715931082
0.000296527958274596,18.9137715931083
0.000321981763642224,18.9237715931083
0.000353284855294195,18.9337715931083
0.000391578911680399,18.9437715931083
0.000438604714282849,18.9537715931083
0.000493288085392939,18.963193410587
0.000555588230379962,18.9719101828065
0.000626354940795933,18.9799685371605
0.000706674424582566,18.9874181604024
0.000797818036632285,18.9943054416913
0.000901239841135288,19.0006735324776
0.00101859190810547,19.0065626063531
0.00115174744670686,19.0120100836065
0.00130282925899248,19.0170508207849
0.00147424115755271,19.021717290365
0.00166870645983865,19.0260397533277
0.00188931159378485,19.0300464235948
0.00213955999510464,19.0337636192684
0.00242343566094254,19.0372159126496
0.00274548313958126,19.0404262863221
0.00311090819824683,19.0434162938154
0.00352570650430189,19.0462062272603
0.00399683518761268,19.0488153070458
0.00453244622247195,19.0512619054764
0.00514221556174688,19.0535638233982
0.00583782870920441,19.0557386637576
0.0066077396795023,19.057742609965
0.00745787597847486,19.0595998782637
0.00840075994927776,19.0613426556548
0.00945511281975149,19.063003515075
0.0106517248214707,19.0646204599259
0.0120681575294392,19.0662696907441
0.0139372073858454,19.0681422562563
0.0158024310759461,19.0697822989963
0.0178492350581674,19.0714223417364
0.0196288664740713,19.0727808470917
0.0211701416403783,19.0739549762027
0.0225506764413594,19.0750482527013
0.0237870210155954,19.0761122804267
0.0248698123543159,19.0771849142955
0.0257720447315582,19.0783077529248
0.0264413070023671,19.0795462927296
0.0267556377461663,19.0810610680956
0.0264357818777237,19.0828412864539
0.0254806413364986,19.0846215048121
0.0243545503507862,19.0860624800968
0.0230837766258759,19.0874314268636
0.0216619270011139,19.0888259957564
0.0200967577275509,19.0902905730393
0.0183947386386164,19.0918636417845
0.0177254798337458,19.0924865559282
0.0170701127518197,19.0931094700719
0.0145991609998991,19.0956364952841
0.011930399417912,19.098785427482
0.00987272037712845,19.1016467956762
0.00827162183557083,19.1042543228947
0.00696279341633163,19.1067363777525
0.00582263482435066,19.1092563573007
0.00482385014702716,19.1118443164687
0.00394784380282492,19.1145234663032
0.00323703721447324,19.1170909786907
0.00265066603561879,19.1195778549526
0.00215370466712917,19.1220435076762
0.00171455245580728,19.1245949503485
0.00128860883907352,19.1275299970392
0.0010061910628965,19.1298170059547
0.000760338810669583,19.1321040148703
0.000573032669568758,19.1340836170669
0.000420990254479881,19.1358794412734
0.000286776677101044,19.1376367238226
0.00016093417396675,19.1394620727917
3.52134599502549e-05,19.1414950967488
-0.000104816387001225,19.1440683780333
-0.000318252885562252,19.1488582174234
-0.000462672955694383,19.1530281732989
-0.000560271762266567,19.1565811036166
-0.000642606732057814,19.1604367253662
-0.000713324745319271,19.1653229260299
-0.000743441667749123,19.1704386333034
-0.000722192736514303,19.1750103295171
-0.000648894849916969,19.1791631542233
-0.000520232287849216,19.1829237720319
-0.000331740100693408,19.1863369055565
-7.81300682245947e-05,19.1894482361016
0.000247179313227749,19.192306835338
0.00065327651833864,19.1949656724251
0.00115377828266164,19.1974817700257
0.00177105582401566,19.1999211636357
0.00253726553251882,19.20234639839
0.00350404148605403,19.2048338344605
0.00473627814558626,19.2074402288965
0.00622852272016673,19.2100650839148
0.00784220151350381,19.2124617530524
0.00946295341688409,19.2145268238176
0.0111140943043446,19.2163502768841
0.0128426301418056,19.2180108457052
0.0147255318588727,19.2195836878643
0.0167755350787145,19.2210689963842
0.0190300764247388,19.2224830312387
0.0215395528626398,19.2238428599686
0.0243299970875971,19.2251471563109
0.0274475308507642,19.226402956074
0.0309389393768334,19.2276142532487
0.0348496661694127,19.228782546804
0.0392414197254782,19.2299123541093
0.0441808307239137,19.2310067871375
0.0497445786212429,19.2320688774835
0.0560268187324085,19.2331024716296
0.063140819305819,19.2341116198894
0.0712238666955676,19.2351005870727
0.0804465449418119,19.2360741836225
0.091023923552344,19.2370378904186
0.103238671079893,19.2379985948686
0.117470246698053,19.2389649320337
0.134253831414824,19.2399486366153
0.154205223630943,19.2409581305096
0.177331737111606,19.2419717237577
0.20426665089546,19.2430012117427
0.23587943685491,19.2440636991535
0.273494682758709,19.2451876204263
0.315939154842124,19.2463379404915
0.354247484486938,19.2473164996012
0.386817452168014,19.2481367601048
0.41521436534377,19.2488710954282
0.440036608701894,19.2495586996456
0.461326340568567,19.2502246957401
0.478764766515805,19.2508900653523
0.49163131005844,19.2515770208186
0.498544433330226,19.2523153423798
0.496775633907057,19.2531413637475
0.484098464112787,19.2539800911321
0.459314864428839,19.2548464240776
0.420911480381262,19.2557514330749
0.367211107364994,19.2567045884494
0.325665560432241,19.2573238255063
0.279752028402323,19.2579430625632
0.238495084182297,19.2584664609754
0.202766461625083,19.2589086187838
0.171155871627281,19.2593003623307
0.142712922348268,19.259660470819
0.1168498709183,19.2600007229944
0.0931544392097656,19.2603297610485
0.0712849123216353,19.2606553134663
0.0508818418436397,19.260986401418
0.031388129336503,19.2613383922737
0.0110921985158854,19.2617603243293
0.000224963470879601,19.2620204677146
-0.00703144016628845,19.2622127340962
-0.0136575297324242,19.2624050004778
-0.0194593211722096,19.2625897737115
-0.0253602872760063,19.2627976503496
-0.0310955566937096,19.2630246048111
-0.0364905642796905,19.2632679839964
-0.041448275028934,19.2635267402078
-0.0459176937135829,19.2638008711526
-0.0498693696809289,19.2640911013812
-0.0533437876277368,19.264404399976
-0.056199605160209,19.2647286783382
-0.0585445900697161,19.2650741611443
-0.0603923765926036,19.2654438098669
-0.0617567646477799,19.265841136913
-0.0626511842503291,19.2662704694354
-0.0630872164788506,19.2667371820798
-0.0630730159598978,19.2672480416492
-0.0626113817865347,19.2678117368472
-0.0616946124115891,19.2684411565939
-0.0603013493310014,19.2691528805037
-0.0583880740470119,19.2699712782941
-0.0558667601930884,19.2709366657485
-0.0525303723284236,19.2721321354012
-0.0485005471144901,19.2735318335007
-0.0445986524890068,19.2748823596231
-0.040877129510293,19.2761899846485
-0.0373612794263995,19.277457717736
-0.0340636255182684,19.2786868154908
-0.030989345793097,19.2798776398865
-0.0281387215811027,19.2810301099578
-0.0255084583788524,19.2821439391718
-0.0230925432444466,19.2832187583059
-0.020882894874923,19.284254174506
-0.0188699058345542,19.2852497928096
-0.0170429148327332,19.2862052142079
-0.0153906216879723,19.2871200179268
-0.0138182681280003,19.2880441083538
-0.0123062024786496,19.2889919623071
-0.0108586754666382,19.289965345453
-0.00947957313036713,19.2909664485912
-0.00817256787227398,19.2919978479687
-0.00694106607759463,19.2930626026686
-0.00578815456247847,19.2941643824344
-0.00471654425700719,19.295307640653
-0.00372851074764423,19.2964978541483
-0.00282583068339124,19.2977418651304
-0.00200971199674711,19.2990483855293
-0.00128071398014684,19.3004287718078
-0.000638649514070398,19.301898277101
-8.24536643353278e-05,19.3034782097994
0.000370269596693372,19.305117867141
0.000727946779350731,19.306809224162
0.00100645171933178,19.3085707548211
0.00122033322943828,19.310425336467
0.00138342494306517,19.3124039708133
0.00150936357195346,19.314551499046
0.00161243985151133,19.3169389366615
0.00170945638384477,19.3196956293161
0.00182593697823328,19.3231278276719
0.00196840137074392,19.326892378392
0.00214116627854402,19.3308273219589
0.00233156424036589,19.3346787513118
0.0025365294866619,19.3385172112435
0.0027532772060002,19.3423946787904
0.00298021395410552,19.3463512253379
0.00321716579080071,19.3504211528569
0.00346527372125731,19.3546363670974
0.00372679511004911,19.3590284127903
0.00400492807223277,19.3636300113173
0.00430374832365233,19.368476516337
0.00462834345428359,19.3736072208911
0.00498526319882769,19.379066689197
0.00534649117672421,19.3843703451738
0.00572225216355207,19.3896352914617
0.00611166229457893,19.3948033571071
0.00651925952397169,19.3998907912843
0.0069489560773464,19.4049000659624
0.00740555393612519,19.4098399876977
0.00789406444287882,19.4147161231027
0.00841990727036054,19.419532363406
0.00898893412956843,19.424290334736
0.00960755547176389,19.4289899145116
0.0102828724400538,19.4336297670385
0.0110344789129243,19.4382765986161
0.0118802527522051,19.4429537816205
0.0128393821481274,19.447669137952
0.0139392952833588,19.4524484354668
0.0152225609958758,19.4573499218586
0.0167702267327808,19.4625202898523
0.0188111740592618,19.4684501799167
0.0206294655932795,19.4731667570352
0.0225710900625298,19.4778833341537
0.0241624232670741,19.4817032764594
0.0254770844630593,19.4850065553484
0.0265787976560064,19.4880840609999
0.0274688079865031,19.4910814158367
0.0280885556245283,19.4939282451155
0.0284407531092917,19.4967445063041
0.0285025453196774,19.4996751858344
0.0281890661037687,19.5029916409427
0.0272012418507863,19.5073559983147
0.0263092918924137,19.5100654698803
0.0252512091013636,19.512774941446
0.0241785732510959,19.5152412754285
0.0231049723659663,19.5175552861692
0.0220305463529001,19.5197850843775
0.020957972743207,19.5219685382077
0.0198908696895366,19.5241293868681
0.018832925950833,19.5262842787597
0.0177876355245916,19.5284458714908
0.0167582257328603,19.5306244024494
0.0157476445307493,19.5328285841874
0.014758565258385,19.5350661653117
0.0137933996742816,19.537344301811
0.012854307214761,19.5396698340006
0.0119432061025765,19.5420494974363
0.0110617859544092,19.5444900922717
0.0102115115700688,19.5469986566495
0.00939363919343141,19.5495825987804
0.00860921921624542,19.5522498707179
0.00784386843872972,19.555067588627
0.0070940154417889,19.5580794020007
0.00636347497730056,19.561308473937
0.00565617320580642,19.5647819386333
0.00497621492436984,19.5685312143238
0.00432782318088576,19.5725928594421
0.0037152378402862,19.5770097746782
0.00314254788548101,19.5818331810836
0.00261346707538765,19.5871259777655
0.00213102433357644,19.5929692691797
0.00169744799726342,19.5994713248932
0.0013234081647944,19.6065814442498
0.00101636261123608,19.6142687175226
0.000831483344280582,19.6206968315299
0.000648870464701613,19.6291818861505
0.000508632889441101,19.6381734166776
0.000398800661119238,19.6481734166776
0.000324693701515743,19.6581734166776
0.000276276425904807,19.6681734166777
0.000246244215240552,19.6781734166777
0.000229353116435793,19.6881734166777
0.000221983534648986,19.6981734166777
0.000221740123651636,19.7081734166777
0.000227107404662791,19.7181734166777
0.000237194892556136,19.7281734166777
0.000251572569311375,19.7381734166777
0.000270178438073538,19.7481734166777
0.000293279744698209,19.7581734166777
0.00032147817432424,19.7681734166777
0.000355759774488195,19.7781734166777
0.000397601357952838,19.7881734166777
0.000448045759661335,19.7979740670017
0.000505740329345696,19.8070542155341
0.000571407550268482,19.8154474465541
0.000646056590752576,19.8232051909068
0.000730884620266554,19.8303759348876
0.000827266098572474,19.8370047423014
0.000936763286745281,19.8431335231246
0.00106114700967808,19.8488012838568
0.0012024230073387,19.8540443395223
0.00136286231154573,19.858896502022
0.00154503595489775,19.8633892603339
0.00175185642106818,19.8675519533086
0.00198662638163434,19.8714119312252
0.00225309709431972,19.8749947084613
0.00255554077256347,19.8783241191844
0.00289884006697923,19.881422478727
0.00328860316094406,19.8843107492486
0.00373131327410439,19.8870087197561
0.00423452991242012,19.8895352144483
0.00480716888395196,19.891908343431
0.00545990566570745,19.8941458271787
0.00619398780113299,19.8962348227623
0.00700412733285704,19.8981619157963
0.00790066553009879,19.8999593400132
0.00889906214236646,19.901659306357
0.0100234807766213,19.9032966020851
0.0113169395534315,19.9049169921548
0.0129329742534019,19.9066618013529
0.0153459587902436,19.9088884219452
0.0170172672241685,19.9102646075303
0.0187858316348289,19.9116407931154
0.020401417955754,19.912873522263
0.021843838109416,19.9139971362715
0.023139987796773,19.9150717977225
0.024289282543577,19.9161383724924
0.0252726855025942,19.9172350093106
0.0260513251159154,19.9184127921937
0.0265458065605208,19.9197716990331
0.026491966188848,19.9216918435019
0.0258774032298053,19.9232165619314
0.0248600933608605,19.9247412803609
0.0236801866445582,19.9261238086628
0.0223444969427545,19.9274977924597
0.0208606380567766,19.9289196946442
0.0192375545789251,19.9304278274992
0.0179402079797295,19.9316312636759
0.0166775853266985,19.9328346998526
0.0153446303313179,19.9341800880935
0.0127561031353613,19.9370809632371
0.0105095422724715,19.9400213022128
0.0087604081711287,19.9427056731623
0.00736244658119425,19.9452053528459
0.00615968387022047,19.9477074092944
0.00510673861565872,19.9502675827567
0.00418264808256529,19.9529103456656
0.00343109600034569,19.9554391844171
0.00281968524268069,19.9578421790768
0.00231271394092262,19.9601525501037
0.0018824575340132,19.9624138375351
0.00150586347799219,19.964690789054
0.00115948656265442,19.9671065873158
0.000796719582402938,19.9700769377435
0.000589997945951961,19.9720336630755
0.000405115248410808,19.9739903884075
0.000254687212437638,19.9757568895617
0.000127271912323326,19.9773989152258
1.13509232833106e-05,19.9790288446524
-0.00010057391310045,19.9807456401928
-0.000216535443122424,19.9826974853922
-0.000354896636730914,19.9853015710682
-0.000549502664450296,19.9896082379074
-0.000687200666201309,19.9932704323294
-0.00079270239414947,19.996559572939
-0.000886937626712103,20
