ecg,time
0.000147866339303277,15.0066895484794
0.00015963570634821,15.0166895484794
0.000172862366080736,15.0266895484794
0.000187812611666197,15.0366895484794
0.00020481895429894,15.0466895484794
0.000224301500341443,15.0566895484794
0.000246797996021132,15.0666895484794
0.00027300685375626,15.0766895484794
0.000303850068695342,15.0866895484794
0.00034056739382895,15.0966895484794
0.0003848610589884,15.1066895484794
0.000436257170431278,15.1162062259135
0.000494432163060387,15.1250130172224
0.000560209680169592,15.1331528892054
0.000634596584558869,15.1406757461282
0.000718746083628757,15.1476284893085
0.000813967498407079,15.1540548370095
0.000921743997865981,15.1599955163685
0.00104375407730662,15.1654884518584
0.00118189701981913,15.1705689305321
0.00133832034404562,15.175269767841
0.00151545295176436,15.1796214764328
0.00171604200151867,15.1836524326584
0.00194319788502975,15.187389027054
0.00220044516861469,15.1908558094222
0.00249178636509461,15.1940756399964
0.00282177940913541,15.197069841514
0.00319563369125964,15.1998583459766
0.00361933398580339,15.2024598516978
0.00409980202814383,15.2048919960608
0.0046451135033404,15.2071715458168
0.00526480045493559,15.2093146277584
0.00597028762434794,15.2113370265581
0.00674634906772113,15.2131908976978
0.00759985164521573,15.2149040221307
0.00854144426816152,15.2165044094002
0.00958618594170643,15.2180188583938
0.0107570523031023,15.2194758601922
0.0121141539408278,15.2209322700757
0.0137977812854038,15.2224911161822
0.0161673117455435,15.2243722456208
0.018024855735837,15.2256814084933
0.0200171406485553,15.2269905713659
0.0218795487897946,15.2281736993548
0.0235352044951551,15.2292325363531
0.0250294626016106,15.2302338876086
0.0263712516569045,15.2312199572202
0.0275467404686009,15.2322264009971
0.0285226748191835,15.2332971770591
0.0292327304952784,15.2345107398033
0.0294950157578115,15.2361081381249
0.0290522876388055,15.2376901137566
0.0280398855421664,15.2392720893882
0.0268526172660308,15.2406126102625
0.0254908507544385,15.2419275291593
0.023952910319785,15.243291237396
0.0222456640579687,15.2447453008365
0.0203714478212861,15.2463322704834
0.0196350057148111,15.2469631233542
0.0189125530592803,15.247593976225
0.0166259665307893,15.2497204341543
0.0145532054855365,15.251861537579
0.0128033304058566,15.2538790524499
0.0113227250737447,15.2557829556685
0.010061954608662,15.2575878014566
0.00897969052006511,15.2593088436612
0.00804145310337662,15.2609628413133
0.00721797465329627,15.2625697216238
0.00648318171445971,15.2641561085247
0.00581089428282107,15.2657643727568
0.00516588482532542,15.2674837149567
0.00444694866669925,15.2696620022144
0.00405211926588326,15.2710083081937
0.00369150145970042,15.2723546141731
0.00339134480001868,15.2735772948758
0.00313035157654572,15.2747303552318
0.0028883606936722,15.2758878882936
0.00265104150786084,15.2771210412297
0.00240111510159847,15.2785458882697
0.00209275536699153,15.2805277805903
0.00171437588600637,15.2834227223224
0.00142791555057211,15.2861200158518
0.00119761100810286,15.2887901540948
0.000977442976699702,15.2920508901609
0.000771383898047007,15.2963933813805
0.000638623664915535,15.3012407380471
0.000594493640105466,15.3066474135577
0.000645139400959251,15.3113936857149
0.000771062142475354,15.3156491185018
0.000962948293516211,15.3194432252845
0.00121616351540555,15.3228231221531
0.00152861229009428,15.3258351159415
0.00190001790879764,15.3285262016831
0.00233209318677498,15.3309443580176
0.00282811257281927,15.3331331298662
0.00339422204943545,15.3351358532102
0.00404080967086626,15.3369956509152
0.00478482564204624,15.3387567514273
0.00565474565611346,15.3404691054811
0.00670001608228114,15.3421951324068
0.00803857448221331,15.3440589364322
0.00997944263676528,15.3463292169387
0.0123741150772411,15.3486961130056
0.0143905494360726,15.3504343173705
0.0166646548216176,15.3521725217353
0.0189192689264129,15.3536930946507
0.0212936747715227,15.355103467898
0.0237973021607938,15.356407000876
0.0265440747289714,15.35765478406
0.0295637043011438,15.358845688372
0.0329298539172206,15.3599940465036
0.036680150036393,15.3610976759777
0.0408855895625337,15.3621634433925
0.0456080348137198,15.3631929508883
0.0509097132342038,15.3641867700947
0.0568795698482954,15.3651490397313
0.0636112691399217,15.3660822458182
0.0712140306368714,15.366989031713
0.0798133787148432,15.3678718869171
0.0895638086526431,15.3687340122948
0.100648527448971,15.3695785593038
0.113287235611975,15.3704087558451
0.127746426907695,15.3712280156511
0.144352258113183,15.3720400015318
0.163507829994345,15.3728487140661
0.185725752582195,15.3736589324102
0.211685238717588,15.3744769431615
0.242380457430991,15.3753129316442
0.278153644901026,15.3761570197292
0.319595633724483,15.3770099798446
0.368097222471827,15.3778913745426
0.408854774522705,15.3785683282338
0.451694968200072,15.3792452819251
0.489657721059192,15.3798383388954
0.52293829953274,15.3803744451729
0.552473244031221,15.3808872684063
0.578410362280946,15.3814004423948
0.600357675272151,15.3819381432148
0.617235791926932,15.3825381402144
0.625765066107666,15.3832307891538
0.622195773399027,15.3839484890387
0.60541086487447,15.3847161558115
0.578309574315242,15.3854481115434
0.540225561556401,15.3862045851862
0.487975780522573,15.3870318655736
0.418718393744242,15.3879419289599
0.365151251491361,15.3885619499287
0.307368971726979,15.3891819708975
0.25765566868696,15.3896932059768
0.216188323832153,15.3901153570329
0.180320444220347,15.3904853953482
0.148488963031498,15.3908243044004
0.119804003398761,15.3911445655506
0.0936714885821004,15.3914552301643
0.0696056453784624,15.3917647147192
0.0470691420830991,15.3920839481464
0.0250631641179569,15.3924359380205
0.00788918918056655,15.3927514947138
-0.00173596262099554,15.3929505984795
-0.0104637639483963,15.3931497022452
-0.0172148560019137,15.3933191071449
-0.0234424837297604,15.393490396203
-0.0297540641779392,15.3936825627981
-0.035878702982097,15.393892112588
-0.0416412652114692,15.3941168860442
-0.0469428297470114,15.3943560674427
-0.0517307905491026,15.394609743906
-0.0559807790561154,15.3948786542222
-0.059685899051309,15.3951640665992
-0.0628501025266142,15.3954677370794
-0.0654839184008132,15.3957919241458
-0.0676015291279881,15.3961394502242
-0.069218608548061,15.3965138113633
-0.0703423667041714,15.3969193455895
-0.0709769023332133,15.397361671509
-0.0711332216339704,15.3978415435474
-0.0708262397425715,15.3983729233621
-0.0700493511067408,15.3989685477375
-0.0687792414553766,15.3996459460612
-0.0669661624361184,15.4004310649812
-0.0645049192230748,15.4013684978767
-0.0611284143088687,15.4025577943221
-0.0568956044419994,15.4039901655798
-0.052753587952475,15.4053769271877
-0.048765130934986,15.4067249133939
-0.0449640648763583,15.4080363371985
-0.0413691861698626,15.4093118750874
-0.0379910244579968,15.4105514347109
-0.0348346354176368,15.4117545624195
-0.0319009613657851,15.4129206597936
-0.0291876532471884,15.4140490971765
-0.026689683754188,15.4151392698382
-0.0243998745649862,15.4161906203236
-0.0223093794675758,15.4172026394787
-0.0204081332193832,15.4181748530455
-0.0186852637223007,15.4191067977121
-0.0170918167138934,15.4200202196462
-0.0155555754102996,15.4209569557049
-0.014081286378358,15.421918397641
-0.0126729041959545,15.4229065855495
-0.0113341973335716,15.4239239088968
-0.0100686921944915,15.424973195068
-0.00887961963673214,15.426057821799
-0.00776985869921518,15.4271818680004
-0.00674187728324032,15.428350320603
-0.00579766898091682,15.429569365765
-0.00493868434418895,15.4308468117761
-0.00416575331639243,15.4321927265989
-0.00347899253429575,15.4336204440749
-0.00287768495109545,15.4351482464132
-0.00236896511882118,15.4367703293035
-0.0019625661911149,15.438435982749
-0.0016415380747201,15.440163490329
-0.00139094495128457,15.4419731396325
-0.00119672741529098,15.4438918322062
-0.0010452737686959,15.4459572772948
-0.000922763339996596,15.4482266140123
-0.00081391878682552,15.4507968141849
-0.000698627687488987,15.4538672963255
-0.000554726862231513,15.4575996234606
-0.000386730453199135,15.4615183989046
-0.000171918834136461,15.4660218761087
8.17436410065614e-05,15.470996638109
0.000374881064125134,15.4766436815812
0.000714057326767303,15.4833346876474
0.00103661164923502,15.4899718248594
0.00135054947010892,15.4966447153507
0.00164735556273925,15.503092171607
0.00193429240346263,15.5094579400041
0.00220943945702325,15.5156564759513
0.00247739906164703,15.5217482341546
0.00273908436692493,15.5277088926621
0.00299719617402871,15.5335582744194
0.00325351824752366,15.5392967211924
0.00348435102376431,15.544365421115
0.00369174023161574,15.5488232849762
0.00389119182039798,15.5530124149461
0.00409529042790708,15.5571865488109
0.00432001036334157,15.5616384197524
0.00457529853133118,15.5664981363156
0.00483770784429831,15.5712555049778
0.00512237764520695,15.5761238981271
0.00537617681141953,15.5801952228299
0.00562509221562628,15.5839714670739
0.00587970636510787,15.5876297768481
0.00614626217929077,15.5912542348178
0.00642992884044291,15.5948975684174
0.00673582406285633,15.5985986577502
0.00706950548870061,15.6023891424188
0.00743741852183372,15.6062974742168
0.00784731421801691,15.6103508425492
0.00830875807917258,15.61457643083
0.00883383301303335,15.6190023440954
0.00943817748224029,15.6236583536219
0.0101060737100065,15.6283324439543
0.0108396836206749,15.6329774671639
0.0116614851013948,15.6376625522209
0.0125841996685042,15.6423700862304
0.0136305495008931,15.6471179205712
0.0148343254919116,15.6519462640425
0.0162550284236165,15.6569546535365
0.0180278013565444,15.6624170998627
0.020440484701004,15.6689020129636
0.0220192247862314,15.6727912249721
0.0236413465692533,15.6766804369806
0.025058063392102,15.680149922419
0.026250864830063,15.6833074239463
0.0272370354831915,15.6863337836266
0.0279735062685835,15.6892305922227
0.0284433403489854,15.6920426551417
0.0286368802972422,15.694897523217
0.0285055762373768,15.6979843586064
0.0278564322403655,15.7018447867123
0.0270179766922531,15.7048514747741
0.025941503959054,15.7078581628358
0.024856843443205,15.7104697484183
0.0237787797317735,15.7128525895704
0.0227005968276973,15.7151175745782
0.0216229976661837,15.7173176860781
0.0205492113569196,15.7194829841287
0.0194829524915821,15.7216332785052
0.0184278542452352,15.7237829719401
0.0173873253624327,15.7259432665754
0.016364494089228,15.7281233904324
0.0153622250831208,15.7303312601031
0.0143831058919856,15.7325739763148
0.0134294738295417,15.7348580953754
0.0125034230579398,15.7371898563707
0.0116067963749004,15.7395753969782
0.0107412188498184,15.7420208305575
0.00990808859402906,15.7445324105011
0.00910858589670612,15.7471166408921
0.00833239617184387,15.7498212713139
0.0075694742258645,15.7527069908166
0.00682359458769729,15.7557946740168
0.00609856857280605,15.759109074091
0.00539840588069228,15.762678799828
0.00472727319277281,15.766537043041
0.00408941357508317,15.7707225880863
0.00348901668599497,15.7752813285112
0.00293002060671799,15.7802688488007
0.0024158529140505,15.7857550173287
0.00194918836692457,15.7918316582524
0.00153192651361605,15.7986226952742
0.00118066736780163,15.8059325356831
0.000888721178661052,15.8138617854029
0.000649481026470623,15.8225498993702
0.000456881471632554,15.8321802082591
0.000314971464847068,15.8421802082591
0.000216774843131671,15.8521802082591
0.000152544016706911,15.8621802082591
0.000109166674734637,15.8721802082591
7.93400515810099e-05,15.8821802082591
5.89213199370022e-05,15.8921802082591
4.52577893427305e-05,15.9021802082591
3.64420929635299e-05,15.9121802082591
3.1054645782014e-05,15.9221802082591
2.80622776829445e-05,15.9321802082591
2.70112149022175e-05,15.9421802082591
2.76272645709552e-05,15.9521802082591
2.92996942145701e-05,15.9621802082591
3.16390955608225e-05,15.9721802082591
3.44194669126662e-05,15.9821802082591
3.75086563066178e-05,15.9921802082591
4.08302455558769e-05,16.0021802082591
4.43420179512743e-05,16.0121802082591
4.80233709041919e-05,16.0221802082591
5.18677543477211e-05,16.0321802082591
5.58780614534219e-05,16.0421802082591
6.00638158932117e-05,16.0521802082591
6.44394795886691e-05,16.0621802082591
6.90234747085071e-05,16.0721802082591
7.38376741197672e-05,16.0821802082591
7.89072121502474e-05,16.0921802082591
8.42605273634631e-05,16.1021802082591
8.99295862723859e-05,16.1121802082591
9.59502610271015e-05,16.1221802082591
0.000102362850871225,16.1321802082591
0.000109212749981581,16.1421802082591
0.000116551275258343,16.1521802082591
0.00012443667812585,16.1621802082591
0.000132935375571769,16.1721802082591
0.000142123448584811,16.1821802082591
0.000152088472058101,16.1921802082591
0.000162931760593218,16.2021802082591
0.000174771141428463,16.2121802082591
0.000187744401626413,16.2221802082591
0.000202013605530524,16.2321802082591
0.000217770545913612,16.2421802082591
0.000235243686433171,16.2521802082591
0.000254707086362646,16.2621802082591
0.000276491990006878,16.2721802082591
0.000301002042164029,16.2821802082591
0.000328733504115986,16.2921802082591
0.000360302467415928,16.3021802082591
0.000394911470105294,16.3117576822796
0.000431201592722807,16.320545513496
0.000468940863835848,16.3285961674337
0.000507977724794542,16.3359742325652
0.00054817576859308,16.3427395519962
0.000589397251511164,16.3489469708033
0.000631500541546329,16.3546468077031
0.000674340430385757,16.3598851698614
0.000717777504667826,16.3647043108513
0.000761676368201218,16.3691430199391
0.000805916826022142,16.3732368752902
0.000850390578051054,16.3770186030486
0.000895009195549201,16.3805183337986
0.000939708395963314,16.3837639272215
0.000984446499951726,16.3867812557536
0.00102921638488442,16.3895945422093
0.00107404913408096,16.3922267191157
0.00111902079212401,16.3946998790594
0.00116427242366195,16.397035871927
0.00121003413121129,16.3992571867812
0.00125666794634474,16.4013884224106
0.0013047615232024,16.4034590596816
0.00135533662871225,16.4055095971205
0.00141042117140386,16.4076084743109
0.00147536344264648,16.4099204843191
0.00153936693422619,16.4120441173371
0.00160798576839891,16.4141677503552
0.00166707156020451,16.4158816054889
0.0017220349835435,16.4173891266683
0.00177802959963785,16.4188458728958
0.00183882262971083,16.4203442500822
0.00190972660236309,16.4219915691592
0.00200328024532888,16.4240158023749
0.00220410906008608,16.4278720444105
0.00243886169882275,16.431693583154
0.00268444808180818,16.43508857107
0.00299314512571125,16.4387148440655
0.00343399205918368,16.4430304190037
0.00396879990304116,16.4473360623383
0.00456559027305934,16.4512959053302
0.00521933045042518,16.4548863393378
0.0059458016307133,16.4581970122216
0.00676271082170245,16.4612880139672
0.0076883468151326,16.4641966056343
0.00874441463452429,16.466953386818
0.0099364407614459,16.4695438655379
0.0112750557111422,16.4719772325768
0.0128030495991572,16.4743123973398
0.0145661637900575,16.4765879075113
0.0164906704659559,16.4787072229622
0.0185844881216541,16.4807069941272
0.0208570561701942,16.4826233190631
0.0233252084845867,16.4844976829495
0.0256069805646484,16.4861019133139
0.027754438880703,16.4875402780099
0.029838404757544,16.4888994818689
0.0318979085763302,16.4902311301554
0.0339679415360615,16.4915784037859
0.0361008304752999,16.4929925407078
0.0384077440572679,16.4945595646818
0.0406616463203745,16.4961126372323
0.0427842809052574,16.4975534153024
0.0449067095778603,16.4989187019851
0.0470939599311103,16.500201214688
0.0494704990844131,16.5014312477148
0.0521233246964282,16.5026148746599
0.055117389394344,16.5037496533903
0.0585447711270243,16.5048447182036
0.0624868646048321,16.5059031566897
0.0670224176301211,16.5069264562782
0.0722540511152005,16.5079187878766
0.0772069410414788,16.5087199821948
0.0839871662977553,16.5096589294495
0.0918357102066156,16.5105799754711
0.100882519293383,16.5114825583523
0.111318622749118,16.5123703657596
0.123382181901319,16.5132475961764
0.137372529456121,16.5141189711853
0.153671385905873,16.5149899190546
0.172779741589295,16.5158671047159
0.195372614681746,16.5167589816459
0.222126869742017,16.5176684663026
0.253153427267717,16.5185805760903
0.289237304377489,16.5195046206825
0.331492850532269,16.5204566381724
0.381906464768721,16.5214722165661
0.41802769689127,16.5221520752739
0.454992580816155,16.5228319339816
0.487936714057984,16.5234468398052
0.516955780725965,16.5240204856983
0.542367097733541,16.5245800113104
0.563969213943753,16.5251485197375
0.581025885199069,16.5257536591391
0.591805630084204,16.5264443629861
0.592335215615516,16.5271896038029
0.580740549663731,16.5279658038988
0.555519471183898,16.5287946247139
0.517545117592295,16.5296348292257
0.465470985899301,16.5305145273742
0.399023424691277,16.5314289601409
0.350361679098239,16.5320173309825
0.298017553388142,16.532605701824
0.252179450896487,16.5331003692157
0.213162524879868,16.5335173226706
0.179018952751612,16.5338870074216
0.148518499076232,16.5342277194597
0.120918108901828,16.5345509367436
0.0956993623496065,16.5348653061219
0.0724220413084365,16.5351791044139
0.0505803038856395,16.5355033352615
0.0291989750604526,16.535861632966
0.0127709111881591,16.5361773995599
0.00351784076974134,16.5363771430823
-0.00488931691992147,16.5365768866047
-0.0115723580866569,16.5367513867544
-0.0177535454972142,16.5369284042813
-0.0239956089581464,16.5371264278113
-0.030038199444951,16.5373419648859
-0.0357145433139576,16.5375728913078
-0.0409313440057178,16.537818437532
-0.0456396588964023,16.5380787402928
-0.049817467369141,16.5383545903278
-0.0534593552778205,16.5386473111759
-0.0565701915068886,16.5389587193264
-0.0591589445382772,16.539291140887
-0.0613504975920217,16.5396727886479
-0.0628685889757003,16.5400551824312
-0.0639069133512278,16.5404690776807
-0.0644804258400925,16.5409203574462
-0.0645987443686384,16.5414160941208
-0.064265525208123,16.5419654818672
-0.0634733224689202,16.5425821239268
-0.0621986137679635,16.5432842394535
-0.0603910225594307,16.5440994581734
-0.0579423351255556,16.5450762111306
-0.0545653930324039,16.5463277919976
-0.0506103458459469,16.5477430855556
-0.0467577038107697,16.5491139812611
-0.0430643989151026,16.550445570231
-0.0395598112625538,16.5517399403627
-0.036260031930878,16.5529977478575
-0.0331735156433803,16.5542189325731
-0.0303035394981601,16.5554030982141
-0.0276494791470776,16.5565497133187
-0.0252076220149678,16.557658215618
-0.0229717894463755,16.5587280621672
-0.0209338708128565,16.5597587472349
-0.0190843052501346,16.5607497997217
-0.0174125198359771,16.5617007666285
-0.0159073235002124,16.5626111861821
-0.0144726625585034,16.5635369427559
-0.0131011146551546,16.5644866029567
-0.0117970422795451,16.5654620033486
-0.0105645728231645,16.5664653598963
-0.00940765235093702,16.5674992827276
-0.00833000011508003,16.568566875281
-0.00733506305579055,16.5696718653521
-0.00642597019132776,16.5708187828506
-0.00560548760956349,16.5720132068431
-0.0048759748551694,16.5732621188599
-0.00423934375914408,16.5745744257463
-0.00369702139696869,16.5759617662281
-0.00324992054887275,16.5774398210603
-0.00289842568996939,16.5790305866819
-0.00265321414154238,16.5806735681885
-0.00250114519635868,16.5823699773897
-0.00242686509888783,16.5841383614142
-0.0024159942490743,16.586002164781
-0.00245460135400286,16.587993316439
-0.00252859401186433,16.5901583191005
-0.00262273440767982,16.5925715539072
-0.00271857992470602,16.5953707519919
-0.00278795823915894,16.598893917907
-0.00278128553239885,16.6026718732115
-0.00268902938342761,16.606496005892
-0.00253075605470758,16.6101652921156
-0.00234841115708382,16.6133658712579
-0.00214871475968394,16.6163703195655
-0.00193489784978529,16.6192911862833
-0.00170910096752783,16.6221862597934
-0.00147270064784006,16.6250924112527
-0.00122653268283698,16.628036618573
-0.000971030923678274,16.6310406663072
-0.000706311469412572,16.6341235587141
-0.000432224194090854,16.6373029224671
-0.000148376189395965,16.6405959766856
0.00014586800940448,16.6440202945741
0.00045140546473779,16.6475944377479
0.000769429368462859,16.651338465494
0.00110147928300634,16.6552743170531
0.0014495185634384,16.6594261658071
0.00181599102829518,16.6638201034457
0.00217875234422826,16.6681795224099
0.00253483771619997,16.6724555635496
0.00289160167302774,16.6767227841652
0.00325489838771359,16.6810352757759
0.00362993578868342,16.6854359298645
0.00402183521254203,16.6899617575854
0.00443610102678153,16.6946474662499
0.00487904564748461,16.6995273646766
0.0053583103009349,16.7046364926096
0.00584939261713744,16.7096658129043
0.00635993585502567,16.7146588909694
0.00689164070998433,16.7195905056659
0.0074493589316911,16.7244613672859
0.0080381606367428,16.7292679197712
0.00866428935836522,16.7340105935433
0.00933481625457831,16.7386898725946
0.0100576872577392,16.7433060851224
0.0108586635829503,16.7479529221632
0.0117524876135666,16.7526264949048
0.0127607619224624,16.7573422731899
0.0139132003210662,16.7621295152668
0.015257176142748,16.7670561203034
0.0168869071874343,16.7722971573904
0.0191004184119524,16.7784989567184
0.0208401554654279,16.7828889062323
0.0226727896254109,16.7872788557463
0.0242223449652865,16.7909829621692
0.0255147510297704,16.7942420366971
0.0265964376620896,16.7973022698377
0.0274559203867411,16.8002702029585
0.0280459337271704,16.8031043277211
0.0283667495804682,16.805925146532
0.0283907201108624,16.808884907582
0.0280168458249479,16.8122950717768
0.0272407028387075,16.8157178551674
0.0261259569235963,16.8191406385581
0.0250323083733438,16.8219058404053
0.0239600354198901,16.824350407819
0.0228893298235489,16.8266476690585
0.0218181883625367,16.8288664950813
0.0207494128540701,16.8310424162168
0.0196867075600923,16.8331978318213
0.0186337906296598,16.8353485858347
0.0175941634434846,16.8375067861765
0.0165710547697676,16.8396822411037
0.0155674128929848,16.8418832874606
0.014585910739788,16.8441173137793
0.0136289617505093,16.8463910972936
0.0126987245554213,16.8487110673892
0.0117971178874967,16.851083484037
0.0109258307125976,16.853514587264
0.0100863230863221,16.8560107499327
0.00927984197624607,16.8585785777871
0.00850513501927465,16.8612331919434
0.00774256260212968,16.8640632883573
0.00699595192784396,16.8670883976591
0.00626903928700766,16.8703321731719
0.00556577273117024,16.8738218731668
0.00489027068684745,16.877589047273
0.00424675521491292,16.8816704128337
0.0036394397771257,16.8861091297821
0.0030723559070145,16.8909568813562
0.00254910620001195,16.8962776311243
0.00207259317806615,16.9021542119814
0.00164491097159072,16.9086976672939
0.00127720655068074,16.9158434548668
0.000970754482788572,16.9235755240931
0.000718922644213941,16.9320204492933
0.000515504665275555,16.9413466221955
0.000360369799467989,16.9513466221955
0.000251474479302414,16.9613466221955
0.000175041944932656,16.9713466221955
0.000121413319756249,16.9813466221955
8.45511822515722e-05,16.9913466221955
5.99349191721292e-05,17.0013466221955
4.30992852718702e-05,17.0113466221955
3.14424658690717e-05,17.0213466221955
2.33962456586008e-05,17.0313466221955
1.79201661025717e-05,17.0413466221955
1.42697188895309e-05,17.0513466221955
1.19025115051208e-05,17.0613466221955
1.04304753197016e-05,17.0713466221955
9.58270362726964e-06,17.0813466221955
9.17297570519859e-06,17.0913466221955
9.07371632068064e-06,17.1013466221955
9.19717268163529e-06,17.1113466221955
9.48268367637603e-06,17.1213466221955
9.88824834451104e-06,17.1313466221955
1.03848671154519e-05,17.1413466221955
1.09526482635818e-05,17.1513466221955
1.15780827461272e-05,17.1613466221955
1.22521300261288e-05,17.1713466221955
1.2968880761785e-05,17.1813466221956
1.37246296816714e-05,17.1913466221956
1.45172367439032e-05,17.2013466221956
1.53456887118954e-05,17.2113466221956
1.62097993996673e-05,17.2213466221956
1.71100059753243e-05,17.2313466221956
1.8047232099166e-05,17.2413466221956
1.90227978146692e-05,17.2513466221956
2.00383623424031e-05,17.2613466221956
2.1095890222325e-05,17.2713466221956
2.21976342470967e-05,17.2813466221956
2.3346130735809e-05,17.2913466221956
2.45442041827694e-05,17.3013466221956
2.579497936608e-05,17.3113466221956
2.71018997486152e-05,17.3213466221956
2.84687515451874e-05,17.3313466221956
2.98996932323734e-05,17.3413466221956
3.13992905902094e-05,17.3513466221956
3.29725576226857e-05,17.3613466221956
3.46250039324171e-05,17.3713466221956
3.63626893438941e-05,17.3813466221956
3.8192286795635e-05,17.3913466221956
4.01211547688655e-05,17.4013466221956
4.21574208031826e-05,17.4113466221956
4.43100779830123e-05,17.4213466221956
4.6589096679612e-05,17.4313466221956
4.90055543223889e-05,17.4413466221956
5.15717865758297e-05,17.4513466221956
5.43015640467141e-05,17.4613466221956
5.72102995822856e-05,17.4713466221956
6.03152923983055e-05,17.4813466221956
6.36360167685367e-05,17.4913466221956
6.71944649102027e-05,17.5013466221956
7.10155561422916e-05,17.5113466221956
7.51276275497658e-05,17.5213466221956
7.95630254951309e-05,17.5313466221956
8.43588227077272e-05,17.5413466221956
8.95576928070018e-05,17.5513466221956
9.52089836198151e-05,17.5613466221956
0.00010137004344283,17.5713466221956
0.000108107871783454,17.5813466221956
0.00011550118997956,17.5913466221956
0.000123643060230829,17.6013466221956
0.000132644228115346,17.6113466221956
0.000142637429871394,17.6213466221956
0.000153783001194015,17.6313466221956
0.000166276263995287,17.6413466221956
0.000180357375261559,17.6513466221956
0.000196324636247775,17.6613466221956
0.000214552744283683,17.6713466221956
0.000235518230763547,17.6813466221956
0.000259835553431218,17.6913466221956
0.00028830933004074,17.7013466221956
0.000322011621688509,17.7113466221956
0.000362399151090624,17.7213466221956
0.000410783740561416,17.7312137454088
0.00046562760791032,17.7403584604267
0.000527640458504319,17.7488114674515
0.000597760212950854,17.7566238288058
0.000677069955119005,17.7638440294319
0.000766802362036421,17.7705172892184
0.000868354735281936,17.7766857411576
0.000983308889919284,17.7823886277367
0.00111345468786927,17.7876624775781
0.00126081685243885,17.792541267425
0.00142768458447527,17.7970565903658
0.00161664727556797,17.8012378247789
0.00183063494889075,17.8051122935874
0.00207296601007735,17.8087054088149
0.00234740498905515,17.8120408198673
0.00265823201850972,17.8151405666899
0.00301033023580505,17.8180252279224
0.00340929457426306,17.8207140713945
0.00386157327315303,17.8232252194095
0.0043746562564995,17.825575829007
0.00495733132603317,17.8277822998684
0.00562004798819777,17.8298605361871
0.0063611936532399,17.83179236969
0.00717602906457586,17.8335699137875
0.00807336992878409,17.835221433312
0.00906584816808915,17.8367740340887
0.010171962736263,17.8382548985893
0.0114214953826542,17.8396953414954
0.0129251877719423,17.8411917333271
0.0148751894211349,17.8428626700455
0.0170384265954206,17.8444793668099
0.018903263728967,17.8457467019065
0.0208710373703313,17.8470140370031
0.0226338664142746,17.8481314992421
0.0242152773362126,17.8491585097206
0.0256429272977371,17.8501485909671
0.0269142712857075,17.8511390375354
0.0280073425183364,17.852167250778
0.0288774891311552,17.8532872949911
0.0294285954162328,17.8546163815604
0.0292629470727206,17.8566850263197
0.0285407792346695,17.8580707053947
0.0274505342294366,17.8594563844697
0.0261780521380338,17.8607656066777
0.024724802423635,17.8620993852886
0.0230985812364739,17.8635047786332
0.021305182409973,17.865021388396
0.0197912781378708,17.8663100171128
0.0183292483864771,17.8675986458296
0.0165241735066115,17.8693022180447
0.0144779828690937,17.8714257946415
0.0127399061155232,17.8734384511811
0.0112687501404979,17.8753383448377
0.0100156856923634,17.8771397460674
0.00893966842063334,17.8788579607143
0.00800647124915329,17.8805098008541
0.00718701445823287,17.882115314883
0.00645530082881251,17.8837014766585
0.00578504642616898,17.8853115697887
0.00514032022122987,17.8870379174254
0.00441286183014838,17.8892554471677
0.00402427674634138,17.8905899065023
0.00366909860696819,17.8919243658369
0.00337250025387907,17.8931395165706
0.00311333497342616,17.8942907788164
0.00287217371704433,17.8954507382297
0.00263477475033465,17.8966916353952
0.00238326585435421,17.8981354502266
0.00206674224810533,17.900190755447
0.00170686036698828,17.9029695671237
0.00143810476917542,17.9054970369234
0.00121874324850328,17.9080035068446
0.00100824496271581,17.9110193806016
0.000793608472761587,17.9153035412377
0.000651056810997639,17.920083935128
0.000594429051092276,17.925459359479
0.000634212631762447,17.9302832261292
0.000750937127218251,17.934601772748
0.000934539007779779,17.9384540662603
0.00117987268250484,17.9418855921328
0.0014845250481077,17.9449425670424
0.00184822246991182,17.9476738657726
0.00227212519410736,17.9501251129983
0.0027595543185146,17.9523420655966
0.00331594121163753,17.9543667563972
0.00395095548624411,17.9562424002347
0.00468032731175146,17.9580127942572
0.00552936301280839,17.959724779343
0.00654594936531425,17.9614429612699
0.00783294902593887,17.9632765899421
0.00968357919265136,17.965492230047
0.0120097035569934,17.9678437424419
0.0140632922926756,17.9696497840279
0.0163868487096752,17.9714558256138
0.0186436659864494,17.9730013114188
0.0210013564224036,17.974423705368
0.0234781994162732,17.9757345293657
0.0261925381146411,17.9769888067348
0.0291745043016805,17.9781857787273
0.0324951209659736,17.9793392280677
0.0361952050287956,17.9804482114362
0.0403428202462528,17.9815189139921
0.0449941584485953,17.9825519424532
0.0502199056621239,17.9835499770919
0.0561034979880146,17.9845161750183
0.0627367000554914,17.9854529726508
0.0702262825209942,17.9863629553927
0.0786941188657447,17.9872485006075
0.0882933787069593,17.9881130151074
0.0992026164971752,17.9889595648697
0.111636454421335,17.9897913559271
0.125854998204035,17.9906117767043
0.142175286629642,17.9914244106014
0.16099083598189,17.9922332685601
0.18279809663544,17.9930429867349
0.208250367464864,17.9938595792139
0.238288436681815,17.9946925150008
0.273425892330556,17.9955362692479
0.314102775975987,17.9963873363285
0.36161937878929,17.9972634561443
0.403412466837074,17.9979645306026
0.447603742084542,17.9986656050608
0.486205690158169,17.9992681718789
0.519889338932165,17.999808135358
0.549772045156442,18.0003220974324
0.576067693427032,18.0008342489547
0.598435420946762,18.0013682727466
0.615886075436352,18.0019596381221
0.625489314335673,18.0026512351613
0.623055937183617,18.003365634639
0.607544801853582,18.0041276905985
0.581399954396454,18.004861002924
0.544497621720702,18.0056127310441
0.493806820279274,18.0064315373455
0.42608061906561,18.0073363093138
0.371484202232078,18.0079756740018
0.312269835868444,18.0086150386897
0.261544378562904,18.0091378748158
0.219472847391558,18.009566103345
0.183201091808982,18.0099395974285
0.151066491502355,18.0102805945779
0.122139235492437,18.0106020625804
0.0958087682381001,18.0109132227049
0.0715856609140912,18.0112224472398
0.0489457286607631,18.0115402549913
0.0269683014906872,18.0118876991926
0.00853258946244466,18.0122230810794
-0.00134372597905545,18.0124263471533
-0.0102830737279452,18.0126296132272
-0.017065970112157,18.0127994438092
-0.0232870016113581,18.0129701560045
-0.029600076178303,18.0131618497581
-0.035731857534533,18.0133710024567
-0.0415048122422468,18.0135954136333
-0.0468185554588693,18.0138342405607
-0.051619595561941,18.0140875517978
-0.0558830194276805,18.0143560719468
-0.0596015923181352,18.014641056929
-0.0627790574169693,18.0149442507845
-0.0654258209079808,18.0152678990541
-0.0675560038507544,18.0156148092005
-0.0691852652327337,18.0159884588072
-0.0703212113621349,18.0163931625841
-0.0709693529510236,18.0168363400848
-0.0711354319884591,18.0173152603777
-0.0708381843521216,18.0178454524754
-0.0700713266620506,18.0184395708668
-0.0688119508164765,18.0191150339552
-0.0670110579431668,18.0198975383503
-0.0645651932421543,18.0208310899214
-0.0612134578196801,18.0220131299736
-0.0569795902576726,18.023446623262
-0.0528350802078029,18.0248341873107
-0.0488432194397935,18.0261829103778
-0.0450382573040624,18.0274950467695
-0.0414392002885776,18.0287712938452
-0.0380567069920051,18.0300115694093
-0.0348959256747594,18.0312154242536
-0.0319578713778673,18.0323822613797
-0.0292402542226032,18.0335114510013
-0.0267380950201328,18.0346023875515
-0.0244442535955401,18.0356545125456
-0.0223499126461539,18.0366673159455
-0.0204450272512136,18.0376403229914
-0.0187187378132261,18.0385730704351
-0.0171242009862124,18.0394860370355
-0.0155867643280819,18.0404222965947
-0.0141111981208519,18.0413832242263
-0.0127014600935147,18.0423708537899
-0.0113613230344427,18.0433875669219
-0.0100943187051597,18.0444361812302
-0.00890368441443522,18.0455200620891
-0.00779230680377786,18.0466432725467
-0.00676266259645286,18.0478107788153
-0.00581675550962317,18.0490287394057
-0.00495604765310332,18.0503049247362
-0.00418138218169052,18.051649349186
-0.00349289099057336,18.053075267621
-0.00288987506865778,18.0546008395207
-0.00237893349891228,18.0562222288874
-0.00197067532428569,18.0578868307805
-0.00164809345884506,18.0596129348069
-0.00139623127679047,18.061420724175
-0.00120101544715712,18.0633369383329
-0.00104883049601867,18.0653990100657
-0.000925868489125487,18.0676635571978
-0.000816900658072012,18.0702263998117
-0.000701979248211479,18.0732835706709
-0.000558251773847345,18.0770160370514
-0.000390911269963617,18.0809270556773
-0.000177112580288595,18.0854161222666
7.6172557502391e-05,18.0903866700343
0.000368324599070069,18.0960134487468
0.000707200643151042,18.1026931132493
0.00103032628835422,18.1093357224654
0.00134437423711875,18.1160079127411
0.00164154983704157,18.1224602832552
0.00192867486261357,18.1288274943947
0.0022040507497451,18.1350293150481
0.00247214945227553,18.14112317609
0.00273395447649777,18.1470863816536
0.00299213647281599,18.152937998235
0.00324849025617187,18.1586785885424
0.00348015772936697,18.1637675816678
0.00368795575651488,18.1682358844675
0.00388748656436752,18.17242841613
0.00409135512292582,18.1765999170916
0.00431532704453316,18.1810398069581
0.00457072569891,18.1859056785008
0.00483290188644863,18.190663079863
0.00511900542151381,18.1955612446912
0.00537315660603282,18.1996413619588
0.00562212053403299,18.2034209733969
0.00587664900168298,18.2070805483141
0.00614302606165734,18.2107050888062
0.00642643050983373,18.2143476786058
0.00673197888829408,18.2180473846505
0.00706522011242566,18.2218359412806
0.0074325829712313,18.2257418329809
0.00784179521026327,18.2297922591356
0.0083023898036224,18.2340143931303
0.00882640395506649,18.238436314569
0.00942940979157814,18.2430877536418
0.0100966638605239,18.2477634835151
0.0108291341360105,18.2524075732724
0.0116497316773305,18.2570924971108
0.0125709846941989,18.2617996810725
0.0136155250617272,18.2665468695006
0.0148169059878728,18.2713736924373
0.0162341205797001,18.276378553512
0.0180004306291406,18.2818310870963
0.020412916226686,18.2883252357689
0.0219950129167309,18.2922257321581
0.0236217145127383,18.2961262285473
0.0250417529958855,18.2996017156548
0.0262372126949371,18.3027619140889
0.0272260153827425,18.3057890339951
0.0279659047620322,18.3086876629456
0.02843913606387,18.311500055908
0.0286363718779414,18.3143534318131
0.0285098228693094,18.3174354180179
0.0278707373080427,18.3212766645114
0.0270340738111308,18.3242946194254
0.0259567031775785,18.3273125743394
0.0248716374720824,18.3299291135357
0.023793529007306,18.33231417511
0.0227153485340531,18.3345803355595
0.0216377183589849,18.3367810979775
0.0205638517511553,18.3389467222024
0.0194974618101645,18.3410971165499
0.0184421844003007,18.3432467388516
0.0174014317294066,18.3454068253554
0.0163783358905749,18.3475866256011
0.0153757653305226,18.3497940701426
0.0143963109584548,18.3520362693205
0.0134423138280935,18.3543197843606
0.0125158710606283,18.3566508581749
0.0116188289476167,18.3590356285599
0.0107528158020351,18.3614802074863
0.00991923242734971,18.3639908466316
0.0091192622348994,18.3665740453147
0.00834291575982062,18.3692763359807
0.00757978495737636,18.372159458389
0.00683364609302685,18.3752442307354
0.00610830748215587,18.3785553584924
0.00540777636789718,18.3821213934048
0.00473621775825037,18.3859754588592
0.00409787440505195,18.3901562546283
0.00349693784541287,18.3947095637044
0.00293735113810292,18.3996908148994
0.0024225508487648,18.4051696370644
0.00195522275393052,18.4112374925179
0.00153727564772069,18.4180177983883
0.00118514421880599,18.4253197218658
0.000892416658418048,18.4332394494363
0.000652483115463496,18.4419158344578
0.000459271459670933,18.4515314690385
0.000316654277675827,18.4615314690385
0.000217884741539198,18.4715314690385
0.000153286565461641,18.4815314690385
0.000109668905710026,18.4915314690385
7.96791054742257e-05,18.5015314690385
5.91461638731156e-05,18.5115314690385
4.54018780698459e-05,18.5215314690385
3.65293388034414e-05,18.5315314690385
3.11022204696869e-05,18.5415314690385
2.80823114609689e-05,18.5515314690385
2.69999869819519e-05,18.5615314690385
2.75935468624977e-05,18.5715314690385
2.92533704049584e-05,18.5815314690385
3.15855506174011e-05,18.5915314690385
3.43616443423838e-05,18.6015314690385
3.74481456908158e-05,18.6115314690385
4.07678667141938e-05,18.6215314690385
4.42781414475382e-05,18.6315314690385
4.79580978190551e-05,18.6415314690385
5.18010189271223e-05,18.6515314690385
5.58096902636599e-05,18.6615314690385
5.99935617697294e-05,18.6715314690385
6.43670405845935e-05,18.6815314690385
6.89485038456039e-05,18.6915314690385
7.37597832750366e-05,18.7015314690385
7.88259719963328e-05,18.7115314690386
8.41754644522833e-05,18.7215314690386
8.98401778494663e-05,18.7315314690386
9.58559278428266e-05,18.7415314690386
0.000102262948032006,18.7515314690386
0.000109106555711015,18.7615314690386
0.000116437977286513,18.7715314690386
0.000124315357273602,18.7815314690386
0.000132804985929304,18.7915314690386
0.000141982793483728,18.8015314690386
0.000151936174784243,18.8115314690386
0.000162766228460633,18.8215314690386
0.000174590521400495,18.8315314690386
0.000187546525083955,18.8415314690386
0.000201795918985791,18.8515314690386
0.000217530023357388,18.8615314690386
0.000234976717445563,18.8715314690386
0.000254409331902957,18.8815314690386
0.000276158194605988,18.8915314690386
0.000300625786570737,18.9015314690386
0.000328306875497289,18.9115314690386
0.000359815613678678,18.9215314690386
0.000394386394542751,18.9311173342662
0.000430639426035441,18.9399131599885
0.000468341449484291,18.9479711016333
0.00050734060275469,18.9553557947458
0.000547500484548532,18.9621271394365
0.000588683445821981,18.9683400329267
0.000630747979190056,18.974044841141
0.00067354896324972,18.9792877154445
0.000716947028061794,18.984110948503
0.000760806794033155,18.9885533658472
0.000805008076831613,18.9926505781386
0.000849442434070409,18.9964353408427
0.000894021436142289,18.9999378106472
0.000938680592628364,19.0031858702244
0.000983378007256379,19.0062054116861
0.00102810632923387,19.0090206741799
0.00107289618084222,19.0116546024713
0.00111782304136059,19.0141292965916
0.00116302723033058,19.016466607055
0.00120873762021441,19.0186890132027
0.00125531424267088,19.0208210860447
0.00130334141149378,19.0228922424599
0.00135383407687594,19.0249428304668
0.00140880298104246,19.0270408707166
0.00147353003365941,19.0293493915441
0.00153766421599776,19.0314811432539
0.00160643894604425,19.0336128949637
0.00166551364147445,19.0353288333733
0.00172041999187818,19.0368368664886
0.00177634017788286,19.0382936955177
0.00183703773965348,19.0397918310824
0.00190780720537857,19.0414384126556
0.00200111949634502,19.0434605227278
0.00220171934026089,19.0473184970488
0.00243672172926836,19.0511494755474
0.0026828968402117,19.0545559084425
0.002992436097635,19.058193870089
0.00343361439457603,19.0625137433238
0.00396880143385982,19.0668232345686
0.0045658326616911,19.0707851237131
0.00521977853201242,19.0743768562332
0.00594650432422611,19.0776886155528
0.0067637519321705,19.0807805944999
0.00768981678873279,19.0836900125827
0.00874641263498699,19.0864474441157
0.00993933331569629,19.0890389046138
0.0112789394466127,19.0914728673779
0.0128079265593663,19.0938081258677
0.0145697921528102,19.096080619644
0.0164933029238524,19.0981976103425
0.0185868555443628,19.1001958326877
0.0208600963265301,19.1021111366668
0.0233300837496722,19.1039847986315
0.0256195812301154,19.1055919734465
0.0277736328962834,19.107031872899
0.0298635585793973,19.1083916853319
0.0319288228120283,19.1097232821651
0.0340046221767354,19.1110698416465
0.0361433302928532,19.112482341437
0.0384556524348187,19.1140458914973
0.0407157905683453,19.1155951716005
0.0428477430164184,19.1170342550132
0.0449800156791845,19.118398215201
0.0471765888463326,19.1196792484645
0.0495632942681398,19.1209082920965
0.0522266241964432,19.1220910132974
0.05523138402936,19.1232248675587
0.0586703161039999,19.1243191387297
0.0626248975643742,19.1253768439202
0.0671741052061331,19.1263994633306
0.0712010658964668,19.1271758695629
0.0758243940062419,19.1279522757952
0.0823773551430076,19.1288958755818
0.0899716206728969,19.1298217174753
0.0987252904689977,19.1307282573375
0.108820507623714,19.1316191161501
0.120483622335269,19.1324983898095
0.133998468112662,19.1333706782733
0.149724686660648,19.1342411813176
0.168132574200672,19.1351162780023
0.189849549669795,19.1360038909665
0.215721395284253,19.1369137700767
0.245714043897556,19.1378246235207
0.280564660955922,19.1387449009466
0.321288432344752,19.1396885188516
0.369575171955152,19.140684367755
0.406749579140964,19.1413942474276
0.445220156586251,19.1421041271003
0.479412921451097,19.1427372173307
0.509445356748115,19.1433191105446
0.535835820577252,19.1438801691761
0.558519486583747,19.1444438807105
0.576923563065123,19.1450356265798
0.589686161514917,19.1456955205989
0.593358581601347,19.1464362028708
0.585189573630641,19.1472017264147
0.563881363291059,19.1480141653864
0.529190044160149,19.1488557244103
0.481312263240845,19.1497197775368
0.418124115146169,19.1506343862883
0.367235152820112,19.1512711979048
0.311640088603138,19.1519080095212
0.263309035384874,19.1524334711327
0.222696224063819,19.1528675049563
0.187439545781262,19.1532472479742
0.156085064585369,19.1535941454563
0.127793098965391,19.1539209776531
0.102003956351844,19.154236860603
0.0782689280185537,19.1545499414614
0.056118438104924,19.1548700633845
0.0347827883752137,19.1552155042521
0.0112764444878994,19.1556607446853
0.0024716975076441,19.1558532924902
-0.00555101478120848,19.156045840295
-0.0121329287800694,19.1562191490144
-0.0183347184769182,19.1563983594374
-0.0245680194267523,19.1565981805388
-0.0305818017509153,19.1568152381319
-0.0362179343022915,19.1570475628371
-0.0413883469476832,19.157294486702
-0.0460472456029563,19.1575562165348
-0.0501745410144058,19.1578335970861
-0.0537660170151324,19.1581279991962
-0.0568272788107194,19.1584412860515
-0.0593665270107554,19.158775834526
-0.0614771107718701,19.159153778764
-0.0629570730971529,19.1595384128353
-0.0639588005683065,19.1599550107757
-0.0644966376871765,19.160409485451
-0.064579823007966,19.1609090485345
-0.0642114336816746,19.1614630959943
-0.0633828711472307,19.1620856673805
-0.062069076466772,19.1627954448378
-0.060216704523418,19.163621119664
-0.0577102857089956,19.1646137465765
-0.0542337036491883,19.1658971417576
-0.050284607653873,19.1673082688196
-0.0464435597297276,19.1686758303958
-0.0427649459706331,19.1700043382767
-0.0392767137272942,19.1712957218666
-0.0359941907441447,19.1725505581037
-0.0329253457538574,19.1737687484028
-0.0300731030067344,19.1749498796203
-0.0274365630282241,19.1760934147989
-0.0250117935022578,19.1771987918958
-0.0227924417470797,19.1782654706502
-0.0207702637829498,19.1792929484599
-0.0189356024174697,19.1802807564687
-0.0172778219216925,19.1812284420886
-0.015785698236255,19.1821355413799
-0.0143558225557839,19.18306316265
-0.0129894686959395,19.1840147833878
-0.0116909196213218,19.1849923072253
-0.0104642913000891,19.1859979779378
-0.00931351453044034,19.1870344406857
-0.00824228997620952,19.1881048429614
-0.00725404270537857,19.189212968727
-0.00635187669998899,19.1903634206832
-0.00553853006389104,19.1915618741137
-0.00481633175177373,19.1928154408208
-0.00418716092765325,19.1941332093158
-0.00365241077145296,19.1955270811932
-0.00321296041969132,19.1970131359949
-0.00286916387020913,19.1986140141574
-0.00263229885071929,19.2002605345847
-0.00248730696492162,19.2019620336038
-0.00241897608556125,19.2037371694208
-0.00241299316318011,19.2056099335901
-0.0024554549562209,19.2076131491922
-0.00253223991168599,19.2097949276432
-0.00262797726449548,19.212232944182
-0.00272383593687511,19.2150733221606
-0.0027901825840289,19.2186876431024
-0.00277658879481133,19.2224815558844
-0.00267770466915944,19.2263083900591
-0.00251709029504934,19.2299243460601
-0.00233317475451817,19.233104751108
-0.0021322495686689,19.2361005794197
-0.00191743428115709,19.2390180272912
-0.00169078813485663,19.2419127544261
-0.00145363031259883,19.244820693038
-0.00120675515185698,19.2477683405229
-0.000950564921632437,19.2507772236986
-0.000685150642531965,19.2538662116348
-0.000410341175454465,19.2570528729927
-0.000125724324726839,19.2603544279511
0.000169354544043504,19.2637884964614
0.000475812974206489,19.2673737228368
0.000794866855981069,19.2711302703947
0.00112808213425472,19.2750801949296
0.00147745290390722,19.2792477772417
0.00184545557229119,19.2836591431234
0.00220773639348372,19.2880106684344
0.0025640298173478,19.2922860461443
0.00292154075435645,19.2965578081215
0.00328604226663533,19.3008787780074
0.00366272382883847,19.3052912276331
0.00405672681930974,19.309831859231
0.00447361731490306,19.3145353339922
0.00491980729715827,19.3194359913375
0.0054030998644291,19.3245690349726
0.00589505041363543,19.3295851886289
0.00640784389467528,19.3345756780806
0.00694180969763034,19.3395007469647
0.00750234015485433,19.3443657566533
0.00809446524292236,19.3491661696113
0.00872455247036902,19.3539028412741
0.00939974392535789,19.3585761655849
0.0101284930065883,19.3631890082962
0.0109376873516975,19.3678390806223
0.011841299552908,19.3725157286047
0.0128617413023811,19.3772366291569
0.0140298165415038,19.3820331775483
0.0153954885061902,19.3869791209065
0.0170610311034819,19.3922680886816
0.0193752149491193,19.3986640109762
0.0210678676072958,19.4028924311508
0.0228384786640789,19.4071208513254
0.0243556494356865,19.4107574831022
0.0256266386515264,19.4139886585192
0.0266886999224237,19.4170384743749
0.0275222416657051,19.4199882448272
0.0280872754819029,19.4228156970743
0.0283820367413326,19.4256421541786
0.0283749667872813,19.4286261103666
0.0279509251168103,19.4321141504765
0.0271659700877205,19.4354283926879
0.0260688180166014,19.4387426348992
0.0249802961788106,19.4414765982539
0.0239086215963709,19.4439108683803
0.0228378953791182,19.446203212301
0.0217667952772834,19.4484193471246
0.0206982286220295,19.4505938677234
0.0196359124241969,19.4527487567711
0.018583557085709,19.4548996329468
0.0175446522283355,19.4570584675216
0.0165224126167609,19.4592349845046
0.0155197737658307,19.4614374644628
0.0145393954888566,19.4636732611674
0.0135836787969105,19.4659491305891
0.0126547712174849,19.4682714890629
0.0117545797981792,19.4706465940046
0.0108847824582504,19.4730806891891
0.0100468290148274,19.4755801561487
0.00924195637071063,19.4781516154828
0.00846776771362661,19.4808142958716
0.00770589503863118,19.4836533388952
0.00696015978147406,19.4866884652471
0.00623430947653065,19.4899434871997
0.00553230072387624,19.493445857119
0.00485825904528789,19.4972273511618
0.00421640927057075,19.5013249632931
0.00361096078169974,19.5057822065202
0.00304592991858743,19.5106512574626
0.00252489093498389,19.5159968186256
0.00205070766005471,19.5219028567423
0.0016254377801108,19.5284820412165
0.00126087935663205,19.5356540506109
0.000957246569206038,19.5434176197517
0.000707918850663063,19.5519012250509
0.000506714829888433,19.5612755796715
0.000354200783144878,19.5712755796715
0.000247145576086903,19.5812755796715
0.000172005493267021,19.5912755796715
0.000119289350931813,19.6012755796715
8.31130287776764e-05,19.6112755796715
5.89465150555374e-05,19.6212755796715
4.24129415417446e-05,19.6312755796715
3.09646522455148e-05,19.6412755796715
2.30649191369145e-05,19.6512755796715
1.76921459474413e-05,19.6612755796715
1.41143012383799e-05,19.6712755796715
1.17979257936985e-05,19.6812755796715
1.03614720367681e-05,19.6912755796715
9.5387073649415e-06,19.7012755796715
9.14667858066235e-06,19.7112755796715
9.06005985826579e-06,19.7212755796715
9.19264289304877e-06,19.7312755796715
9.4848328955867e-06,19.7412755796715
9.89537031169366e-06,19.7512755796715
1.03957734072254e-05,19.7612755796715
1.09665126903864e-05,19.7712755796715
1.15943325491387e-05,19.7812755796715
1.22703698987114e-05,19.7912755796715
1.29888399980567e-05,19.8012755796715
1.37461255466484e-05,19.8112755796715
1.45401491488823e-05,19.8212755796715
1.53699427374767e-05,19.8312755796715
1.62353532631061e-05,19.8412755796715
1.71368427814383e-05,19.8512755796715
1.80753542276704e-05,19.8612755796715
1.90522231502687e-05,19.8712755796716
2.00691217981683e-05,19.8812755796716
2.11280261767213e-05,19.8912755796716
2.22311996337365e-05,19.9012755796716
2.33811886081442e-05,19.9112755796716
2.45808276342429e-05,19.9212755796716
2.5833251727253e-05,19.9312755796716
2.71419150118174e-05,19.9412755796716
2.85106149880697e-05,19.9512755796716
2.99435222270466e-05,19.9612755796716
3.14452155963084e-05,19.9712755796716
3.30207233720556e-05,19.9812755796716
3.45722791561595e-05,19.9906377898358
3.61955888021708e-05,20
