ecg,time
5.30586101655103e-05,15.0073410487538
5.57729390144193e-05,15.0173410487538
5.86823006934549e-05,15.0273410487538
6.17994488493082e-05,15.0373410487538
6.51404846198238e-05,15.0473410487538
6.87247311102359e-05,15.0573410487538
7.25747950406745e-05,15.0673410487538
7.67167861774523e-05,15.0773410487538
8.11806803960137e-05,15.0873410487538
8.60008245369262e-05,15.0973410487538
9.12165920296672e-05,15.1073410487538
9.68732086941941e-05,15.1173410487538
0.000103022779219189,15.1273410487538
0.000109725557638773,15.1373410487538
0.000117051520943211,15.1473410487538
0.000125082325355242,15.1573410487538
0.000133913751928554,15.1673410487538
0.000143658785002403,15.1773410487538
0.0001544515180659,15.1873410487538
0.000166452153264473,15.1973410487538
0.000179853462983493,15.2073410487538
0.000194889229872149,15.2173410487538
0.00021184539918894,15.2273410487538
0.000231075002652102,15.2373410487538
0.000253018408473749,15.2473410487538
0.000278231222247374,15.2573410487538
0.000307423386502707,15.2673410487538
0.000341515017450254,15.2773410487538
0.000380607312844997,15.2870790883468
0.000423063022702634,15.2960414651173
0.000468848161024774,15.3042727240486
0.000518025010518301,15.311834861416
0.000570666580168259,15.3187853485376
0.000626835152466417,15.3251767285283
0.000686577615419003,15.3310572703335
0.000749922082638661,15.3364712932607
0.000816880773653307,15.3414593433491
0.000887452857691231,15.3460588512432
0.000961628854555666,15.3503041340676
0.00103939207557005,15.3542268655947
0.00112072945613613,15.3578562025474
0.00120563384566837,15.361219111592
0.00129411539434799,15.3643405433794
0.00138621611686261,15.3672437207913
0.00148201931001608,15.3699503402275
0.00158167588712055,15.3724808782717
0.00168543208782806,15.3748548764694
0.00179366902566543,15.3770913495864
0.00190696945171504,15.3792093214326
0.00202622521052064,15.381228640426
0.00215282494789645,15.3831713804773
0.00228902515552224,15.3850645160674
0.00243879546625109,15.3869459532034
0.00261018202575544,15.3888815439609
0.00282515596002965,15.391036809657
0.00304015014306189,15.3929422922492
0.00328282737288389,15.3948477748414
0.00350656984839187,15.3964140019953
0.00372601363977839,15.3978017593492
0.00396027445204788,15.3991458548382
0.00422703438184639,15.400530009938
0.00455501606574778,15.4020529883058
0.00501659418764175,15.4039254430339
0.00564157221856682,15.4060700795243
0.00635269639544486,15.4081032819477
0.00713992912014735,15.409984728975
0.0080024786007358,15.4117196624533
0.00895023533500788,15.4133359833205
0.00999730407965048,15.4148604838125
0.0111645777504465,15.416320582818
0.0124919927665925,15.4177546850047
0.0141102133448437,15.4192666930961
0.0162645728135369,15.4210003852352
0.0182996773913384,15.4224430130478
0.02052193507896,15.4238856408604
0.0225199590106984,15.4251223587561
0.0242677293837676,15.4261996756444
0.0258439270766793,15.42720594176
0.0272683627191915,15.428188379177
0.0285330911608729,15.4291826203391
0.0296117791402861,15.4302290722499
0.0304519456300223,15.4313934709222
0.0309283085264911,15.43284652995
0.0307310146540057,15.4344969634179
0.0298759166124454,15.4361473968859
0.0288044712629059,15.4375053212729
0.0275609246584581,15.4388132958368
0.0261476771601629,15.4401599969962
0.0245765916882837,15.4415892042374
0.0228579245745741,15.4431418990037
0.0216956059439132,15.4442118645472
0.0205833072734127,15.4452818300906
0.0180905801615291,15.4479609523362
0.0157972402146079,15.450962230672
0.0141808191454804,15.4536626996801
0.0130737776404796,15.4561207818311
0.0123615286821788,15.4583864129981
0.0119673553586604,15.4605099494894
0.011845718602658,15.462547630749
0.0119818424431305,15.4645671869492
0.0124044910875482,15.466679198889
0.0132421711724835,15.4691011392388
0.0146009965422199,15.4717894770115
0.0159833016606588,15.4739056263334
0.017660746991575,15.4760217756553
0.0193348896180558,15.4777955740274
0.021061614110817,15.4793585187041
0.0229258220139097,15.4808077026054
0.0249846887777255,15.4821820672736
0.0272826451912682,15.4834973182075
0.029860177610707,15.48476055271
0.0327584487086526,15.4859759090828
0.0360215605925772,15.4871464878028
0.0396975804040307,15.488274888484
0.0438400015882453,15.4893635839177
0.0485095486125988,15.4904151315049
0.0537758627245554,15.4914321845712
0.059720550913477,15.4924176532479
0.0664391660572103,15.4933745308525
0.0740449122988048,15.4943059577995
0.0826731383339432,15.4952152438006
0.0924869065488873,15.4961058780031
0.103684742635962,15.4969815967127
0.116511057038752,15.4978464663524
0.131270514613156,15.4987049984849
0.148348647662276,15.4995623301799
0.168243309840785,15.5004245416246
0.191618746783723,15.5012993301955
0.219327871798852,15.5021950029247
0.251352777729007,15.5030919403475
0.288482774911038,15.5039990313604
0.331843187165815,15.5049319323994
0.383455086314123,15.5059258017938
0.420120396903711,15.5065863031276
0.457593309011493,15.5072468044614
0.491018308889741,15.5078454081838
0.52051343869696,15.508405413667
0.546396707555325,15.5089533457806
0.568460938953553,15.50951227172
0.58595023812484,15.5101107471711
0.597043582487435,15.5108019835125
0.597491044614087,15.5115386677857
0.585644228809896,15.5123092455869
0.559937258065497,15.5131361521591
0.522729386582501,15.5139496028594
0.471481868902624,15.5148118396479
0.405055163581625,15.5157241212601
0.355021226093299,15.5163266074432
0.301032477411841,15.5169290936263
0.253983597295609,15.5174320371203
0.214189835154737,15.5178527405434
0.179500199720311,15.5182240131446
0.148581011749777,15.5185652087555
0.120642943446347,15.5188882276838
0.0951449719736873,15.5192018768468
0.0716362861456974,15.5195144321097
0.0496119213178999,15.5198366572417
0.0281340407046218,15.5201909830614
0.0109701691233618,15.5205161934241
0.00151167912134054,15.5207180971818
-0.0070678903950235,15.5209200009395
-0.0137683954609673,15.5210934661461
-0.0199430387434949,15.5212687878631
-0.0261862127706996,15.521465133211
-0.0322342208257466,15.5216789953822
-0.0379173765763744,15.5219082211295
-0.0431404721355005,15.5221520162624
-0.0478533304151221,15.5224104962357
-0.0520331265770673,15.5226844320682
-0.0556739136442068,15.5229751276424
-0.0587801984677363,15.5232843786305
-0.0613628078982865,15.5236144880586
-0.0634282913693272,15.523968329075
-0.0649816430905193,15.5243487990126
-0.0660362852468598,15.5247574320111
-0.066620854908379,15.5252026949912
-0.0667452472949082,15.5256915147547
-0.0664133997748834,15.526232836537
-0.0656185943177307,15.5268396964632
-0.0643381284935181,15.5275297994504
-0.0625234292879535,15.52832957454
-0.0600713020918031,15.5292846115929
-0.0567168969993133,15.5304976266572
-0.0526381198353394,15.5319204534796
-0.0486632778877333,15.5332978563117
-0.0448512670045326,15.5346358747391
-0.0412326500782296,15.5359367560306
-0.0378239276832831,15.5372012251821
-0.0346337168021746,15.5384292450391
-0.0316653752299424,15.5396204188192
-0.0289183241803842,15.5407742031912
-0.0263888694953324,15.5418900194122
-0.0240708205587293,15.5429673075453
-0.0219560192084122,15.5440055470387
-0.020034818885738,15.5450042560727
-0.0182965225508221,15.5459629765333
-0.0167297792566432,15.5468812484356
-0.0152547854598597,15.5478025365776
-0.0138424532286085,15.5487475071974
-0.0124973383487852,15.5497178361943
-0.011223593161464,15.5507156742391
-0.0100252041943906,15.5517435494061
-0.00890594767260353,15.5528044622295
-0.00786934727891209,15.5539020096636
-0.00691863301248619,15.5550405525361
-0.00605670236704897,15.556225447133
-0.00528608543469458,15.5574633744772
-0.00460891623028587,15.5587628242296
-0.00402691406394491,15.5601348348032
-0.00354138199089988,15.561594182712
-0.00315323708665831,15.5631614179586
-0.00287267926499135,15.5647963392758
-0.00269230270008128,15.5664810501794
-0.002596951055759,15.5682339089003
-0.00257284801922331,15.5700771312638
-0.00260701243027331,15.5720406617858
-0.00268678560712308,15.5741674811027
-0.00279912658468022,15.5765249096802
-0.00292929558042546,15.579233353403
-0.00305736540431403,15.5825672214141
-0.00313034751190449,15.5861547366962
-0.00311958462115839,15.5902239087345
-0.00302073268063053,15.5941247058374
-0.00284896530100691,15.5980167491468
-0.00264860822628931,15.6014644254992
-0.00243653795497865,15.6045998787112
-0.00221368595385868,15.6076008267395
-0.00198085958766109,15.6105492309085
-0.00173867759517058,15.6134923651356
-0.00148749723252594,15.6164627030546
-0.00122745710004631,15.6194852227976
-0.000958514353148189,15.6225808585216
-0.000680467967338204,15.625768384921
-0.000392973139008544,15.6290655120582
-9.55327899467917e-05,15.6324897105987
0.000212535138529659,15.6360589479207
0.000532162649166594,15.6397925062076
0.000864641331673942,15.6437120583184
0.00121180174670194,15.6478432868806
0.00157628389167297,15.6522182345543
0.00196189147196768,15.65687808944
0.00237404658943379,15.6618761487078
0.00275088538598904,15.6664348574687
0.00310283371915583,15.6706664518187
0.00344725447799879,15.6747665467818
0.00379377945067342,15.6788337840025
0.00414930220585338,15.6829297907442
0.00451979715197404,15.6870998284182
0.00491122332798877,15.6913818641598
0.00533001028282352,15.6958100559437
0.0057835612498144,15.7004173775232
0.00628083397520159,15.7052373527035
0.00681824688524852,15.7101714636549
0.00737991044087761,15.7150251826973
0.00797582057932491,15.7198456707251
0.00860844045737498,15.7246056558001
0.0092838060195211,15.7293015798747
0.0100087052462135,15.7339285791493
0.0108072566692871,15.738573620145
0.0116950297117384,15.7432413306262
0.0126929685919125,15.7479463978539
0.0138299749137674,15.7527174901579
0.015151142889208,15.7576178426678
0.0167431559355289,15.7628052893137
0.0188602808867559,15.7688249829106
0.0206543012989193,15.773403261638
0.022557399556089,15.7779815403655
0.0241373649920598,15.7817550379352
0.0254472610634076,15.7850413983398
0.0265440712283016,15.7881128437319
0.0274234262523123,15.7910973857721
0.0280322549434209,15.7939386096927
0.028372400554894,15.7967568214959
0.0284190365132832,15.799700171523
0.0280805493847972,15.8030569797318
0.0270709115741307,15.8074027737507
0.0261755701080018,15.8100878752143
0.0251195045461494,15.8127729766779
0.0240490669570697,15.8152247633525
0.0229772411789018,15.8175303221763
0.0219046246216362,15.8197546171569
0.0208340829201321,15.8219341618418
0.0197693033838907,15.8240920272191
0.0187140114778055,15.8262444496343
0.0176717230571061,15.8284037951417
0.0166456868651987,15.8305800518088
0.0156388693415339,15.8327817014961
0.0146539633792086,15.8350162522657
0.013693402299491,15.8372905903548
0.0127593626931533,15.839611256149
0.0118537844405679,15.8419846166206
0.0109783742332529,15.8444170370833
0.0101346132255382,15.8469150217356
0.00932376738392679,15.8494853346779
0.00854689474614146,15.852135125836
0.00778311836905737,15.8549556705509
0.0070350839910315,15.8579702311842
0.00630652924580815,15.8612022720227
0.00560138871993199,15.8646789040421
0.00492376960673543,15.8684315149371
0.00427788826269929,15.8724966337318
0.00366796202798756,15.8769171784778
0.00309803725509795,15.8817445057302
0.00257176163569692,15.8870419027208
0.00209208089771342,15.8928912606762
0.00166113949638846,15.8994020805833
0.00128972336610874,15.9065194609048
0.000979843369903828,15.9142171272238
0.000725078386373491,15.9226195220164
0.000519174060603167,15.9318920233043
0.000361081886007601,15.9418920233043
0.000255248053360859,15.9518920233043
0.000186032886354947,15.9616909392864
0.000137216033202471,15.9716909392864
0.000103253513373253,15.9816909392864
7.97781471033589e-05,15.9916909392864
6.38310092047396e-05,16.0016909392864
5.32360051179641e-05,16.0116909392864
4.63877044792377e-05,16.0216909392864
4.21397082086832e-05,16.0316909392864
3.96993096741817e-05,16.0416909392864
3.85276154487605e-05,16.0516909392864
3.82590420202478e-05,16.0616909392864
3.86443897362283e-05,16.0716909392865
3.9513341191684e-05,16.0816909392865
4.07500728592084e-05,16.0916909392865
4.22769817390363e-05,16.1016909392865
4.40434635396261e-05,16.1116909392865
4.60180403650565e-05,16.1216909392865
4.8182848415517e-05,16.1316909392865
5.05298287033861e-05,16.1416909392865
5.30581402387997e-05,16.1516909392865
5.57724393636653e-05,16.1616909392865
5.86817693213467e-05,16.1716909392865
6.17988832159774e-05,16.1816909392865
6.51398816734676e-05,16.1916909392865
6.87240872859115e-05,16.2016909392865
7.25741062328759e-05,16.2116909392865
7.67160476894516e-05,16.2216909392865
8.11798868668902e-05,16.2316909392865
8.59999698454499e-05,16.2416909392865
9.12156691725598e-05,16.2516909392865
9.68722096346103e-05,16.2616909392865
0.000103021694699369,16.2716909392865
0.000109724376948529,16.2816909392865
0.000117050231633032,16.2916909392865
0.000125080912878964,16.3016909392865
0.000133912199195456,16.3116909392865
0.000143657071811499,16.3216909392865
0.000154449620385427,16.3316909392865
0.000166450042305656,16.3416909392865
0.000179851103997713,16.3516909392865
0.000194886580571579,16.3616909392865
0.000211842407647572,16.3716909392865
0.000231071604479107,16.3816909392865
0.000253014522951145,16.3916909392865
0.000278226746967165,16.4016909392865
0.000307418189786747,16.4116909392865
0.000341508927421197,16.4216909392865
0.000380600649515075,16.4314291007175
0.000423055787452811,16.4403915940306
0.000468840336051216,16.4486229597899
0.000518016573818204,16.4561851949045
0.00057065750977208,16.4631357714565
0.000626825427874963,16.4695272332549
0.000686567217651842,16.475407849832
0.000749910994732718,16.4808219410862
0.000816868979258147,16.485810053565
0.000887440341587721,16.4904096183771
0.000961615601078462,16.4946549530872
0.00103937806836212,16.4985777318445
0.00112071467760999,16.5022071117347
0.00120561827369095,16.5055700597322
0.00129409900313787,16.5086915267748
0.00138619887302706,16.5115947359852
0.00148200116933026,16.5143013839695
0.00158165679197649,16.5168319474731
0.00168541196006999,16.5192059681453
0.00179364775714209,16.5214424607893
0.00190694689188059,16.523560449146
0.00202620114220433,16.5255797814002
0.00215279904287336,16.5275225309312
0.00228899688528845,16.5294156710777
0.00243876388617135,16.5312971052171
0.00261014509733934,16.5332326780538
0.00282510703924812,16.5353878783876
0.00304010905520002,16.5372934778477
0.00328279670035373,16.5391990773078
0.00350654066750364,16.540765337134
0.00372598273685184,16.5421531020754
0.00396024029226464,16.5434971970424
0.00422699504364315,16.5448813450211
0.0045549678033459,16.5464043059511
0.00501652570459339,16.5482767143578
0.00564149428894453,16.5504213642728
0.00635260802968902,16.552454580123
0.00713983234320842,16.5543360460414
0.00800237249673893,16.5560709951532
0.00895011852635031,16.5576873284438
0.00999717459555986,16.5592118382332
0.0111644325747379,16.5606719431624
0.0124918198596297,16.5621060401038
0.0141099967484872,16.5636180337906
0.0162642586149777,16.5653516793381
0.0182994601779707,16.5667943957225
0.0205218426844867,16.5682371121068
0.0225198933718781,16.56947384783
0.0242676717668786,16.5705511690603
0.0258438750527855,16.5715574367784
0.0272683161587969,16.5725398744235
0.0285330506831373,16.573534114552
0.029611746054008,16.5745805637237
0.0304519225830768,16.5757449563752
0.0309283032669747,16.577197998117
0.0307310328273832,16.5788484452563
0.0298759425817984,16.5804988923955
0.0288045010814553,16.5818568205894
0.0275609587856083,16.5831647950391
0.0261477154734672,16.5845114947504
0.0245766339855743,16.5859406996156
0.0228579707887256,16.5874933909387
0.0216956537506415,16.5885633544417
0.0205833551283545,16.5896333179448
0.0180906311711289,16.5923124303307
0.0157972845342718,16.5953137080711
0.0141808590350172,16.5980141745897
0.0130738132166359,16.6004722554276
0.0123615605105335,16.6027378859255
0.0119673841083824,16.604861421968
0.0118457448452068,16.6068991039977
0.0119818673263635,16.6089186644555
0.0124045165389713,16.6110306824565
0.0132422010463597,16.6134526334671
0.0146010298302734,16.6161409744898
0.0159833284094934,16.6182571126891
0.0176607641902897,16.6203732508884
0.0193349070990087,16.6221470507131
0.021061631839079,16.623709996126
0.0229258387387247,16.6251591794105
0.0249847040881582,16.6265335431456
0.0272826596925277,16.6278487935287
0.0298601920664427,16.629112027818
0.032758463556224,16.6303273840682
0.0360215760130537,16.6314979626372
0.0396975965542206,16.6326263631435
0.0438400186463597,16.6337150583941
0.0485095668653516,16.6347666058169
0.0537758824672529,16.6357836587324
0.0597205722964602,16.6367691272428
0.066439189436735,16.6377260046979
0.0740449379746044,16.6386574314974
0.0826731666510575,16.6395667173542
0.0924869378930281,16.6404573514147
0.1036847774404,16.6413330699836
0.116511095786163,16.6421979394821
0.131270557830032,16.6430564714701
0.148348695902004,16.6439138030136
0.168243363646575,16.6447760142943
0.191618806623503,16.6456508026816
0.219327939768299,16.6465464752528
0.251352854870655,16.6474434125062
0.288482862385096,16.6483505033358
0.331843286453214,16.649283404179
0.383455199981318,16.6502772733788
0.42012051154723,16.6509377744346
0.457593423280315,16.6515982754905
0.491018423402282,16.6521968789947
0.520513554114866,16.6527568843109
0.546396823986813,16.6533048162957
0.568461056028461,16.6538637421447
0.585950354720681,16.654462217562
0.597043695147002,16.6551534540077
0.597491145764446,16.6558901382023
0.585644315725729,16.6566607159742
0.559937326646399,16.6574876225744
0.522729451707712,16.6583010730071
0.471481928626359,16.6591633096604
0.405055212759158,16.6600755912443
0.355021265021105,16.6606780774528
0.301032505848823,16.6612805636612
0.253983618326463,16.6617835071621
0.214189851369615,16.6622042105789
0.179500212459297,16.6625754831694
0.148581021760318,16.6629166787682
0.120642951201453,16.6632396976843
0.0951449777909529,16.6635533468355
0.0716362902268661,16.6638659020878
0.0496119237275818,16.6641881272113
0.0281340411570582,16.6645424530305
0.0109701716440189,16.664867663323
0.00151168146736751,16.6650695670628
-0.00706788822898087,16.6652714708026
-0.0137683934500122,16.6654449359938
-0.0199430369689289,16.6656202576974
-0.0261862112749852,16.6658166030312
-0.0322342196294763,16.6660304651876
-0.037917375685021,16.6662596909196
-0.0431404715440744,16.6665034860366
-0.0478533301119906,16.6667619659932
-0.0520331265465309,16.6670359018083
-0.0556739138683003,16.6673265973643
-0.0587801989275207,16.6676358483333
-0.0613628085747231,16.667965957741
-0.0634282923233987,16.6683197987358
-0.0649816454620995,16.6687002689955
-0.0660362874482995,16.6691089020005
-0.066620856921046,16.6695541649862
-0.0667452491110916,16.6700429847594
-0.0664134013828937,16.6705843065572
-0.0656185956970399,16.6711911665081
-0.0643381296095283,16.6718812695333
-0.0625234300778466,16.6726810446836
-0.0600713024244519,16.6736360818424
-0.0567168964938928,16.6748490971418
-0.0526381192043455,16.6762719239511
-0.0486632771505582,16.6776493267816
-0.0448512661691324,16.6789873452125
-0.0412326491456501,16.6802882265107
-0.0378239266523121,16.6815526956709
-0.0346337156712887,16.682780715538
-0.0316653739981376,16.6839718893294
-0.0289183228475194,16.6851256737134
-0.0263888680622227,16.6862414899469
-0.0240708190271389,16.6873187780931
-0.0219560175809638,16.6883570175999
-0.0200348171657872,16.6893557266476
-0.0182965207423316,16.6903144471222
-0.0167297773640417,16.6912327190386
-0.0152547835207184,16.6921540071722
-0.0138424512400549,16.693098977783
-0.0124973363085092,16.6940693067703
-0.0112235910674483,16.6950671448047
-0.0100252020450003,16.6960950199603
-0.00890594546668736,16.6971559327712
-0.00786934501591727,16.6982534801913
-0.00691863069262247,16.6993920230482
-0.00605669999149912,16.7005769176273
-0.00528608300591094,16.7018148449512
-0.00460891375241827,16.7031142946797
-0.00402691154347681,16.704486305225
-0.00354137943760471,16.7059456530994
-0.00315323451509157,16.7075128883027
-0.00287267669089653,16.7091478096053
-0.0026923001543803,16.7108325204874
-0.00259694857562183,16.71258537918
-0.00257284565066277,16.7144286015059
-0.00260701023143561,16.7163921319777
-0.00268678365316501,16.7185189512254
-0.0027991249756627,16.7208763797028
-0.00292929445629484,16.7235848232651
-0.00305736498398536,16.7269186909544
-0.00313034790270523,16.7305062017166
-0.00311958610519121,16.7345753734273
-0.00302073507934711,16.738476172182
-0.00284896858405494,16.7423682140277
-0.00264861165852052,16.7458158975824
-0.00243654155141192,16.7489513539276
-0.00221368972572411,16.75195230331
-0.00198086353618334,16.7549007079078
-0.00173868171920941,16.7578438419718
-0.00148750153077437,16.7608141792951
-0.00122746157195891,16.7638366980953
-0.000958518999573145,16.7669323325758
-0.000680472791040724,16.7701198574557
-0.000392978145170284,16.7734169828078
-9.55379869154028e-05,16.7768411792951
0.000212529738170515,16.7804104142805
0.000532157026986685,16.784143969916
0.000864635460972189,16.7880635190073
0.0012117955887642,16.7921947440952
0.00157627739085053,16.7965696877135
0.00196188455016909,16.8012295378029
0.00237403913925974,16.8062275913476
0.00275087868665162,16.8107863103492
0.00310282724605965,16.8150179087345
0.00344724796400314,16.8191180047839
0.00379377272516337,16.8231852414076
0.00414929513135097,16.8272812463825
0.00451978959898263,16.8314512813604
0.00491121515965646,16.835733313578
0.005330001345519,16.8401615010595
0.00578355136063807,16.844768817555
0.00628082290680267,16.8495887868357
0.00681823541734435,16.8545229004796
0.00737989822060639,16.8593766197415
0.00797580761571713,16.8641971090478
0.0086084266252904,16.8689570954188
0.00928379119451479,16.8736530209716
0.0100086892616035,16.8782800217495
0.0108072388998467,16.8829250620334
0.0116950098311329,16.8875927719507
0.0126929460724758,16.8922978381341
0.013829949008814,16.8970689285224
0.0151511123402493,16.901969277106
0.016743117986275,16.9071567143741
0.0188602248055334,16.9131763746645
0.0206542571489845,16.9177546940847
0.022557370914315,16.922333013505
0.0241373427323136,16.9261065250448
0.0254472424533515,16.9293928906346
0.0265440558235216,16.9324643380244
0.0274234150927277,16.9354488832908
0.0280322478285591,16.9382901085259
0.0283723976058981,16.9411083196821
0.0284190384276705,16.9440516662865
0.0280805587098784,16.9474084638204
0.0270709274900146,16.9517542620957
0.0261755875370398,16.9544393691856
0.0251195221004984,16.9571244762756
0.0240490844738937,16.9595762662359
0.0229772587143309,16.9618818268132
0.0219046421485102,16.9641061227676
0.0208341003820719,16.9662856679668
0.0197693207196747,16.968443533549
0.0187140286283807,16.9705959559411
0.0176717399674552,16.9727553012461
0.0166457034850105,16.9749315575613
0.0156388856247942,16.9771332067675
0.0146539792844423,16.9793677569388
0.013693417789282,16.9816420943201
0.0127593777342117,16.983962759301
0.0118537990036416,16.9863361188542
0.010978388292357,16.9887685382933
0.0101346267586141,16.9912665218122
0.00932378037214153,16.9938368335068
0.00854690717411928,16.9964866232944
0.00778313057610099,16.9993071650381
0.00703509591336975,17.0023217223676
0.0063065408217592,17.0055537594964
0.00560139988469964,17.0090303873368
0.00492378029310838,17.0127829935089
0.00427789840242033,17.0168481069455
0.00366797155400124,17.0212686455818
0.00309804610486185,17.0260959658135
0.00257176975548141,17.0313933546371
0.00209208824650726,17.0372427029139
0.00166114604567247,17.043753511103
0.00128972886496826,17.050870882862
0.000979847924445473,17.0585685389016
0.000725082100541275,17.0669709210881
0.000519177032938267,17.0762434067033
0.000361083974189945,17.0862434067033
0.000255249376948434,17.0962434067033
0.000186034062054391,17.1060422781048
0.000137216849163749,17.1160422781048
0.000103254081350952,17.1260422781048
7.97785365669825e-05,17.1360422781048
6.38312701610632e-05,17.1460422781049
5.32361752855035e-05,17.1560422781049
4.63878115684029e-05,17.1660422781049
4.21397717212182e-05,17.1760422781049
3.96993429264808e-05,17.1860422781049
3.85276274398989e-05,17.1960422781049
3.82590388533943e-05,17.2060422781049
3.86443755777674e-05,17.2160422781049
3.95133188878282e-05,17.2260422781049
4.07500443368494e-05,17.2360422781049
4.22769482769344e-05,17.2460422781049
4.40434259579468e-05,17.2560422781049
4.60179991590446e-05,17.2660422781049
4.81828038488983e-05,17.2760422781049
5.05297808725251e-05,17.2860422781049
5.30580891159477e-05,17.2960422781049
5.57723848254702e-05,17.3060422781049
5.86817111669935e-05,17.3160422781049
6.17988211779336e-05,17.3260422781049
6.5139815422805e-05,17.3360422781049
6.87240164334903e-05,17.3460422781049
7.25740303271945e-05,17.3560422781049
7.67159662116207e-05,17.3660422781049
8.11797992229217e-05,17.3760422781049
8.59998753558273e-05,17.3860422781049
9.1215567058858e-05,17.3960422781049
9.68720990027282e-05,17.4060422781049
0.000103021574518722,17.4160422781049
0.000109724246026289,17.4260422781049
0.000117050088582159,17.4360422781049
0.000125080756078388,17.4460422781049
0.000133912026740128,17.4560422781049
0.000143656881449318,17.4660422781049
0.000154449409436895,17.4760422781049
0.000166449807560596,17.4860422781049
0.000179850841581157,17.4960422781049
0.000194886285767685,17.5060422781049
0.000211842074665638,17.5160422781049
0.000231071226138492,17.5260422781049
0.000253014090250812,17.5360422781049
0.000278226248488048,17.5460422781049
0.000307417610847152,17.5560422781049
0.000341508248859229,17.5660422781049
0.000380599908633545,17.5757804535027
0.000423054984909712,17.5847429601675
0.000468839470345464,17.5929743381584
0.000518015643021656,17.6005365844587
0.000570656512019204,17.6074871712397
0.000626824361530019,17.6138786423911
0.000686566081316445,17.6197592675135
0.00074990978730437,17.6251733665737
0.000816867699770171,17.6301614861781
0.000887438989270165,17.6347610574891
0.000961614175178522,17.6390063981224
0.00103937656811832,17.6429291822707
0.00112071310219323,17.6465585670615
0.00120561662183037,17.649921519505
0.00129409727323057,17.653042990572
0.00138619706269686,17.6559462034131
0.00148199927507682,17.6586528546584
0.00158165480891008,17.6611834210722
0.00168540988113242,17.6635574443162
0.00179364557208771,17.6657939391985
0.00190694458595434,17.6679119294528
0.00202619869352819,17.6699312632388
0.0021527964176388,17.6718740138773
0.00228899402807527,17.6737671545805
0.00243876069641421,17.6756485884336
0.00261014135503846,17.6775841593215
0.00282510201787491,17.6797393524243
0.00304010496715335,17.6816449649556
0.00328279384470528,17.6835505774868
0.00350653804714452,17.6851168409915
0.00372597999500906,17.6865046068114
0.00396023726551543,17.6878487017522
0.00422699153213264,17.6892328489707
0.00455496341566984,17.6907558079948
0.00501651923886741,17.6926282112881
0.00564148693066928,17.6947728624703
0.00635259969228782,17.6968060796083
0.00713982321557681,17.6986875473219
0.00800236249343595,17.7004224979224
0.00895010751870433,17.7020388324
0.00999716239968555,17.7035633430832
0.0111644189103729,17.705023448592
0.012491803604906,17.7064575450722
0.0141099764228921,17.7079695374526
0.016264229227352,17.7097031787242
0.0182994397069397,17.7111459033144
0.020521833697387,17.7125886279046
0.0225198868117594,17.7138253652936
0.0242676659077821,17.7149026869414
0.0258438696729644,17.7159089548228
0.0272683112479203,17.7168913925034
0.0285330462996575,17.7178856325505
0.0296117423198921,17.7189320814831
0.0304519197439159,17.7200964735922
0.0309283020397205,17.7215495137494
0.0307310337424667,17.7231999621736
0.029875944200366,17.7248504105977
0.0288045030469366,17.7262083391579
0.027560961145283,17.727516313608
0.0261477182194855,17.7288630131941
0.0245766371019057,17.7302922178462
0.022857974270959,17.7318449088546
0.0216956573957692,17.7329148721573
0.0205833587925063,17.73398483546
0.0180906351174211,17.7366639469356
0.0157972876087186,17.7396652249393
0.0141808615564523,17.7423656914681
0.0130738152408131,17.7448237723956
0.0123615621193579,17.7470894030066
0.011967385379208,17.749212939139
0.0118457458309903,17.7512506213335
0.0119818681226537,17.7532701822605
0.0124045172819015,17.7553822007932
0.0132422019382773,17.7578041525263
0.0146010307686491,17.7604924938046
0.0159833288606275,17.7626086314625
0.0176607639603695,17.7647247691204
0.0193349069609176,17.7664985693141
0.0210616316920087,17.7680615149076
0.0229258384003164,17.7695106981936
0.0249847034736964,17.7708850618794
0.0272826588315521,17.7722003122467
0.0298601910089544,17.7734635465534
0.0327584623159363,17.7746789028286
0.0360215745724941,17.7758494814171
0.0396975948897725,17.7769778819383
0.0438400167327337,17.7780665772008
0.0485095646842856,17.7791181246358
0.0537758799938172,17.7801351775629
0.0597205694813676,17.7811206460813
0.0664391862418447,17.7820775235439
0.0740449343425937,17.7830089503491
0.0826731625121628,17.7839182362096
0.0924869331616899,17.7848088702719
0.103684772009515,17.7856845888402
0.116511089520075,17.7865494583356
0.13127055055405,17.7874079903175
0.148348687386607,17.7882653218512
0.168243353581444,17.7891275331173
0.191618794569681,17.7900023214836
0.219327925824748,17.790897994047
0.251352838688899,17.7917949312876
0.288482843488658,17.792702022097
0.331843264090793,17.7936349229064
0.383455172542312,17.7946287920393
0.420120486952807,17.7952892931515
0.457593402641038,17.7959497942637
0.491018406104297,17.7965483977983
0.520513539654022,17.7971084031233
0.546396812334715,17.7976563351011
0.568461047506672,17.7982152609273
0.58595035011657,17.7988137362979
0.597043696433424,17.799504972643
0.59749115585408,17.800241656815
0.585644335399618,17.8010122345487
0.559937357268355,17.8018391410966
0.52272949246948,17.8026525915
0.471481982439865,17.8035148280884
0.405055276037324,17.80442710967
0.355021320466477,17.805029596029
0.301032550351277,17.805632082388
0.253983654515753,17.8061350259843
0.214189882240105,17.8065557294534
0.179500239609601,17.8069270020742
0.148581046050814,17.8072681976913
0.120642973174364,17.8075912166177
0.0951449978514676,17.8079048657726
0.0716363087515589,17.8082174210214
0.0496119412170317,17.8085396461304
0.0281340588431871,17.8088939719048
0.010970177831974,17.8092191823821
0.00151168519362326,17.8094210861631
-0.00706788658112832,17.8096229899442
-0.0137683921164725,17.8097964551388
-0.0199430355932352,17.8099717768362
-0.0261862099331596,17.8101681221647
-0.0322342183741491,17.8103819843165
-0.0379173745458246,17.8106112100441
-0.0431404705368166,17.8108550051568
-0.0478533292440005,17.8111134851091
-0.0520331258199796,17.8113874209195
-0.0556739132821838,17.8116781164703
-0.0587801984789141,17.8119873674336
-0.0613628082595728,17.8123174768351
-0.0634282921448068,17.8126713178227
-0.0649816455256638,17.8130517881072
-0.0660362875996381,17.8134604211058
-0.0666208571563469,17.8139056840838
-0.0667452494286252,17.8143945038481
-0.0664134017821895,17.8149358256351
-0.0656185961800202,17.8155426855727
-0.064338130181189,17.8162327885811
-0.0625234307487938,17.8170325637092
-0.0600713032183097,17.8179876008358
-0.0567168974814318,17.8192006160763
-0.0526381201768973,17.8206234428957
-0.0486632780956117,17.8220008457341
-0.0448512670790999,17.8233388641727
-0.0412326500163478,17.8246397454784
-0.0378239274813661,17.8259042146463
-0.0346337164575004,17.8271322345211
-0.0316653747411819,17.8283234083204
-0.0289183235477783,17.8294771927125
-0.0263888687206548,17.8305930089542
-0.0240708196451586,17.8316702971087
-0.0219560181603544,17.832708536624
-0.0200348177085917,17.8337072456803
-0.0182965212507678,17.8346659661636
-0.0167297778404275,17.8355842380888
-0.015254783988154,17.8365055262173
-0.0138424516974834,17.837450496823
-0.0124973367550982,17.8384208258046
-0.0112235915023889,17.8394186638328
-0.0100252024675227,17.8404465389817
-0.00890594587605798,17.8415074517852
-0.00786934541144954,17.842604999197
-0.00691863107367458,17.8437435420446
-0.00605670035747109,17.8449284366131
-0.00528608335624172,17.8461663639248
-0.00460891408656972,17.8474658136391
-0.00402691186090928,17.8488378241674
-0.00354137973773372,17.8502971720212
-0.0031532347972142,17.8518644071986
-0.00287267695158528,17.8534993284925
-0.00269230039596752,17.8551840393619
-0.00259694879969216,17.8569368980376
-0.00257284585818937,17.8587801203411
-0.00260701042272997,17.8607436507829
-0.00268678382779703,17.8628704699893
-0.00279912513233906,17.8652278984067
-0.00292929459268928,17.8679363418729
-0.00305736509660925,17.8712702093692
-0.00313034800100566,17.8748577202708
-0.00311958618419028,17.8789268918762
-0.00302073514374411,17.8828276905767
-0.00284896863289136,17.8867197324677
-0.00264861171090083,17.8901674158151
-0.00243654160548086,17.8933028720724
-0.00221368978050342,17.8963038214195
-0.00198086359137325,17.8992522260095
-0.001738681774814,17.9021953600837
-0.00148750158696396,17.9051656974305
-0.0012274616290038,17.9081882162653
-0.00095851905780612,17.9112838507903
-0.000680472850835121,17.9144713757238
-0.000392978206931918,17.9177685011385
-9.55380510821754e-05,17.9211926976973
0.000212529671124203,17.9247619327634
0.000532156956543562,17.9284954884892
0.000864635386573189,17.932415037681
0.00121179550983599,17.9365462628812
0.0015762773068838,17.9409212066262
0.00196188446088431,17.9455810568622
0.00237403904496579,17.9505791105838
0.0027508785782978,17.9551378296393
0.00310282711812779,17.9593694280038
0.00344724781362633,17.9634695240007
0.0037937725499647,17.967536760553
0.00414929492881921,17.9716327654424
0.00451978936618571,17.9758028003225
0.00491121489304708,17.9800848324303
0.0053300010406904,17.9845130197903
0.00578355101199657,17.9891203361516
0.00628082250710845,17.9939403052847
0.00681823498818398,17.9988744190356
0.0073798977503841,18.0037281383304
0.00797580710305034,18.0085486277001
0.00860842606444741,18.0133086141325
0.00928379057963728,18.0180045397508
0.0100086885853863,18.0226315405945
0.0108072381339709,18.0272765808427
0.011695008961301,18.0319442907325
0.0126929450750782,18.0366493568672
0.0138299478501393,18.0414204471676
0.0151511109628979,18.0463207955712
0.0167431162636457,18.0515082324082
0.0188602222431148,18.0575278911647
0.0206542551337233,18.0621062124609
0.022557369611531,18.0666845337571
0.0241373417220953,18.070458045941
0.0254472416101736,18.0737444117698
0.0265440551271678,18.0768158592516
0.0274234145914863,18.0798004046668
0.0280322475133393,18.0826416299625
0.0283723974824201,18.0854598410885
0.0284190385282612,18.0884031875344
0.0280805591523572,18.0917599845744
0.0270709282363626,18.0961057830465
0.026175588352887,18.0987908903965
0.0251195229217155,18.1014759977465
0.0240490852930349,18.1039277878586
0.0229772595340509,18.1062333485169
0.0219046429675936,18.1084576445161
0.0208341011979402,18.1106371897389
0.0197693215295178,18.1127950553304
0.0187140294294834,18.1149474777212
0.0176717407572841,18.1171068230166
0.0166457042612448,18.1192830793152
0.0156388863853081,18.1214847284988
0.0146539800273152,18.1237192786421
0.0136934185127773,18.1259936159904
0.0127593784367793,18.1283142809333
0.011853799683915,18.1306876404437
0.0109783889491152,18.1331200598352
0.0101346273908142,18.1356180433014
0.00932378097888662,18.1381883549379
0.00854690775466769,18.1408381446619
0.00778313114613705,18.143658686268
0.00703509646992932,18.1466732434445
0.00630654136197461,18.1499052804013
0.00560140040555842,18.1533819080481
0.00492378079148727,18.1571345140014
0.00427789887514806,18.1611996271897
0.0036679719979643,18.1656201655428
0.00309804651715879,18.170447485449
0.0025717701336228,18.1757448738938
0.00209208858859724,18.1815942217215
0.00166114635039651,18.1881050293665
0.00128972912061504,18.1952224007288
0.000979848136156674,18.2029200562921
0.000725082273216016,18.2113224378944
0.000519177171032037,18.2205949227832
0.000361084071052444,18.2305949227832
0.000255249441798086,18.2405949227832
0.00018603411725641,18.2503937926661
0.000137216888525925,18.2603937926661
0.00010325410969987,18.2703937926661
7.97785570724085e-05,18.2803937926661
6.3831285096737e-05,18.2903937926661
5.32361863200983e-05,18.3003937926661
4.63878199034235e-05,18.3103937926661
4.21397781990238e-05,18.3203937926661
3.96993481282986e-05,18.3303937926661
3.85276317662202e-05,18.3403937926661
3.82590425825247e-05,18.3503937926661
3.86443789053509e-05,18.3603937926661
3.95133219528693e-05,18.3703937926661
4.07500472391006e-05,18.3803937926661
4.22769510888631e-05,18.3903937926661
4.40434287331574e-05,18.4003937926661
4.60180019382494e-05,18.4103937926661
4.81828066641468e-05,18.4203937926661
5.05297837501959e-05,18.4303937926661
5.30580920788743e-05,18.4403937926661
5.57723878944734e-05,18.4503937926661
5.86817143620125e-05,18.4603937926661
6.17988245188918e-05,18.4703937926661
6.51398189303052e-05,18.4803937926661
6.87240201294095e-05,18.4903937926661
7.2574034235228e-05,18.5003937926661
7.67159703578183e-05,18.5103937926661
8.1179803636248e-05,18.5203937926661
8.59998800687796e-05,18.5303937926661
9.1215572108172e-05,18.5403937926661
9.68721044302063e-05,18.5503937926661
0.000103021580372223,18.5603937926661
0.000109724252360927,18.5703937926661
0.00011705009546178,18.5803937926661
0.00012508076357739,18.5903937926661
0.000133912034945743,18.6003937926661
0.000143656890464492,18.6103937926661
0.000154449419383945,18.6203937926661
0.000166449818585927,18.6303937926661
0.00017985085386138,18.6403937926661
0.000194886299517661,18.6503937926661
0.000211842090149181,18.6603937926661
0.000231071243682792,18.6703937926661
0.00025301411026617,18.6803937926661
0.00027822627149531,18.6903937926661
0.000307417637516538,18.7003937926662
0.000341508280066388,18.7103937926662
0.000380599943475777,18.7201319676147
0.000423055023605489,18.7290944738461
0.000468839513201944,18.7373258514365
0.000518015690385763,18.7448880973677
0.000570656564264043,18.7518386838088
0.000626824419050678,18.7582301546475
0.000686566144530694,18.7641107794824
0.000749909856651459,18.7695248782787
0.000816867775716403,18.7745129976412
0.00088743907230767,18.7791125687308
0.000961614265831647,18.7833579091617
0.00103937666694554,18.7872806931255
0.00112071320979035,18.7909100777483
0.00120561673884548,18.7942730300395
0.00129409740036373,18.7973945009689
0.00138619720072067,18.8002977136863
0.00148199942485621,18.8030043648212
0.00158165497142419,18.8055349311374
0.00168541005751988,18.8079089542964
0.00179364576370974,18.8101454491066
0.0019069447944854,18.8122634393023
0.00202619892111802,18.8142827730446
0.00215279666720454,18.8162255236574
0.00228899430387445,18.8181186643591
0.00243876100538046,18.8200000982488
0.00261014171079812,18.8219356692499
0.00282510246057327,18.8240908627103
0.00304010539675284,18.8259964746643
0.00328279425302435,18.8279020866182
0.00350653847872318,18.8294683499728
0.00372598046688855,18.8308561157687
0.00396023778893689,18.8322002107265
0.00422699212328947,18.8335843579962
0.00455496410530943,18.8351073171259
0.0050165201100792,18.8369797206771
0.00564148792174776,18.8391243716883
0.0063526008188875,18.8411575886646
0.00713982445091692,18.843039056143
0.00800236384962533,18.8447740065502
0.00895010901388582,18.8463903408759
0.00999716405990158,18.847914851448
0.0111644207759981,18.8493749568905
0.012491805835702,18.8508090534527
0.0141099792334883,18.8523210460401
0.0162642333474162,18.854054687959
0.0182994424858026,18.8554974113523
0.0205218347538463,18.8569401347457
0.0225198874837252,18.8581768719003
0.0242676664526696,18.8592541934963
0.0258438701250343,18.8602604613626
0.0272683116096682,18.8612428990466
0.0285330465632109,18.8622371391141
0.0296117424679125,18.8632835880901
0.0304519197408019,18.8644479802873
0.0309283017805466,18.8659010206853
0.0307310331543483,18.8675514689331
0.0298759434986899,18.8692019171809
0.0288045022889972,18.8705598456958
0.0275609603269786,18.8718678201523
0.0261477173440214,18.873214519762
0.0245766361732062,18.8746437244492
0.0228579732907251,18.876196415506
0.0216956564008593,18.8772663788312
0.0205833578033954,18.8783363421564
0.0180906340811192,18.8810154537664
0.0157972865496355,18.8840167319208
0.0141808604931415,18.8867171985911
0.0130738141918954,18.889175279631
0.012361561090436,18.8914409103294
0.0119673843681419,18.8935644465267
0.0118457448300707,18.8956021287526
0.0119818671115396,18.8976216896555
0.0124045162155204,18.8997337080927
0.0132422006950806,18.9021556595624
0.014601029358244,18.9048440007761
0.015983327591942,18.9069601388037
0.0176607629123702,18.9090762768313
0.0193349059386428,18.9108500771104
0.0210616306522253,18.9124130227443
0.0229258373301771,18.9138622060647
0.0249847023578842,18.9152365697798
0.0272826576500223,18.9165518201703
0.029860189742102,18.9178150544965
0.0327584609458487,18.9190304107896
0.0360215730814128,18.9202009893952
0.0396975932585102,18.9213293899326
0.0438400149402019,18.9224180852105
0.0485095627065521,18.92346963266
0.0537758778035228,18.9244866856006
0.0597205670482036,18.9254721541317
0.0664391835291935,18.9264290316059
0.0740449313083596,18.9273604584217
0.0826731591062031,18.9282697442918
0.0924869293245405,18.9291603783626
0.103684767669536,18.9300360969384
0.116511084590059,18.9309009664402
0.131270544927031,18.9317594984273
0.148348680929519,18.9326168299649
0.168243346125707,18.9334790412336
0.191618785893358,18.9343538296005
0.219327915856875,18.9352495021691
0.251352827216472,18.9361464394134
0.288482830234966,18.9370535302238
0.331843248638609,18.9379864310288
0.383455154030675,18.9389803001425
0.420120469659047,18.9396408012952
0.45759338713576,18.9403013024479
0.491018392079223,18.9408999060081
0.520513526847384,18.9414599113461
0.546396800728012,18.942007843328
0.568461037263993,18.9425667691488
0.585950341651424,18.9431652445005
0.597043690817718,18.9438564807948
0.597491154805896,18.944593164961
0.585644339417772,18.9453637426793
0.559937367187817,18.9461906492024
0.522729507111223,18.9470040996073
0.471482003212598,18.9478663361742
0.405055301620451,18.9487786177562
0.355021343111603,18.9493811041811
0.301032568681442,18.949983590606
0.253983669536911,18.9504865342446
0.214189895148513,18.9509072377374
0.179500251045873,18.9512785103724
0.148581056358805,18.9516197059984
0.120642982570342,18.9519427249301
0.095145006499057,18.9522563740872
0.0716363168079108,18.9525689293351
0.0496119489023874,18.9528911544379
0.0281340667240926,18.9532454801923
0.0109701804596411,18.9535706907561
0.00151168673051203,18.9537725945566
-0.00706788596331389,18.9539744983571
-0.0137683916306372,18.954147963554
-0.0199430350755921,18.9543232852494
-0.0261862094153759,18.9545196305764
-0.0322342178785135,18.9547334927269
-0.0379173740853976,18.9549627184535
-0.0431404701188594,18.9552065135651
-0.0478533288724544,18.9554649935163
-0.0520331254966805,18.9557389293255
-0.0556739130076543,18.9560296248751
-0.0587801982529011,18.9563388758369
-0.0613628080813235,18.9566689852366
-0.0634282920123505,18.9570228262223
-0.0649816454235622,18.9574032965001
-0.0660362875461236,18.9578119294956
-0.0666208571507361,18.9582571924699
-0.0667452494705706,18.9587460122296
-0.0664134018721207,18.959287334011
-0.0656185963199227,18.9598941939412
-0.0643381303751971,18.96058429694
-0.0625234310051068,18.9613840720549
-0.060071303554689,18.9623391091613
-0.0567168979504425,18.9635521243625
-0.0526381206461025,18.9649749511871
-0.0486632785583522,18.9663523540292
-0.0448512675315491,18.967690372471
-0.0412326504565737,18.9689912537797
-0.0378239279083755,18.9702557229505
-0.0346337168708395,18.9714837428283
-0.0316653751407636,18.9726749166305
-0.0289183239337803,18.9738287010255
-0.0263888690934601,18.9749445172702
-0.0240708200053066,18.9760218054277
-0.0219560185084935,18.9770600449461
-0.0200348180454541,18.9780587540054
-0.0182965215771304,18.9790174744918
-0.0167297781570769,18.9799357464202
-0.0152547843033538,18.980857034547
-0.0138424520109189,18.9818020051508
-0.012497337066525,18.9827723341304
-0.0112235918115572,18.9837701721565
-0.0100252027741774,18.9847980473029
-0.00890594617993548,18.9858589601038
-0.00786934571227212,18.9869565075127
-0.00691863137114498,18.988095050357
-0.00605670065125597,18.9892799449217
-0.00528608364595546,18.9905178722291
-0.00460891437174499,18.9918173219383
-0.00402691214094853,18.9931893324606
-0.00354138001183976,18.994648680307
-0.00315323506427367,18.9962159154753
-0.00287267720920338,18.9978508367661
-0.00269230064349,18.999535547631
-0.00259694903578824,19.0012884063007
-0.00257284608076964,19.0031316285963
-0.00260701062874384,19.0050951590274
-0.00268678401292937,19.0072219782192
-0.00279912529052281,19.0095794066153
-0.0029292947152076,19.0122878500473
-0.00305736516989392,19.0156217174751
-0.00313034802339004,19.0192092286868
-0.00311958613797456,19.0232784002631
-0.00302073504082254,19.0271791988489
-0.00284896847450074,19.0310712408404
-0.00264861154590464,19.0345189237
-0.00243654143222686,19.0376543797463
-0.00221368959793863,19.0406553290033
-0.0019808633992963,19.0436037335663
-0.00173868157328936,19.0465468676538
-0.00148750137613921,19.0495172050439
-0.00122746140902937,19.0525397239459
-0.00095851882878404,19.0556353585589
-0.000680472612779999,19.0588228835997
-0.000392977959740592,19.0621200091402
-9.55377944918058e-05,19.0655442058437
0.000212529937592821,19.069113441074
0.000532157233671284,19.0728469969856
0.000864635675575746,19.076766546388
0.00121179581258251,19.0808977718289
0.00157627762620143,19.085272715853
0.00196188480093385,19.0899325664175
0.00237403941177874,19.0949306205321
0.00275087889763212,19.0994893390495
0.00310282741631436,19.1037209371834
0.00344724810404789,19.1078210330972
0.00379377284092522,19.1118882696504
0.00414929522674376,19.1159842745987
0.00451978967687335,19.1201543095831
0.00491121522242692,19.1244363418354
0.00533000139522858,19.1288645293773
0.00578355139923626,19.1334718459579
0.00628082293629819,19.1382918153489
0.00681823542616068,19.1432259289998
0.00737989821133983,19.1480796482972
0.00797580758587148,19.152900137625
0.00860842657344616,19.1576601240136
0.00928379111903,19.16235604958
0.0100086891610638,19.1669830503707
0.010807238767617,19.1716280906419
0.0116950096644476,19.1762958005503
0.0126929458661571,19.1810008667207
0.013829948755094,19.1857719570871
0.0151511120251951,19.1906723056258
0.0167431175780934,19.1958597427852
0.0188602241781288,19.2018794026855
0.020654256657946,19.2064577225851
0.0225573706023856,19.2110360424846
0.0241373424931766,19.214809554189
0.0254472422554554,19.2180959198399
0.0265440556620249,19.221167367253
0.0274234149803826,19.2241519125576
0.028032247763223,19.2269931378082
0.0283723975891936,19.2298113489563
0.0284190384680618,19.2327546955194
0.0280805588379348,19.2361114929249
0.0270709276957551,19.2404572912511
0.0261755877602321,19.2431423984083
0.0251195223245782,19.2458275055655
0.0240490846970311,19.2482792955651
0.0229772589372846,19.2505848561632
0.0219046423710128,19.252809152129
0.020834100603489,19.254988697334
0.0197693209393035,19.2571465629184
0.0187140288455356,19.2592989853099
0.0176717401814917,19.2614583306121
0.0166457036953344,19.2636345869227
0.0156388858308561,19.2658362361226
0.0146539794857423,19.2680707862863
0.0136934179853618,19.2703451236587
0.0127593779246569,19.2726657886293
0.0118537991880815,19.275039148171
0.0109783884704527,19.2774715675973
0.0101346269300681,19.2799695511023
0.0093237805366894,19.2825398627814
0.00854690733153261,19.2851896525523
0.00778313073043903,19.28801019426
0.00703509606384581,19.2910247515495
0.00630654096761147,19.2942567886333
0.00560140002512837,19.2977334164231
0.00492378042728564,19.3014860225379
0.00427789852950667,19.3055511359096
0.00366797167317465,19.3099716744717
0.00309804621535946,19.3147989946181
0.00257176985665206,19.3200963833422
0.00209208833786009,19.3259457315007
0.00166114612687212,19.332456539546
0.00128972893285054,19.3395739112013
0.000979847980621982,19.3472715671164
0.000725082146391608,19.35567394915
0.000519177069497012,19.3649464345749
0.00036108399965147,19.3749464345749
0.000255249398081255,19.3849464345749
0.000186034077352888,19.3947453062271
0.000137216861300654,19.4047453062271
0.000103254091172291,19.4147453062271
7.97785448436785e-05,19.4247453062271
6.38312774365212e-05,19.4347453062271
5.3236181902591e-05,19.4447453062271
4.6387817743716e-05,19.4547453062271
4.21397776025295e-05,19.4647453062271
3.96993486234256e-05,19.4747453062271
3.8527633037708e-05,19.4847453062271
3.82590444195489e-05,19.4947453062271
3.86443811665127e-05,19.5047453062271
3.95133245439614e-05,19.5147453062271
4.07500500988623e-05,19.5247453062271
4.22769541794351e-05,19.5347453062271
4.40434320334355e-05,19.5447453062271
4.60180054392116e-05,19.5547453062271
4.81828103656137e-05,19.5647453062271
5.05297876586435e-05,19.5747453062271
5.30580962060091e-05,19.5847453062271
5.5772392256351e-05,19.5947453062271
5.86817189785465e-05,19.6047453062271
6.17988294136501e-05,19.6147453062271
6.51398241305285e-05,19.6247453062271
6.87240256662108e-05,19.6347453062271
7.25740401439541e-05,19.6447453062272
7.67159766785638e-05,19.6547453062272
8.11798104145294e-05,19.6647453062272
8.59998873563826e-05,19.6747453062272
9.12155799642009e-05,19.6847453062272
9.68721129223728e-05,19.6947453062272
0.00010302158957843,19.7047453062272
0.000109724262371219,19.7147453062272
0.000117050106380753,19.7247453062272
0.000125080775527189,19.7347453062272
0.000133912048069824,19.7447453062272
0.000143656904932361,19.7547453062272
0.000154449435397208,19.7647453062272
0.000166449836386055,19.7747453062272
0.000179850873739797,19.7847453062272
0.000194886321829002,19.7947453062272
0.000211842115328898,19.8047453062272
0.000231071272270886,19.8147453062272
0.000253014142939609,19.8247453062272
0.000278226309113068,19.8347453062272
0.000307417681183261,19.8447453062272
0.000341508331224217,19.8547453062272
0.000380599999674973,19.8644834802089
0.000423055084907398,19.8734459855142
0.000468839579825946,19.8816773622548
0.000518015762592422,19.8892396074075
0.000570656642322151,19.8961901931357
0.000626824503226212,19.9025816633215
0.00068656623508674,19.9084622875593
0.000749909953844427,19.9138763858096
0.000816867879807322,19.9188645046731
0.000887439183558333,19.9234640753073
0.000961614384517254,19.9277094153229
0.00103937679335696,19.9316321989085
0.00112071334423886,19.9352615831875
0.00120561688168987,19.9386245351668
0.00129409755200422,19.9417460058139
0.00138619736163221,19.9446492182769
0.00148199959561679,19.9473558691835
0.00158165515273892,19.9498864352965
0.00168541025028375,19.9522604582765
0.00179364596909229,19.9544969529316
0.00190694501404312,19.9566149429971
0.00202619915701059,19.9586342766358
0.00215279692258835,19.9605770271764
0.00228899458368982,19.9624701678469
0.00243876131823893,19.9643516017687
0.0026101420748503,19.9662871729271
0.00282510293359581,19.9684423669439
0.00304010581271325,19.970347977923
0.00328279459186105,19.9722535889022
0.0035065388150223,19.9738198519879
0.00372598082783028,19.9752076177249
0.0039602381885032,19.9765517126917
0.00422699257967037,19.9779358600259
0.00455496465369909,19.9794588193073
0.00501652085349394,19.9813312232542
0.0056414887676086,19.9834758741197
0.00635260177892721,19.9855090909531
0.00713982550282442,19.987390558228
0.00800236500349058,19.9891255084674
0.00895011028486263,19.9907418426603
0.00999716546969638,19.9922663531337
0.011164422357999,19.9937264585149
0.0124918077227323,19.9951605551388
0.0141099816025263,19.9966725478903
0.0161711015571535,19.9983362739451
0.0185243110825225,20
