ecg,time
0.00602334385735245,15.0007483607521
0.00645605759437865,15.0057303007657
0.006919041750537,15.0107410117865
0.00740716725586258,15.0156841941819
0.00792549672810957,15.0205716833281
0.00847739921907644,15.0253891662283
0.00906860779674995,15.0301373228044
0.00970587129535458,15.034817447374
0.010397097877696,15.0394320819001
0.0111679894785016,15.0440797643743
0.0120328490407615,15.0487541717253
0.013013343298265,15.0534722403838
0.0141390024332831,15.0582635126167
0.0154567725779416,15.0631959454649
0.0170597778338185,15.0684443180332
0.0192416880995784,15.0746527782413
0.0209641369628373,15.0790591121544
0.0227803901437225,15.0834654460674
0.0243155737724496,15.0871806913567
0.0255954790512907,15.0904488974666
0.0266657846031186,15.0935175538883
0.0275149301749973,15.0964946681604
0.028095393435977,15.0993376455644
0.0284070276238985,15.1021674574687
0.0284216950870251,15.1051371354102
0.0280372670915712,15.10856034979
0.0272527595779917,15.1119894601714
0.0261314681893518,15.1154185705528
0.0250326423687091,15.1181914650981
0.0239558987122496,15.1206439428955
0.0228812178130836,15.1229491242659
0.021806477853028,15.1251759529098
0.0207344047998932,15.1273600561379
0.0196686526672775,15.1295239220101
0.0186129049935754,15.1316834765355
0.0175706372760184,15.1338509099903
0.0165450588673374,15.1360361149592
0.0155391014530219,15.1382475213873
0.0145554243450208,15.1404926199
0.0135964284549103,15.1427783045306
0.0126642606048556,15.1451111398033
0.0117608283757516,15.1474975430548
0.0108878092824772,15.1499439414603
0.0100466526362516,15.152456928856
0.00923859431172298,15.1550433771897
0.00846466057753651,15.157710576848
0.00770312990634788,15.160554098767
0.00695777675517072,15.1635937532379
0.00623233040642001,15.166853330914
0.00553072709601821,15.1703602455377
0.00485706719189375,15.1741462245267
0.00421554717593596,15.1782481900997
0.00361034710217779,15.1827095351171
0.00304550252021508,15.1875821985715
0.00252468503779941,15.1929305105534
0.00205073180986353,15.1988376817113
0.00162566434943375,15.2054149153
0.00126027261139593,15.2126012049226
0.000955803833105455,15.2203811246772
0.00070564388028245,15.2288830080044
0.000503610239434927,15.2382775630005
0.00035972678069473,15.2481960908476
0.000273030273147508,15.256996824724
0.000202799246557477,15.266996824724
0.000153835944789963,15.276996824724
0.000119930782437837,15.286996824724
9.68387037619469e-05,15.296996824724
8.14352197270082e-05,15.306996824724
7.14232808272303e-05,15.316996824724
6.5168732323316e-05,15.326996824724
6.15441879463503e-05,15.336996824724
5.97838938296708e-05,15.346996824724
5.93686050988344e-05,15.356996824724
5.99449348243145e-05,15.366996824724
6.12724154954765e-05,15.376996824724
6.31890646868679e-05,15.386996824724
6.55883868760893e-05,15.396996824724
6.84035356266798e-05,15.406996824724
7.15962634395833e-05,15.416996824724
7.51492699021494e-05,15.426996824724
7.90610206748147e-05,15.436996824724
8.33423620664557e-05,15.446996824724
8.80144378703618e-05,15.456996824724
9.31075635805713e-05,15.466996824724
9.86608314153776e-05,15.476996824724
0.000104722309429471,15.486996824724
0.000111349765640694,15.496996824724
0.000118611901791378,15.506996824724
0.000126590128832879,15.516996824724
0.000135380964061613,15.526996824724
0.000145099184220344,15.536996824724
0.000155881936759688,15.546996824724
0.000167894101973715,15.556996824724
0.000181335325054783,15.566996824724
0.000196449319246975,15.576996824724
0.000213536310614054,15.586996824724
0.000232969902187852,15.596996824724
0.000255220264435565,15.606996824724
0.00028088655281806,15.616996824724
0.000310743060750274,15.626996824724
0.000345806284670323,15.636996824724
0.000387434635653216,15.646996824724
0.000437480568442465,15.656996824724
0.000496478517588472,15.6666871082953
0.000563204582564574,15.675651034594
0.000638484527422888,15.683927335731
0.000723393252916524,15.6915686309105
0.000819174919604526,15.698624368017
0.000927244254558135,15.7051404411945
0.00104920397540032,15.711159479325
0.0011868683299353,15.7167211152028
0.0013422930513664,15.7218621596895
0.00151780581782058,15.7266167708389
0.00171604488344533,15.7310166608657
0.00194000298038444,15.7350913239369
0.00219308308138049,15.7388682065111
0.00247915514672742,15.742372836946
0.00280263690146436,15.7456290051003
0.00316859106936838,15.7486589700781
0.00358284718679929,15.7514836121716
0.00405216417269407,15.7541226193164
0.00458445165078636,15.7565947367417
0.00518907674737532,15.7589180227959
0.0058773125609543,15.761110197205
0.00664110350477036,15.7631360537872
0.00748283599444424,15.7650093782899
0.00841404343627506,15.7667620981411
0.00945178864963847,15.7684260325834
0.0106233218673216,15.7700367735317
0.0119846848326639,15.7716502429354
0.0137296324550447,15.7734331540538
0.0160492925673067,15.7754781745177
0.0177352017778812,15.7768199074155
0.0195085293274661,15.7781616403133
0.0211182792928833,15.7793630393151
0.0225602030045722,15.7804677569482
0.023856482110744,15.7815310666021
0.0250036760215283,15.7825922134065
0.0259804315547115,15.7836900444435
0.0267441868527587,15.7848795881978
0.0272048989067443,15.7862766205892
0.0271388075963926,15.7879190397901
0.0264830397491352,15.789561458991
0.0254975727421515,15.7910287993431
0.0243296371690902,15.7923981322322
0.0230007510816157,15.7937674355928
0.0215226927678926,15.7951874649487
0.0199053680804345,15.7966960311189
0.018521751049117,15.797986949034
0.0171819696237772,15.799277866949
0.0157053885273867,15.8007973982396
0.0137844114375471,15.8029695402549
0.0119813351053828,15.8052735985293
0.0102637920766305,15.8077989663699
0.00877854364717176,15.8103508313972
0.00754974445271235,15.8128333170136
0.00649315207022742,15.8153587633871
0.00558560510174213,15.8179548426599
0.00481186406299243,15.8206446192085
0.00416146719549302,15.8234514354298
0.00362820315238118,15.8264004838873
0.00321046852647082,15.8295202137864
0.00291270476848007,15.832843924618
0.00274871314270384,15.8364118054852
0.00274100999857388,15.8399122104818
0.00287016222044939,15.8430499862411
0.00311133315769482,15.845883210577
0.00345091854238948,15.8484561964752
0.00388406318531418,15.8508178730243
0.00441286015863096,15.8530144992751
0.00504763109341999,15.8550952967228
0.00581030062109407,15.8571159293004
0.00674236184178218,15.8591461918975
0.00792697163767567,15.8612921608022
0.00952692852641889,15.8637148569933
0.0116214521464338,15.8663747195352
0.0133083231715063,15.8682250188745
0.015220057510646,15.8700753182137
0.0171609537736297,15.871724966171
0.0191749130879733,15.8732266224043
0.0213426488932989,15.8746395739994
0.023706634407708,15.8759803618404
0.0263172828899812,15.8772636078494
0.0292230920404169,15.8784973618912
0.0324674348816332,15.8796843761004
0.0361021557130952,15.8808286287216
0.0401810254992494,15.8819325835748
0.0447647812192324,15.8829988418525
0.0499242055460638,15.8840304000371
0.0557388589034073,15.885029917489
0.062304294818459,15.8860006311591
0.0697316275480867,15.8869456449475
0.0781546705534247,15.8878683939866
0.0877345282619848,15.8887724872592
0.0986674990924697,15.8896617981207
0.111196996670398,15.8905406496723
0.125628133484986,15.8914138827362
0.142350420385051,15.8922871034634
0.161873148160644,15.8931670937667
0.184885339334866,15.8940625744064
0.212015275428576,15.8949747182608
0.243402363366301,15.8958899511646
0.279842101258343,15.8968178089741
0.322466646881065,15.897774698781
0.373307892397128,15.8987971711703
0.409474313944327,15.8994779084614
0.446432130307572,15.9001586457525
0.479368005414927,15.9007750517413
0.508379508220374,15.901350679782
0.533773735774232,15.9019124838734
0.555343551592466,15.9024835609264
0.572345798164339,15.9030916742651
0.583032942178805,15.9037860860923
0.583429630272021,15.9045336092195
0.571701144283778,15.905312176363
0.546339442656244,15.9061432376908
0.508006055942377,15.9069894379208
0.455464061474053,15.9078745969808
0.388926588938992,15.9087882816138
0.340894493366895,15.9093688366277
0.289332746382672,15.9099493916417
0.244099975171604,15.9104391122648
0.205495196117903,15.9108534293022
0.171656837485189,15.9112216652432
0.141401187218091,15.9115615860683
0.114006656056096,15.9118844501442
0.0889651961082485,15.9121988275315
0.0658405312384011,15.9125130254802
0.0441225054584638,15.9128382762484
0.0227982942629681,15.9131993362512
0.00697412684132709,15.9135065532315
-0.00209105768679644,15.9137038082328
-0.0103350980561282,15.9139010632341
-0.0169745471874496,15.914075584121
-0.0231326925259588,15.9142531913973
-0.0293440921337423,15.9144517592676
-0.0353506190043473,15.9146678091668
-0.0409874164021446,15.9148992398366
-0.0461623188805161,15.9151452979212
-0.050827013902618,15.9154061321528
-0.05495979679678,15.9156825431459
-0.0585553623939244,15.9159758635256
-0.0616185417398838,15.9162879190591
-0.0641565885446087,15.91662104603
-0.0662530694370235,15.9169952360041
-0.067727736784102,15.917377770815
-0.0687202874769587,15.9177919024475
-0.0692446194333542,15.9182434119318
-0.0693096467643206,15.9187393626809
-0.0689181272896808,15.9192889361671
-0.068061289671037,15.9199057148204
-0.0667138639225449,15.9206078789559
-0.0648228630842114,15.9214229768204
-0.0622756370839131,15.9223992298924
-0.0587755849869861,15.9236490799613
-0.0546754703884516,15.9250641652964
-0.0506808066093474,15.926434748813
-0.0468475180671345,15.9277659564552
-0.0432044838531227,15.9290598955215
-0.0397675994304484,15.9303172342686
-0.0365453237094292,15.9315379206655
-0.0335410699956097,15.9327215642649
-0.0307544364147653,15.9338676380464
-0.0281819868672757,15.9349755832138
-0.0258178504997381,15.9360448595418
-0.0236542396887248,15.9370749633598
-0.0216819214358612,15.9380654249985
-0.0198906492645232,15.9390157922486
-0.018269554421552,15.9399256034513
-0.0167139477618527,15.9408517124095
-0.0152170146776564,15.9418017422733
-0.0137828462568153,15.9427775421517
-0.0124152723983048,15.9437813332303
-0.011117901731682,15.9448157321837
-0.00989406702364938,15.9458838506564
-0.00874676801614744,15.9469894268802
-0.00767861062700327,15.9481370042642
-0.00669174165168762,15.9493321796893
-0.00578777717919959,15.9505819587689
-0.00496772133901663,15.9518952818819
-0.00423186899220935,15.9532838361957
-0.00357967996291819,15.9547633758084
-0.00300959911807611,15.9563560153022
-0.00254245361137207,15.9579996542513
-0.00216599880230678,15.9596970081431
-0.00186449789748408,15.9614666436643
-0.00162328571406823,15.9633321058909
-0.00142821276134041,15.9653254875684
-0.00126502037510228,15.96749358501
-0.0011182403528572,15.9699113772044
-0.000968611998240952,15.9727181034206
-0.000783687202846984,15.9762576623846
-0.000573235704535641,15.98003840254
-0.000321907022713596,15.9841827514294
-3.86814274995458e-05,15.9885601176795
0.000270647112490563,15.9931949401263
0.000599213460059565,15.998112179489
0.000929456158185126,16.0031458937741
0.00122104451819064,16.0077017556197
0.00149167058187817,16.0120338229413
0.00175872440081218,16.016398120476
0.00204391641880105,16.0211367072958
0.00233967654413478,16.0261020219571
0.00263161689937028,16.0310166233023
0.00291913680901844,16.0358361944305
0.00316982448003761,16.0399928768803
0.00340822926430201,16.0438928627669
0.00364453772064393,16.0476930439246
0.00388454603384929,16.0514734288603
0.00413260675900049,16.0552861231226
0.00439262265044262,16.059170935022
0.00466847069478379,16.0631612741639
0.00496430324335157,16.067287651737
0.00528480765579712,16.0715799206605
0.00563546664555906,16.0760685835385
0.00602292801777685,16.0807860101498
0.00645559127514323,16.0857676722016
0.00691855758744494,16.0907785257393
0.00740665107705305,16.0957217344745
0.00792494874992739,16.1006092990542
0.00847681342038065,16.1054268509092
0.00906797815112698,16.1101750786667
0.00970519021611716,16.1148552716676
0.0103963567766759,16.1194699724262
0.0111671587327618,16.1241176152176
0.0120319126728217,16.1287919897571
0.0130122758069565,16.1335100026438
0.014137767263892,16.1383011754043
0.0154553066870778,16.1432334047378
0.0170579374973147,16.148481281719
0.0192388521633414,16.154687834534
0.0209618193583512,16.159095978953
0.0227787551968205,16.163504123372
0.0243142705339927,16.1672200812728
0.0255943862766944,16.170488573226
0.0266648824756026,16.173557338159
0.0275142803702697,16.1765346360605
0.0280949859581165,16.1793776839442
0.0284068720212536,16.1822074470523
0.028421837643415,16.1851769006564
0.028037881342845,16.1885994023876
0.0272534375095531,16.1920296573092
0.0261319342278067,16.1954599122308
0.0250330536520604,16.1982330945242
0.0239563037172268,16.2006856578196
0.0228816227840105,16.2029908786682
0.0218068824408017,16.2052177287995
0.0207348077101754,16.207401843212
0.0196690524903933,16.2095657133073
0.0186133003743479,16.2117252668959
0.0175710269491157,16.2138926953431
0.0165454416789289,16.2160778918981
0.0155394763438864,16.2182892869634
0.0145557903618159,16.2205343714328
0.0135967847399079,16.2228200395115
0.012664606391313,16.2251528558156
0.0117611629940977,16.2275392376838
0.0108881321367955,16.229985612292
0.0100469632225502,16.23249857337
0.00923889219884062,16.235084992758
0.00846494541810524,16.2377521606436
0.00770340950894123,16.2405956134651
0.00695804964696204,16.2436351911097
0.00623259516456101,16.2468946825306
0.00553098223414749,16.2504014999813
0.00485731117011894,16.2541873691494
0.00421577843175069,16.2582892101597
0.00361056410934443,16.262750413158
0.0030457038311424,16.2676229133659
0.00252486944978987,16.2729710352797
0.00205089842844577,16.2788779809844
0.00162581255633068,16.2854549415407
0.00126039687869552,16.2926410294421
0.000955906655185733,16.300420706782
0.000705727658159612,16.3089222924518
0.00050367718100516,16.3183164767478
0.000359664701385746,16.3282433815952
0.000273024762520902,16.3370396927928
0.000202796558878016,16.3470396927928
0.000153834897821522,16.3570396927928
0.000119930385926635,16.3670396927929
9.68385057758707e-05,16.3770396927929
8.1435105677963e-05,16.3870396927929
7.14232497059081e-05,16.3970396927929
6.51687892431885e-05,16.4070396927929
6.1544321987931e-05,16.4170396927929
5.97840865302201e-05,16.4270396927929
5.93688399786635e-05,16.4370396927929
5.99452008138847e-05,16.4470396927929
6.12727063127843e-05,16.4570396927929
6.3189377141711e-05,16.4670396927929
6.55887195583023e-05,16.4770396927929
6.84038882102945e-05,16.4870396927929
7.15966363823965e-05,16.4970396927929
7.51496643167993e-05,16.5070396927929
7.90614382587977e-05,16.5170396927929
8.33428050589966e-05,16.5270396927929
8.80149090351718e-05,16.5370396927929
9.31080662178621e-05,16.5470396927929
9.86613694039205e-05,16.5570396927929
0.000104722887298299,16.5670396927929
0.000111350388671272,16.5770396927929
0.000118612576153629,16.5870396927929
0.000126590861761561,16.5970396927929
0.000135381764083055,16.6070396927929
0.000145100061443921,16.6170396927929
0.000155882903254243,16.6270396927929
0.000167895172257347,16.6370396927929
0.000181336516738262,16.6470396927929
0.000196450653888486,16.6570396927929
0.000213537814869177,16.6670396927929
0.00023297160937877,16.6770396927929
0.00025522221672613,16.6870396927929
0.00028088880428144,16.6970396927929
0.00031074568177977,16.7070396927929
0.000345809368459509,16.7170396927929
0.000387438307949024,16.7270396927929
0.000437485002630135,16.7370396927929
0.000496483531157215,16.7467299170115
0.000563210231203002,16.7556937861963
0.000638490889657286,16.763970034545
0.000723400421000607,16.7716112810346
0.000819182999019118,16.7786669732539
0.000927253365036286,16.7851830050736
0.00104921425268524,16.7912020051263
0.00118687992793373,16.7967636059753
0.00134230614481242,16.8019046182626
0.00151782060466963,16.8066591998387
0.00171606158869653,16.8110590627323
0.00194002185961229,16.8151337009424
0.00219310442555912,16.8189105607686
0.00247917928760262,16.822415170423
0.0028026642183954,16.8256713196346
0.00316862199872755,16.8287012673924
0.00358288223252478,16.8315258938858
0.00405220392158374,16.8341648869654
0.00458449679386908,16.836636991796
0.00518912810868726,16.8389602666845
0.00587737114198926,16.8411524313495
0.00664116805738918,16.8431782743701
0.00748290726439446,16.8450515878652
0.00841412255602848,16.8468042992791
0.00945187733201529,16.8484682279499
0.0106234230036678,16.8500789663908
0.0119848091840615,16.8516924438803
0.0137298012632636,16.853475378268
0.0160494895243722,16.8555204007503
0.0177353863857688,16.8568621138515
0.0195086935562594,16.8582038269526
0.021118424168554,16.8594052124204
0.0225603330303487,16.8605099237936
0.0238565980651094,16.8615732315116
0.0250037766611782,16.8626343799331
0.0259805139502962,16.8637322167853
0.0267442453674478,16.8649217733671
0.0272049199777411,16.8663188368285
0.0271387684105283,16.8679612593549
0.0264829477848711,16.8696036818814
0.0254974572708885,16.8710710070865
0.0243295040622794,16.8724403364022
0.0230006017907917,16.8738096429052
0.0215225285061409,16.8752296795693
0.0199051896597528,16.8767382569493
0.0185218675205669,16.8780288993511
0.0171823575615897,16.879319541753
0.0157063043986206,16.8808384784772
0.0137852754094585,16.88301056321
0.0119821377113066,16.8853145606185
0.0102645866559762,16.8878397614536
0.00877919057231056,16.8903916805197
0.00755029926454323,16.8928741524038
0.00649362857967612,16.8953995699388
0.00558601208427895,16.8979956088279
0.00481220762800729,16.9006853337565
0.00416175126203134,16.9034920865587
0.00362842946125662,16.9064410585497
0.00321063619891854,16.9095606969706
0.00291280917702988,16.9128842984794
0.00274874343882593,16.9164520481857
0.00274096080249814,16.9199526707415
0.002870050439207,16.9230906236523
0.00311116811941134,16.9259240010125
0.00345070475044145,16.9284971145646
0.00388380094391374,16.9308588922262
0.00441254607580263,16.9330555939733
0.00504725688877601,16.9351364394029
0.00580985081445614,16.9371570886117
0.0067418041959374,16.9391873193893
0.00792624046147709,16.9413331799878
0.00952590968258677,16.9437556724436
0.011620223854242,16.9464155161094
0.0133071229228183,16.948266005725
0.0152189024150322,16.9501164953406
0.0171597891280733,16.9517662612447
0.0191736812754047,16.953267983539
0.0213413145455026,16.9546809812438
0.0237051717719082,16.9560218070273
0.0263156586218781,16.9573050824703
0.0292212847300943,16.9585388656718
0.032465410461627,16.9597259046751
0.0360998886330647,16.9608701822511
0.0401784786675116,16.9619741595476
0.0447619188113732,16.9630404393404
0.0499209826752282,16.964072017187
0.0557352250900103,16.9650715526768
0.0623001899774032,16.9660422825576
0.069726979559542,16.9669873105333
0.0781493943348287,16.9679100717963
0.0877285199789728,16.9688141751099
0.0986606311041218,16.9697034936178
0.111189110460482,16.9705823501814
0.125619028618138,16.9714555852482
0.142339838494526,16.972328804431
0.161860747498394,16.9732087888186
0.184870647081871,16.9741042576685
0.21199829997957,16.9750164021514
0.2433827025169,16.9759316312481
0.27981921994725,16.9768594783735
0.322439722887589,16.977816344411
0.373275197422706,16.9788387595436
0.409444316815348,16.9795195703421
0.446405969915585,16.9802003811405
0.479345064152043,16.9808168312509
0.508359272503138,16.9813924788476
0.533756175091099,16.9819542848857
0.555328996934469,16.9825253463152
0.572335060487991,16.9831334188903
0.583028014653341,16.98382773562
0.583433603009729,16.9845752436409
0.571714891914414,16.98535377865
0.546364422219401,16.9861847922369
0.508040756278402,16.9870309877187
0.455510945676127,16.9879161023728
0.388980481700628,16.9888298151143
0.340942386222372,16.989410495029
0.28937208933359,16.9899911749437
0.244132578581156,16.9904809774981
0.205523344933256,16.9908953412849
0.171681800037704,16.9912636052526
0.141423670600277,16.9916035433444
0.114027118563572,16.9919264172736
0.0889839915088157,16.9922407982013
0.0658580051670242,16.9925549926199
0.044139152742615,16.9928802282966
0.0228154601927732,16.9932412396344
0.00698134485004057,16.9935486188836
-0.00208673412161723,16.9937459253813
-0.0103332234084265,16.993943231879
-0.0169730141794631,16.9941177577402
-0.0231311024898829,16.9942953590903
-0.0293425238202598,16.9944939220795
-0.0353491274896844,16.9947099678667
-0.0409860330892387,16.9949413947685
-0.0461610608347783,16.9951874491494
-0.0508258895620346,16.9954482795498
-0.0549588093139015,16.9957246864367
-0.0585545116467159,16.9960180023069
-0.0616178256098591,16.9963300528032
-0.064156006812479,16.9966631740686
-0.0662526972114358,16.9970373726184
-0.0677274703167188,16.9974199012908
-0.0687201228048445,16.9978340255452
-0.0692445541349114,16.9982855263079
-0.0693096794771428,16.9987814666126
-0.0689182582712681,16.9993310273838
-0.0680615224091487,16.9999477898676
-0.0667142061789215,17.0006499331371
-0.0648233308434156,17.0014650026032
-0.0622762661547243,17.0024412128383
-0.0587764876689463,17.0036909788609
-0.0546763566603367,17.0051060756886
-0.0506816614743968,17.0064766682211
-0.0468483330667526,17.0078078841625
-0.0432052544369705,17.0091018312542
-0.0397683231096768,17.0103591779746
-0.0365459992990539,17.0115798724007
-0.0335416972557182,17.0127635241329
-0.0307550158433782,17.0139096061673
-0.0281825195540908,17.0150175597079
-0.0258183380050079,17.0160868445227
-0.0236546839352141,17.0171169569328
-0.021682324610129,17.0181074272631
-0.0198910137266876,17.0190578033032
-0.0182698826245982,17.0199676233997
-0.0167142637843772,17.020893727362
-0.015217317467159,17.0218437519742
-0.0137831349989224,17.0228195461654
-0.0124155463191935,17.0238233310469
-0.0111181601107292,17.0248577231999
-0.00989430920514517,17.0259258341512
-0.00874699342175257,17.0270314019829
-0.00767881876906147,17.0281789699101
-0.0066919321476574,17.0293741345573
-0.0057879497677404,17.030623901191
-0.00496787589869755,17.0319372097066
-0.00423200556469927,17.0333257465728
-0.00357979878434849,17.0348052648295
-0.0030097006664918,17.0363978773522
-0.00254253347615096,17.038041506905
-0.00216606073058197,17.0397388472572
-0.00186454517865345,17.0415084648146
-0.00162332147682931,17.043373903204
-0.00142824008091005,17.0453672528078
-0.00126504244502513,17.0475353056984
-0.00111826082290776,17.0499530322175
-0.000968635892693881,17.0527596497713
-0.000783725156048594,17.056298971202
-0.000573280413639586,17.0600796708701
-0.000321959278156076,17.0642239765239
-3.87402009302284e-05,17.0686012950323
0.000270583492508974,17.0732360649969
0.00059914649813475,17.0781532468788
0.000929398363566557,17.0831870798338
0.00122099235058359,17.0877430076615
0.00149162066135457,17.0920750922819
0.00175867354023524,17.0964393591267
0.00204385928324792,17.1011778290129
0.00233962166340022,17.1061431763383
0.00263156121671836,17.1110577651312
0.00291909221223544,17.1158775307086
0.00316978325592409,17.1200342775207
0.00340818895218639,17.1239342888328
0.00364449715010908,17.1277344785453
0.0038845044160945,17.1315148620505
0.00413256343302754,17.1353275477194
0.00439257698308049,17.1392123452174
0.00466842203227154,17.1432026649136
0.00496425086066601,17.1473290182234
0.00528475071833055,17.1516212580628
0.0056354041595869,17.156109886838
0.00602285875526736,17.1608272739323
0.00645551365292984,17.1658088904771
0.0069184769577365,17.1708197676036
0.00740656510040937,17.1757629808256
0.00792485745041516,17.1806505579564
0.0084767157960654,17.1854681212945
0.00906787319811117,17.1902163609022
0.00970507667249344,17.1948965653054
0.0103962332137978,17.1995112771093
0.0111670202135678,17.2041589132869
0.0120317565360696,17.2088332823643
0.0130120978029697,17.2135512859634
0.0141375613001273,17.2183424421527
0.015455062255923,17.223274637574
0.0170576306476854,17.2285224319722
0.0192383794477662,17.2347286670891
0.0209614331108654,17.2391371135376
0.022778482825314,17.2435455599862
0.024314053446174,17.2472616366785
0.0255942042468994,17.2505301762632
0.0266647321979529,17.2535989592807
0.0275141721180614,17.2565762877775
0.0280949180647759,17.2594193474099
0.0284068460748007,17.2622491024032
0.0284218613474591,17.265218518667
0.0280379835744227,17.2686409017962
0.0272535503290816,17.2720713474477
0.0261320117100854,17.2755017930992
0.0250331220091013,17.2782750232938
0.0239563710284842,17.2807276008082
0.0228816900896485,17.2830328282205
0.0218069496829388,17.2852596819245
0.0207348746736347,17.2874437981971
0.0196691189408074,17.2896076689954
0.0186133660863946,17.2917672224296
0.017571091712401,17.2939346500457
0.0165455053015823,17.2961198452038
0.0155395386497489,17.2983312383824
0.0145558511923206,17.3005763205198
0.0135968439523659,17.30286198585
0.012664663858156,17.3051947990043
0.0117612186039099,17.3075811773221
0.0108881857903661,17.3100275479794
0.0100470148359579,17.3125405046886
0.00923894170025706,17.3151269192722
0.00846499274962977,17.317794081885
0.00770345597006661,17.320637523225
0.00695809499289053,17.3236770881041
0.00623263915882435,17.3269365651926
0.00553102462972365,17.3304433664969
0.00485735171108909,17.334229217417
0.00421581685843328,17.3383310377296
0.00361060016809066,17.3427922171293
0.00304573728236616,17.3476646902112
0.00252490009362522,17.3530127805415
0.00205092611591478,17.3589196887818
0.0016258371844212,17.3654966039657
0.00126041752814597,17.3726826583494
0.000955923740356916,17.3804622954097
0.000705741577968893,17.3889638316203
0.00050368830233077,17.3983579543192
0.000359654727104441,17.4082862249119
0.000273023982463888,17.4170818142049
0.000202796208732747,17.4270818142049
0.000153834793640113,17.4370818142049
0.000119930372410914,17.4470818142049
9.68385137711552e-05,17.4570818142049
8.14351198070481e-05,17.4670818142049
7.14232721496738e-05,17.4770818142049
6.51688224653231e-05,17.4870818142049
6.15443653364181e-05,17.4970818142049
5.97841377844422e-05,17.5070818142049
5.93688970147596e-05,17.5170818142049
5.99452622372454e-05,17.5270818142049
6.12727714051977e-05,17.5370818142049
6.31894456180451e-05,17.5470818142049
6.55887913759845e-05,17.5570818142049
6.84039634726339e-05,17.5670818142049
7.15967153017826e-05,17.5770818142049
7.51497472026491e-05,17.5870818142049
7.90615255129278e-05,17.5970818142049
8.33428971739645e-05,17.6070818142049
8.80150065960108e-05,17.6170818142049
9.31081699081958e-05,17.6270818142049
9.86614800169364e-05,17.6370818142049
0.000104723005752816,17.6470818142049
0.000111350516033326,17.6570818142049
0.00011861271366444,17.6670818142049
0.000126591010873299,17.6770818142049
0.000135381926504484,17.6870818142049
0.000145100239198847,17.6970818142049
0.000155883098756841,17.7070818142049
0.000167895388410063,17.7170818142049
0.000181336757060363,17.7270818142049
0.000196450922686793,17.7370818142049
0.000213538117467766,17.7470818142049
0.00023297195243242,17.7570818142049
0.000255222608654845,17.7670818142049
0.000280889255883355,17.7770818142049
0.000310746207112557,17.7870818142049
0.000345809986135484,17.7970818142049
0.000387439043084692,17.8070818142049
0.000437485889861988,17.8170818142049
0.000496484533913502,17.8267720265486
0.000563211360583418,17.8357358843068
0.000638492161331865,17.8440121220943
0.00072340185338731,17.8516533588428
0.000819184613184623,17.8587090420819
0.000927255184902316,17.8652250656275
0.00104921630538166,17.8712440580621
0.0011868822442306,17.8768056519032
0.00134230875965411,17.8819466577485
0.00151782355765547,17.8867012334079
0.00171606492484741,17.891101090873
0.00194002563007886,17.8951757241091
0.00219310868858746,17.8989525793842
0.00247918410961181,17.9024571848809
0.00280266967534852,17.9057133303026
0.00316862817801435,17.9087432746152
0.00358288923507615,17.9115678979876
0.00405221186493677,17.9142068882533
0.00458450581644718,17.9166789905645
0.00518913837556746,17.9190022632195
0.00587738285381086,17.9211944259357
0.00664118096409397,17.9232202662424
0.00748292151546728,17.9250935775352
0.00841413837847197,17.9268462872617
0.00945189506917366,17.9285102147793
0.0106234432351681,17.9301209527214
0.0119848340666663,17.9317344318352
0.0137298350556943,17.9335173708924
0.0160495293322687,17.9355623940946
0.0177354236806865,17.9369041031841
0.0195087267118936,17.9382458122736
0.0211184534033062,17.9394471950045
0.0225603592562826,17.940551905113
0.0238566214398762,17.9416152124409
0.025003796933305,17.9426763611911
0.0259805305271376,17.9437741992213
0.0267442571085114,17.9449637583998
0.0272049241387575,17.9463608281488
0.0271387601561458,17.9480032523236
0.0264829279958874,17.9496456764984
0.0254974322900536,17.9511129986443
0.0243294752478546,17.9524823272162
0.0230005694745442,17.9538516344016
0.0215224929522487,17.9552716726457
0.0199051510436481,17.9567802524484
0.0185218926249554,17.9580708353151
0.0171824413255096,17.9593614181817
0.0157065021329705,17.9608802265472
0.0137854615933854,17.9630522993145
0.0119823107017641,17.9653562835462
0.0102647582670533,17.9678814478035
0.00877933029612733,17.970433378496
0.00755041907156657,17.9729158474115
0.00649373145239332,17.9754412587152
0.00558609991726326,17.9780372888779
0.00481228173869449,17.980727002652
0.00416181249308887,17.9835337417498
0.00362847818264104,17.9864826972169
0.00321067221156846,17.9896023158699
0.00291283146711983,17.9929258937547
0.00274874964018852,17.9964936151179
0.00274094973465372,17.9999942851539
0.0028700257696915,18.0031322767392
0.00311113186915494,18.0059656875069
0.00345065789248569,18.008538828933
0.00388374353876567,18.0109006286807
0.0044124773781761,18.0130973469201
0.00504717508666359,18.0151782028304
0.0058097525186658,18.017198855656
0.00674168236627805,18.0192290794734
0.00792608074174378,18.021374916387
0.00952568704538407,18.0237973641684
0.0116199554590897,18.0264572036559
0.0133068606893556,18.0283077348367
0.0152186500947905,18.0301582660174
0.0171595347735507,18.0318080576819
0.0191734123061844,18.0333097944026
0.0213410232428872,18.0347228021768
0.0237048525194046,18.0360636362473
0.0263153041288702,18.0373469181117
0.0292208903326573,18.0385807076781
0.0324649687185802,18.0397677520903
0.0360993939764081,18.0409120351125
0.0401779229999886,18.0420160173055
0.0447612943243162,18.043082301794
0.049920279576945,18.0441138839318
0.0557344323738155,18.045113423359
0.0622992945409819,18.046084156779
0.0697259656761438,18.0470291878526
0.0781482434537067,18.0479519517857
0.0877272094613956,18.0488560572937
0.0986591331225172,18.0497453774742
0.111187390458631,18.0506242351364
0.125617042905331,18.0514974706465
0.142337530758063,18.0523706895
0.161858043261698,18.0532506726066
0.184867443320358,18.0541461388968
0.211994598419703,18.0550582835242
0.243378415489628,18.0559735117998
0.27981423084005,18.0569013566067
0.322433852533647,18.0578582174765
0.373268069300912,18.0588806201488
0.409437776408314,18.0595614469777
0.446400265410604,18.0602422738067
0.479340060936603,18.060858733542
0.50835485860633,18.0614343854087
0.533752343824481,18.0619961918789
0.555325820379125,18.0625672499116
0.572332715282173,18.0631753136125
0.583026934917337,18.0638696096318
0.583434462239858,18.0646171143683
0.571717880684516,18.0653956423818
0.546369858006727,18.066226645571
0.508048308979998,18.0670728400405
0.455521151937004,18.0679579450315
0.388992216246908,18.06887166388
0.340952814431336,18.0694523710019
0.289380655681542,18.0700330781237
0.244139677350655,18.0705228985244
0.20552947376343,18.070937272494
0.171687235140267,18.0713055425665
0.141428565947419,18.0716454844196
0.114031573942771,18.0719683604957
0.0889880839431096,18.0722827421956
0.0658618099032978,18.0725969358469
0.0441427774948081,18.0729221682396
0.0228191977073445,18.0732831689876
0.00698291482076227,18.0735905835977
-0.00208579374837155,18.073787901297
-0.0103328157109707,18.0739852189963
-0.016972680805811,18.0741597459406
-0.0231307566889392,18.0743373460017
-0.0293421827266376,18.0745359079296
-0.0353488030873831,18.0747519528229
-0.0409857322113669,18.0749833789055
-0.0461607871950081,18.0752294324814
-0.0508256449970785,18.0754902620489
-0.0549585945104199,18.0757666680433
-0.0585543265788224,18.0760599829333
-0.0616176698173075,18.0763720323345
-0.0641558802444926,18.0767051523596
-0.0662526161259558,18.0770793527582
-0.0677274122486552,18.0774618800946
-0.0687200868924846,18.0778760027433
-0.0692445398508797,18.0783275016078
-0.0693096865245083,18.0788234396392
-0.0689182867056425,18.0793729976426
-0.0680615729892764,18.0799897566065
-0.0667142805939889,18.0806918953333
-0.064823432572901,18.0815069586166
-0.0622764029945553,18.0824831595244
-0.0587766840697829,18.0837329072463
-0.0546765494721124,18.0851480065756
-0.0506818474333491,18.0865186010701
-0.0468485103325747,18.0878498188173
-0.0432054220203785,18.089143767655
-0.0397684804702401,18.09040111611
-0.0365461461801812,18.0916218122828
-0.0335418336065008,18.0928054657842
-0.0307551417734688,18.0939515496139
-0.0281826353018433,18.0950595049759
-0.0258184439111016,18.0961287916368
-0.023654780419127,18.0971589059159
-0.0216824121486564,18.0981493781369
-0.019891092834299,18.099099756089
-0.0182699538358907,18.1000095781201
-0.0167143323374912,18.1009356809957
-0.0152173831335223,18.1018857044656
-0.0137831976017803,18.1028614974197
-0.0124156056906223,18.1038652809532
-0.0111182160943929,18.1048996716269
-0.00989436165884226,18.1059677809422
-0.00874704222011741,18.1070733469485
-0.00767886380646402,18.1082209128187
-0.00669197334134651,18.1094160751214
-0.00578798706133736,18.1106658390479
-0.00496790926627031,18.1119791443883
-0.00423203501580943,18.1133676774593
-0.00357982437088145,18.1148471910707
-0.00300972249298339,18.1164397977267
-0.00254255058382589,18.1180834252357
-0.00216607393521639,18.119780762643
-0.0018645551964191,18.121550376293
-0.00162332898892929,18.1234158094975
-0.00142824575692395,18.1254091521248
-0.00126504698031006,18.127577195325
-0.00111826501214482,18.1299949075591
-0.000968640829711948,18.1328015014783
-0.000783733155252906,18.1363407712475
-0.000573289887706079,18.1401214621113
-0.000321970386453049,18.144265758577
-3.87527176256494e-05,18.1486430669384
0.00027056993226774,18.1532778257484
0.000599132222145741,18.1581949954133
0.00092938603305918,18.1632288535525
0.00122098121611491,18.1677847953845
0.0014916100056519,18.1721168836775
0.00175866268642389,18.1764811440112
0.00204384709856564,18.1812195890856
0.00233960995713582,18.1861849433452
0.00263154933946115,18.1910995294765
0.00291908268641507,18.1959193363246
0.00316977444425025,18.2000760967968
0.00340818033224121,18.2039761135057
0.00364448847328293,18.2077763050347
0.00388449551472848,18.2115566882376
0.00413255416653709,18.2153693720841
0.00439256721672608,18.2192541665274
0.00466841162686974,18.2232444820987
0.00496423966181626,18.2273708302613
0.00528473854825642,18.231663063931
0.00563539080658959,18.2361516854716
0.00602284395772051,18.2408690641829
0.00645549707356922,18.2458506710742
0.00691845973277343,18.2508615532273
0.0074065467318649,18.2558047674167
0.00792483794237899,18.2606923472279
0.00847669493455708,18.265509913019
0.00906785076863475,18.2702581551579
0.00970505240559587,18.2749383619974
0.0103962068044122,18.2795530761623
0.011166990606636,18.2842007109265
0.0120317231630147,18.2888750788373
0.0130120597556538,18.2935930804521
0.014137517276503,18.2983842331005
0.0154550100103116,18.3033164212747
0.0170575650613335,18.308564198024
0.0192382784144837,18.3147703652492
0.0209613505607253,18.3191788762589
0.0227784246168025,18.3235873872686
0.0243140070530512,18.3273034893504
0.0255941653458111,18.3305720391147
0.0266647000822585,18.3336408259972
0.0275141489832282,18.3366181610327
0.0280949035546012,18.3394612231762
0.0284068405285656,18.3422909764358
0.0284218664112466,18.3452603847208
0.028038005418323,18.3486827425081
0.0272535744349724,18.3521132289227
0.0261320282626995,18.3555437153372
0.0250331366114515,18.3583169557674
0.0239563854073563,18.3607695363197
0.02288170446733,18.3630747651342
0.0218069640470667,18.3653016196015
0.0207348889782378,18.3674857362716
0.0196691331358151,18.3696496072202
0.0186133801236659,18.3718091606214
0.0175711055469833,18.3739765880602
0.0165455188924797,18.37616178292
0.0155395519593215,18.3783731756956
0.014555864186685,18.3806182573351
0.0135968566010307,18.3829039220783
0.0126646761338581,18.3852367345601
0.0117612304828364,18.3876231121197
0.0108881972513104,18.3900694819334
0.010047025860979,18.3925824377098
0.00923895227399611,18.3951688512676
0.00846500285970405,18.3978360127547
0.0077034658942188,18.4006794516423
0.00695810467882514,18.4037190137947
0.00623264855602875,18.4069784878219
0.00553103368543067,18.4104852856773
0.00485736037063048,18.4142711326996
0.00421582506633772,18.4183729485911
0.00361060787017516,18.4228341229502
0.00304574442753827,18.427706590238
0.00252490663919234,18.4330546738219
0.00205093203002558,18.4389615740596
0.00162584244504902,18.4455384795515
0.00126042193887885,18.4527245267758
0.000955927389691749,18.4605041552325
0.000705744551109995,18.4690056808785
0.000503690677643235,18.4783997904202
0.000359652628118086,18.4883283503136
0.000273023828671253,18.4971237865748
0.000202796143001511,18.5071237865748
0.000153834777890696,18.5171237865748
0.000119930374364875,18.5271237865748
9.68385192266839e-05,18.5371237865748
8.14351258283351e-05,18.5471237865748
7.14232794253256e-05,18.5571237865748
6.51688316746983e-05,18.5671237865748
6.15443764506569e-05,18.5771237865748
5.97841504096788e-05,18.5871237865748
5.93689107555432e-05,18.5971237865748
5.99452768376075e-05,18.6071237865748
6.12727867421973e-05,18.6171237865748
6.3189461653477e-05,18.6271237865748
6.55888081183068e-05,18.6371237865748
6.84039809581203e-05,18.6471237865748
7.15967335879022e-05,18.6571237865749
7.51497663663726e-05,18.6671237865749
7.90615456503903e-05,18.6771237865749
8.33429184006187e-05,18.6871237865749
8.80150290474123e-05,18.6971237865749
9.31081937416748e-05,18.7071237865749
9.86615054142876e-05,18.7171237865749
0.000104723032924084,18.7271237865749
0.000111350545221804,18.7371237865749
0.000118612745153091,18.7471237865749
0.000126591044992931,18.7571237865749
0.000135381963644157,18.7671237865749
0.000145100279819182,18.7771237865749
0.000155883143407164,18.7871237865749
0.000167895437750676,18.7971237865749
0.000181336811891783,18.8071237865749
0.000196450983988582,18.8171237865749
0.00021353818645077,18.8271237865749
0.000232972030610063,18.8371237865749
0.000255222697941953,18.8471237865749
0.000280889358735567,18.8571237865749
0.000310746326726808,18.8671237865749
0.000345810126744618,18.8771237865749
0.000387439210400954,18.8871237865749
0.000437486091763118,18.8971237865749
0.000496484762072907,18.9068139962163
0.000563211617523684,18.9157778513742
0.000638492450615657,18.9240540867585
0.000723402179202709,18.9316953212904
0.000819184980322624,18.9387510024859
0.000927255598803914,18.9452670241487
0.00104921677221819,18.9512860148499
0.00118688277100223,18.9568476070962
0.00134230935431146,18.9619886114757
0.00151782422920906,18.9667431857886
0.00171606568354237,18.9711430420184
0.00194002648755601,18.9752176741226
0.00219310965810324,18.978994528362
0.0024791852062839,18.9824991329127
0.00280267091646771,18.985755277472
0.003168629583473,18.9887852210006
0.00358289082784944,18.9916098436627
0.00405221367178081,18.9942488332882
0.0045845078688742,18.996720935026
0.00518914071115776,18.9990442071729
0.00587738551824007,19.0012363694457
0.00664118390043456,19.0032622091347
0.0074829247577568,19.0051355199264
0.00841414197839825,19.006888229269
0.00945189910491537,19.0085521565242
0.0106234478387066,19.010162894353
0.0119848397290653,19.0117763738369
0.0137298427467039,19.0135593139577
0.0160495384213622,19.0156043373478
0.0177354321947391,19.0169460455205
0.019508734279333,19.0182877536933
0.0211184600748266,19.0194891357993
0.0225603652402703,19.0205938456189
0.0238566267723522,19.0216571528579
0.0250038015568373,19.0227183016832
0.0259805343063718,19.0238161399827
0.0267442597829571,19.0250056997544
0.0272049250816129,19.0264027709395
0.0271387582464528,19.0280451955643
0.0264829233871581,19.0296876201891
0.0254974264626599,19.0311549416367
0.0243294685248591,19.0325242700371
0.0230005619345917,19.033893577382
0.0215224846570897,19.0353136159945
0.0199051420341907,19.0368221963622
0.0185218984755642,19.0381127653447
0.0171824608559643,19.0394033343272
0.015706548236822,19.0409221127642
0.0137855049801012,19.0430941827695
0.011982351016318,19.0453981639261
0.0102647982849481,19.0479233196179
0.00877936287845997,19.0504752530183
0.00755044700793709,19.0529577212415
0.00649375543825711,19.0554831310918
0.0055861203943615,19.0580791592193
0.00481229901409401,19.0607688703919
0.00416182676302465,19.0635756062934
0.00362848953295722,19.0665245579066
0.00321068059519068,19.0696441719492
0.00291283664661521,19.0729677443241
0.00274875106215236,19.0765354590769
0.00274094712253217,19.0800361402194
0.00287001997983314,19.0831741408523
0.00311112337325648,19.0860075594356
0.00345064691747506,19.0885807073829
0.00388373009838206,19.0909425122983
0.00441246129773591,19.0931392343967
0.00504715594194669,19.0952200927592
0.00580972951610841,19.09724074643
0.0067416538587019,19.0992709686181
0.00792604336940699,19.1014167999877
0.00952563494571446,19.1038392373042
0.0116198926523363,19.1064990758103
0.0133067993267534,19.1083496167166
0.0152185910550776,19.1102001576229
0.017159475261379,19.1118499553145
0.019173349378289,19.1133516954106
0.0213409550937258,19.1147647055407
0.0237047778353903,19.1161055415501
0.0263152212036238,19.1173888249165
0.0292207980757662,19.1186226159719
0.0324648653889365,19.1198096616492
0.0360992782720882,19.1209539459454
0.0401777930266879,19.1220579292837
0.0447611482560688,19.1231242148706
0.0499201151235493,19.1241557980122
0.0557342469612307,19.1251553383605
0.0622990851049777,19.1261260726085
0.0697257285387374,19.1270711044069
0.0781479742766614,19.1279938689648
0.0877269029504777,19.1288979749863
0.098658782770155,19.1297872955583
0.111186988183956,19.1306661534779
0.12561657849166,19.1315393890921
0.142336991037556,19.1324126078691
0.161857410819782,19.1332925906767
0.184866694068271,19.134188056369
0.211993732754204,19.1351002010308
0.243377412910212,19.1360154291149
0.279813064079111,19.1369432733804
0.322432479698388,19.1379001330427
0.373266402357749,19.1389225328026
0.40943624687149,19.1396033633806
0.446398931311752,19.1402841939586
0.479338890799284,19.1409006559451
0.508353826246709,19.1414763088108
0.53375144767654,19.1420381153825
0.555325077294632,19.1426091726215
0.572332166558636,19.1432172342479
0.583026682050362,19.1439115254254
0.583434662715629,19.1446590293944
0.571718579063495,19.1454375557726
0.546371128521754,19.1462685565309
0.508050074392409,19.1471147507652
0.455523537719196,19.1479998534977
0.388994959426722,19.1489135737731
0.340955252236694,19.1494942872559
0.289382658230925,19.1500750007387
0.244141336819425,19.1505648253116
0.205530906490401,19.1509792016619
0.17168850569786,19.1513474731616
0.141429710329866,19.1516874158941
0.114032615477218,19.1520102924722
0.0889890406348936,19.1523246743527
0.0658626993425837,19.1526388678247
0.0441436248606542,19.1529640994498
0.0228200714272988,19.1533250977226
0.00698328174825503,19.1536325206006
-0.00208557397113797,19.153829840918
-0.0103327204306899,19.1540271612354
-0.0169726028969662,19.1542016884329
-0.0231306758741487,19.1543792881928
-0.0293421030108745,19.1545778498727
-0.0353487272716677,19.154793894557
-0.0409856618929089,19.1550253204482
-0.0461607232418605,19.155271373836
-0.0508255878385565,19.155532203209
-0.0549585443070821,19.1558086089948
-0.0585542833246843,19.1561019236557
-0.0616176334048313,19.156413972801
-0.0641558506615875,19.1567470925363
-0.0662525971667832,19.1571212933659
-0.0677273986699024,19.1575038203899
-0.0687200784927841,19.1579179426633
-0.0692445365069368,19.1583694410841
-0.0693096881668837,19.1588653785841
-0.068918293347307,19.1594149359405
-0.0680615848075723,19.1600316940815
-0.0667142979837649,19.1607338317464
-0.0648234563475493,19.1615488935842
-0.0622764349766025,19.1625250923115
-0.0587767299754348,19.1637748357548
-0.0546765945375753,19.1651899356689
-0.05068189089571,19.166560530622
-0.0468485517617008,19.1678917487912
-0.0432054611850966,19.1691856980371
-0.0397685172443068,19.1704430468975
-0.0365461805037035,19.1716637434785
-0.033541865467676,19.1728473973934
-0.0307551711980192,19.1739934816427
-0.0281826623455674,19.1751014374304
-0.0258184686537094,19.1761707245228
-0.0236548029587438,19.1772008392387
-0.0216824325968,19.1781913119016
-0.0198911113112869,19.1791416903005
-0.018269970466738,19.1800515127838
-0.0167143483464758,19.1809776154055
-0.0152173984672488,19.1819276386084
-0.0137832122189637,19.1829034312733
-0.0124156195520428,19.1839072144918
-0.0111182291635423,19.1849416048198
-0.00989437390251436,19.1860097137527
-0.00874705360904336,19.1871152793324
-0.00767887431598607,19.1882628447218
-0.00669198295215596,19.1894580064766
-0.0057879957602902,19.1907077697703
-0.00496791704733983,19.1920210743686
-0.00423204188126598,19.1934096065527
-0.00357983033288707,19.1948891190783
-0.0030097275760082,19.1964817243633
-0.0025425545638324,19.1981253513945
-0.00216607700291341,19.1998226881135
-0.00186455751923395,19.2015923008503
-0.00162333072611606,19.203457732843
-0.00142824706502038,19.2054510738398
-0.00126504802188143,19.2076191147753
-0.00111826597297649,19.2100368236707
-0.000968641965517446,19.2128434120662
-0.000783735007039393,19.2163826697615
-0.000573292084565954,19.2201633585677
-0.000321972964759728,19.224307652901
-3.87556244486244e-05,19.2286849589074
0.00027056678228973,19.2333197151285
0.000599128905661089,19.2382368819579
0.000929383167902869,19.2432707459395
0.001220978628558,19.2478266910204
0.00149160752929625,19.2521587801655
0.00175866016420579,19.2565230389888
0.00204384426765203,19.2612614783073
0.00233960723720117,19.2662268341757
0.00263154657979865,19.2711414196897
0.00291908047217158,19.2759612361125
0.00316977239556758,19.2801179997537
0.00340817832790887,19.2840180177147
0.00364448645561005,19.2878182096651
0.00388449344480147,19.2915985927979
0.00413255201171985,19.2954112762218
0.00439256494573401,19.2992960699565
0.00466840920738227,19.303286384571
0.00496423705797595,19.3074127315397
0.00528473571877429,19.3117049637781
0.00563538770229593,19.3161935836406
0.00602284051784848,19.3209109604074
0.00645549321978556,19.3258925650594
0.00691845572869718,19.3309034483801
0.00740654246185965,19.335846662795
0.00792483340732484,19.3407342432292
0.00847669008471474,19.3455518095905
0.00906784555414187,19.3503000523178
0.00970504676382446,19.3549802597237
0.0103962006644568,19.3595949744375
0.0111669837232154,19.3642426088732
0.0120317154039534,19.3689169765127
0.0130120509098297,19.3736349776663
0.0141375070412082,19.3784261294915
0.0154549978634517,19.3833583159809
0.0170575498128578,19.388606088627
0.0192382549250734,19.3948122400685
0.0209613313686066,19.3992207660885
0.0227784110840559,19.4036292921086
0.0243139962672645,19.4073454000932
0.0255941563018142,19.4106139522242
0.0266646926157606,19.4136827400053
0.0275141436046471,19.416660076561
0.028094900181122,19.4195031392883
0.028406839239063,19.4223328921448
0.0284218675884013,19.425302298575
0.0280380104965417,19.4287246504708
0.0272535800390373,19.4321551463623
0.0261320321106549,19.4355856422538
0.02503314000599,19.4383588850637
0.0239563887499409,19.4408114663222
0.0228817078096383,19.4431166954627
0.0218069673862251,19.4453435501074
0.0207348923035592,19.4475276668699
0.0196691364356592,19.4496915378534
0.0186133833868413,19.451851091247
0.0175711087630394,19.4540185186446
0.0165455220518862,19.4562037134351
0.0155395550533266,19.458415106117
0.0145558672074116,19.4606601876407
0.01359685954139,19.4629458522475
0.0126646789875119,19.465278664573
0.0117612332442483,19.4676650419564
0.0108881999155495,19.470111411574
0.0100470284238738,19.4726243671335
0.00923895473197523,19.475210780453
0.00846500520988799,19.4778779416784
0.00770346820118305,19.4807213799959
0.00695810693041299,19.4837609415145
0.00623265074049756,19.48702041483
0.00553103579051391,19.4905272118837
0.00485736238362017,19.4943130579999
0.00421582697433841,19.4984148728638
0.00361060966059118,19.5028760460511
0.00304574608849857,19.507748511992
0.00252490816077277,19.5130965940076
0.00205093340481985,19.519003492385
0.00162584366793519,19.5255803956238
0.00126042296419504,19.532766441184
0.000955928238009134,19.5405460676406
0.000705745242234762,19.5490475908309
0.000503691229792166,19.558441697314
0.000359652142426406,19.568370324286
0.00027302379383517,19.577165725056
0.000202796128366713,19.587165725056
0.000153834774691989,19.597165725056
0.000119930375162754,19.607165725056
9.68385207605128e-05,19.617165725056
8.14351274405483e-05,19.627165725056
7.14232812918841e-05,19.637165725056
6.51688339644462e-05,19.647165725056
6.15443791647631e-05,19.657165725056
5.97841534623261e-05,19.667165725056
5.93689140589561e-05,19.677165725056
5.99452803352706e-05,19.6871657250561
6.12727904076999e-05,19.6971657250561
6.3189465479551e-05,19.7071657250561
6.55888121081625e-05,19.7171657250561
6.84039851211944e-05,19.7271657250561
7.15967379384073e-05,19.7371657250561
7.5149770922966e-05,19.7471657250561
7.90615504361422e-05,19.7571657250561
8.33429234430835e-05,19.7671657250561
8.80150343788409e-05,19.7771657250561
9.31081993994285e-05,19.7871657250561
9.86615114414877e-05,19.7971657250561
0.000104723039370517,19.8071657250561
0.000111350552145111,19.8171657250561
0.00011861275262029,19.8271657250561
0.000126591053082355,19.8371657250561
0.00013538197244792,19.8471657250561
0.000145100289446332,19.8571657250561
0.000155883153987735,19.8671657250561
0.000167895449440967,19.8771657250561
0.000181336824881274,19.8871657250561
0.000196450998509125,19.8971657250561
0.000213538202788958,19.9071657250561
0.000232972049124096,19.9171657250561
0.000255222719085036,19.9271657250561
0.000280889383088904,19.9371657250561
0.000310746355047059,19.9471657250561
0.000345810160033627,19.9571657250561
0.000387439250010732,19.9671657250561
0.000437486139558243,19.9771657250561
0.000496484816081994,19.9868559340579
0.000544223845420161,19.9934279670289
0.000599557875153831,20
