ecg,time
0.0119787693386508,15.0001637443784
0.0130185133924529,15.0048478601022
0.0142352480519096,15.009674813127
0.0157145598371799,15.0148182612698
0.0177258706037761,15.020912360003
0.019311069817407,15.0252422644724
0.0209781894932611,15.0295721689418
0.0223856583182345,15.0332286081958
0.0235556546086031,15.0364452360916
0.0245292514667815,15.0394625280298
0.0253050140416365,15.0424272832229
0.0258258716252277,15.0452717129047
0.0260843905878944,15.0480886976548
0.0260553480754154,15.0510227665342
0.0256499916583712,15.0543492547956
0.0248471085039709,15.0577823460098
0.0237165303929387,15.061215437224
0.0225949967134536,15.0640457267816
0.0215128515757501,15.0665236004503
0.0204451140905134,15.0688394017466
0.0193865921467605,15.071070014753
0.0183386487734696,15.0732540150534
0.0173041581016006,15.0754152532836
0.016286244508489,15.0775704253046
0.0152879255546772,15.0797322143548
0.0143119952264343,15.0819108741184
0.0133609878895062,15.0841151253504
0.0124371679325932,15.0863527195976
0.0115425330474692,15.0886308133174
0.010678820835475,15.0909562391443
0.00984751445989507,15.0933357236394
0.00904985557442308,15.0957760525051
0.00828684959584762,15.098284240673
0.00755928034255088,15.1008676697038
0.0068677171553826,15.1035342534137
0.00619935879464189,15.1063506949919
0.00555100002703364,15.1093610759564
0.00492601245248684,15.112588522898
0.00432775831904887,15.1160601433346
0.00375963428434645,15.1198073169113
0.00322499722182125,15.1238665570897
0.00272705737571399,15.1282807193083
0.00226872657501798,15.1331009332193
0.00185241058799798,15.1383901247008
0.0014797896679614,15.1442292710283
0.00115172314429356,15.1507265900982
0.000868377423080248,15.1580281182525
0.000687128564150397,15.1640746807337
0.00055645663277347,15.170121243215
0.00042639361528247,15.1786698808704
0.000334555272698148,15.1874338361972
0.000265356101702655,15.1970357688275
0.00021830156558813,15.2070357688275
0.000189329365487544,15.2170357688275
0.000172952462889545,15.2270357688275
0.000165250781712321,15.2370357688275
0.000163542460795459,15.2470357688275
0.000166095128143235,15.2570357688275
0.00017184976045119,15.2670357688275
0.000180199717432932,15.2770357688275
0.000190841412486986,15.2870357688275
0.000203685556173321,15.2970357688275
0.00021881005858562,15.3070357688275
0.000236439996065558,15.3170357688275
0.000256947116458076,15.3270357688275
0.000280867023303451,15.3370357688275
0.000308936314130508,15.3470357688275
0.000342155948356141,15.3570357688275
0.000381892729530638,15.3670357688275
0.00043004024790134,15.3770357688275
0.000485043917653331,15.3863743709368
0.00054730749787511,15.3950189881624
0.000617725710816808,15.4030177000961
0.000697374730657228,15.4104183330997
0.000787489718946377,15.4172655708262
0.000889471211837826,15.4236011000315
0.00100490398324897,15.4294638367233
0.00113558119767599,15.4348901154723
0.00128353308330242,15.4399138386245
0.00145105649928104,15.444566633934
0.00164075284027297,15.4488780147147
0.00185556854881101,15.4528755346555
0.00209884619027284,15.4565849178665
0.00237438264039492,15.4600301915677
0.0026865024277478,15.4632338321504
0.00304014985240728,15.466216912881
0.00344100301285411,15.4689992486403
0.00389562561840495,15.4715995635826
0.00441167005112745,15.474035686205
0.0049981567101794,15.4763247772794
0.00566587829472886,15.4784836315243
0.00641289776048812,15.4804920158466
0.00723584875358569,15.4823447594745
0.00814486977521153,15.4840723395387
0.00915485598074578,15.4857047737482
0.0102887014955678,15.4872739441184
0.0115861026732609,15.4888204742564
0.0131969676060042,15.4904769786034
0.0154882038173952,15.4924963882038
0.0172424698771868,15.4938706763339
0.0191184125994969,15.4952449644639
0.0208556857747428,15.4964795660022
0.0223995641686989,15.4975880407353
0.0237894876665315,15.4986380016795
0.0250314830036611,15.4996724560377
0.0261106236805668,15.5007282294089
0.0269931401958717,15.5018510389866
0.0276120116129384,15.5031228803388
0.0277809892930168,15.504798110598
0.0272894156914193,15.5064238514759
0.0262705130004636,15.5080495923538
0.0250985626712042,15.5094298263629
0.0237687942051868,15.5107796875282
0.0222805141620819,15.5121729220501
0.0206417544526897,15.5136502683723
0.0188567299950746,15.5152525618606
0.016949227567447,15.5170363576932
0.0152770865950475,15.5187307605879
0.0130265876561225,15.5212699205832
0.0110664273926128,15.5238086136526
0.00930089075909192,15.5264629246528
0.00786742876458539,15.5289794239474
0.0066534299792053,15.5314676296853
0.00581306118798027,15.5334531479216
0.00507368963750609,15.5354386661578
0.00447259081924049,15.537267472824
0.00395411641778332,15.5390448634029
0.00347929531314225,15.540881672293
0.00301750604412018,15.5429176990046
0.00252223440419243,15.5454718226949
0.00201664684222137,15.5486540170815
0.0016025375179686,15.5519409189118
0.00129057205870025,15.555092948795
0.00102958842981858,15.5585210008226
0.000806295001211807,15.562621037312
0.000650482649411841,15.5673056225895
0.000587132677292165,15.5723560778836
0.00062088044811467,15.5768571082254
0.000733038571953449,15.5809543167845
0.000915278757647264,15.5846736341277
0.0011644667947312,15.5880599144147
0.00148089895180645,15.5911583970975
0.0018680234042024,15.5940170589382
0.00233244892524924,15.5966835709484
0.00288590515553167,15.5992109553452
0.00354741367964971,15.6016566297553
0.00434742462486794,15.6040856243875
0.00533059873409062,15.606565192156
0.0065506053716553,15.6091439118464
0.00798209284018169,15.6117036166997
0.00950859298057426,15.6140393390512
0.0110416471996771,15.6160681527933
0.0126101775075394,15.6178742557173
0.0142632428786274,15.6195313650889
0.0160456567623968,15.6210832878451
0.0180022037618162,15.6225579658147
0.0201681242530822,15.6239665778101
0.0225792447167856,15.6253162835391
0.025278079452033,15.6266144215601
0.0282998600826506,15.6278620790868
0.031695251010213,15.6290650428942
0.0355118454653543,15.6302253122238
0.039807594208462,15.6313462499222
0.0446508297632318,15.6324315506769
0.0501191015341294,15.6334844516051
0.0563017299344866,15.6345080210203
0.0633111623686093,15.6355064617109
0.0712811532846354,15.6364838357376
0.0803762940750058,15.6374446225322
0.0908030810605505,15.6383939291302
0.102825319067472,15.6393377014193
0.116794163035736,15.6402835056003
0.133189396938815,15.6412410640904
0.15270416824713,15.6422240186878
0.175486339317104,15.6432157030555
0.20195427044917,15.644216877356
0.232874944873708,15.6452408219568
0.269338340901612,15.6463080006904
0.312656047897275,15.6474445885592
0.346994720688258,15.6482824272113
0.382492346220739,15.6491202658635
0.414099415240273,15.6498682342437
0.441780094916544,15.6505520680002
0.465880995352773,15.6512028227247
0.486320034674756,15.6518438741294
0.502616308636542,15.6524972301549
0.513750426462329,15.653189966674
0.517613384010401,15.6539665034433
0.511113769254628,15.6547820059394
0.492860669892049,15.6556224777467
0.461380028442961,15.656502253586
0.414883224035622,15.6574313396991
0.368171859714254,15.658178562683
0.314058432084377,15.6589257856669
0.266027088796727,15.6595298781769
0.225767281550009,15.6600145447118
0.190920197771253,15.6604294828233
0.159954502382425,15.6608026040438
0.132016727835931,15.6611495307704
0.106567342545611,15.6614805178637
0.0832064495352597,15.661803669906
0.0615741741053046,15.6621270406943
0.0412337126157904,15.6624616140106
0.021309532874448,15.6628312436665
0.00592480457786022,15.6631583665838
-0.00264333916151037,15.6633627822419
-0.0104395913035534,15.6635671979
-0.0168921139618101,15.6637532031225
-0.0228406722665329,15.6639417532255
-0.0288040094977492,15.664151707266
-0.0345432527861348,15.6643795618034
-0.0399071340946868,15.6646232262624
-0.0448122392637467,15.6648819972898
-0.0492156079765535,15.6651560921125
-0.0530959046961067,15.665446390862
-0.0566363414630463,15.6657749122086
-0.0593910893908559,15.6661010731919
-0.0616315751820247,15.6664488452671
-0.0633741063905972,15.6668215545853
-0.0646328911058184,15.6672229341553
-0.0654212771785523,15.6676575947693
-0.0657502482094932,15.6681312934385
-0.0656267203596618,15.6686513316498
-0.0650510424075848,15.6692274157902
-0.0640114069712043,15.6698736202941
-0.0624801433787112,15.6706085524847
-0.0604014891115805,15.6714606435332
-0.0576587129504138,15.6724798341016
-0.0539434906959159,15.6737838140696
-0.0498909364193201,15.6751731300826
-0.0459792184515046,15.6765171583392
-0.0422537013150113,15.6778202130235
-0.0387363471926243,15.6790844890212
-0.0354382000353008,15.6803107957212
-0.0323637398178682,15.6814992399832
-0.0295129056717338,15.682649590583
-0.026882234815943,15.6837614697748
-0.0244656364787371,15.684834451319
-0.0222550014452668,15.6858681055717
-0.0202407236684111,15.6868620128683
-0.018412161563511,15.6878157566737
-0.0167580468261673,15.688728902784
-0.0151795264226104,15.6896536708293
-0.0136611229804081,15.6906022543296
-0.0122070372211634,15.6915764468852
-0.0108211375429294,15.6925784494161
-0.00950707479826206,15.6936108516156
-0.00826822925153628,15.6946767300281
-0.00710765590462599,15.6957797771263
-0.00602802677491452,15.6969244761439
-0.00503156958227117,15.6981163436706
-0.00412000158740955,15.6993622759814
-0.00329445607382376,15.7006710604987
-0.00255539668748905,15.7020541628044
-0.00190251034113508,15.7035270010158
-0.00133455953199177,15.7051111483575
-0.000870501016666919,15.7067521206652
-0.000500674039613869,15.7084454625393
-0.000209196115262567,15.7102096754181
1.85572705877768e-05,15.7120678561352
0.000196545565640242,15.7140513639135
0.000338612473269454,15.7162056783394
0.00045940838867143,15.7186031019573
0.000576454766288652,15.7213761616519
0.000717248977228238,15.7248429398699
0.000882978571140952,15.7286124443486
0.00108833175801191,15.7327668592214
0.00133825284687931,15.7373540667297
0.00157994412909512,15.7415439121274
0.00181732302973779,15.7455605284236
0.00205306778833491,15.7495203640175
0.00228950466756076,15.753491741564
0.00252917476629753,15.7575229499478
0.00277492117316611,15.7616529577199
0.00302987947899583,15.7659165297808
0.00329744993084966,15.7703467257638
0.00358136149420261,15.7749770794231
0.00388582595345399,15.7798431743838
0.00421584643176158,15.784983876242
0.00456961102343165,15.7903200418396
0.00492880213426312,15.7955305402641
0.00530165467847995,15.8007014961327
0.00568819118605683,15.805788474068
0.00609259549678874,15.8108015071231
0.00651881824124334,15.8157418315654
0.00697168842087871,15.8206163133654
0.00745634395520865,15.8254293758155
0.00797839956731583,15.8301841413507
0.00854397120615642,15.8348818201276
0.00915980889153971,15.8395222406477
0.0098334603679535,15.8441045751101
0.0105753227270937,15.8486390290276
0.0114141661491371,15.8532213223519
0.0123691354640721,15.8578551323507
0.0134723861909322,15.8625840843272
0.0147784080189897,15.8675044971353
0.0164113836195181,15.8728864088498
0.0186687607095004,15.8793823426475
0.0201171819883085,15.8832093774275
0.021601281039742,15.8870364122075
0.0228947905710282,15.8904532385921
0.0239811206342694,15.8935648701238
0.0248746146497431,15.8965446799161
0.0255487576260882,15.8994591141978
0.0259631352999254,15.9022775501542
0.026108927497246,15.9051217826065
0.0259432373708212,15.9081671032949
0.0253067043473245,15.9118617023642
0.0242083701409258,15.9156786558332
0.0230386493762493,15.9188208235793
0.0219422646797419,15.9214135253154
0.020869945083204,15.9237815507084
0.0198077698497772,15.9260402975149
0.0187553146997654,15.9282394895903
0.0177150932569468,15.9304075210857
0.0166901983848654,15.9325634263438
0.0156837118224855,15.9347212455729
0.014698524843356,15.9368920674035
0.0137372773726521,15.9390851453458
0.0128023422297862,15.9413085654202
0.011895823482196,15.9435696850496
0.0110195608869509,15.9458754422147
0.0101751401076666,15.948232580193
0.00936389736554177,15.9506478459008
0.00858693075847137,15.9531281488533
0.00784511271236362,15.9556807052947
0.00713909692108882,15.958313200996
0.00646373250218468,15.9610577380265
0.00580696861939357,15.9639881644101
0.00517225401758891,15.9671258681963
0.00456292267417896,15.9704964413285
0.00398236355483652,15.9741294729522
0.00343396043504779,15.9780593034901
0.00292099730246467,15.9823260769832
0.00244652723456349,15.9869773061632
0.00201318663286542,15.9920706156644
0.00162296614938152,15.9976788233932
0.00127705051632468,16.00389800628
0.000975855028832594,16.0108577965565
0.000721942036449968,16.0186358076543
0.000565504407597546,16.0254440770844
0.000456374543458386,16.0322523465145
0.000352714943576814,16.0412515776904
0.000279924960863771,16.0504598522427
0.000227343396627694,16.0604598522427
0.000194501554902977,16.0704598522427
0.000175422487300804,16.0804598522427
0.000165831475123923,16.0904598522427
0.000162771680507727,16.1004598522427
0.00016430741124333,16.1104598522427
0.000169238125648469,16.1204598522427
0.000176861025329629,16.1304598522427
0.000186805077474233,16.1404598522427
0.000198929436253464,16.1504598522427
0.000213267590813336,16.1604598522427
0.000230001162627006,16.1704598522427
0.000249454207397832,16.1804598522427
0.000272104879437779,16.1904598522427
0.000298615597297351,16.2004598522427
0.000329886576643015,16.2104598522427
0.000367142386036833,16.2204598522427
0.000412068965892338,16.2304598522427
0.000464575268251614,16.2400452043278
0.000524094981579985,16.2489284028642
0.000591420117649374,16.2571487270122
0.000667564354303662,16.2647547548373
0.00075370369127455,16.2717922136722
0.000851175618842421,16.278303767876
0.00096149451344126,16.2843292438491
0.00108637383426513,16.2899058319455
0.00122775335172102,16.2950682441461
0.00138782798654216,16.2998488664204
0.00156908266604095,16.3042779174654
0.00177433131682004,16.3083836067053
0.00200676487550557,16.3121922726192
0.00227000477818482,16.3157285100099
0.00256817202496466,16.3190153112372
0.00290597042937503,16.3220742154944
0.0032887919499817,16.3249254508832
0.00372285336644295,16.3275880918175
0.00421537696257514,16.3300802439246
0.00477483822300927,16.3324192556103
0.00541131660604025,16.3346219866376
0.00613249031732847,16.3366933210446
0.00692674556689744,16.3385977216454
0.0078027886220767,16.3403657753226
0.00877358686840503,16.3420276806156
0.00985841875080871,16.3436140265531
0.011089021058415,16.3451608299246
0.0125639894501802,16.3467598304132
0.0145160781985148,16.3485805969629
0.0164297707399367,16.3501486548445
0.0185264515382078,16.3517167127262
0.0203698957383861,16.3530306819693
0.0219713188602966,16.3541693691523
0.0234082954538306,16.3552308467744
0.0246980217200714,16.3562651244264
0.025831177360348,16.357309291631
0.0267803013475324,16.3584045505675
0.0274917190085987,16.3596166254179
0.0278388330496291,16.3611101336883
0.0275338245446489,16.3628407979528
0.0265848095767909,16.3645714622174
0.0254516967284443,16.3659816807575
0.0241630501480181,16.3673283750109
0.0227138171229871,16.3687054799
0.0211117231156166,16.3701570390414
0.0193626010381956,16.3717223387361
0.0187216297585141,16.3722999462365
0.0180898119464433,16.3728775537369
0.0170144367248833,16.3738960065663
0.0145230666492909,16.3764674053167
0.0123730989917818,16.3789996512476
0.0104920760483933,16.3815502676434
0.00883562078017067,16.3841609992299
0.00749004414681254,16.3866352035518
0.00632588080426489,16.3891350816942
0.00539378056225334,16.3914710262042
0.00472308355154791,16.3934024505283
0.00417287130576238,16.3951937014776
0.00368494122270977,16.3969833300006
0.00322656522774536,16.3988868845249
0.00276497960490192,16.4010908830963
0.00222482005252171,16.404184969886
0.00176365065400141,16.4074978227102
0.00141822925586123,16.4106435662559
0.00114075667286465,16.4138772654411
0.000903382517972586,16.4175785542609
0.00071195223643215,16.4220397584535
0.000602776691870521,16.4270220123687
0.000594429428390676,16.4317714247911
0.000671092429574435,16.4360660833871
0.000820897759451775,16.4399663308068
0.00103852892774994,16.4435114233065
0.00132269214699572,16.4467452939825
0.00167521869789947,16.4497143812264
0.00210112243342624,16.452467105829
0.0026092984404698,16.4550534288143
0.00321401274224521,16.4575255256765
0.00393859207216222,16.4599430972091
0.00482004072821104,16.4623742907869
0.00591115095005687,16.4648867866727
0.0072437694016458,16.4674701108492
0.00873528513271952,16.4699293842675
0.0102711035557788,16.4721083893549
0.0118187717659596,16.4740142412774
0.0134320006614175,16.475744017758
0.0151448369243846,16.477341459398
0.0170191338167636,16.4788574613404
0.0190752999398018,16.4802948480427
0.0213642403971066,16.4816740756333
0.0239142623559773,16.4829956093037
0.0267719420697789,16.4842676900982
0.029978493165381,16.4854927581506
0.0335794275502714,16.4866732710796
0.0376320242507343,16.4878135121904
0.0421973349989126,16.4889163159844
0.0473447566551058,16.4899844407569
0.0531616846117505,16.4910219836507
0.0597486780455783,16.49203252391
0.067226916973066,16.4930199247864
0.0757425962289899,16.4939882175538
0.0854817376707453,16.4949424280029
0.0966780141408626,16.4958880924641
0.109635321145308,16.4968318869297
0.12476203087555,16.4977822723358
0.142630456644253,16.4987506070497
0.163813428364753,16.4997412839853
0.188377048740704,16.5007363761277
0.216985310787851,16.5017470754659
0.250541994456637,16.5027895799769
0.29042552359264,16.5038914201623
0.335980029144389,16.5050338944766
0.374942793326203,16.5059589680179
0.407693057341112,16.5067309396556
0.436179193105732,16.5074257262437
0.46103901616958,16.5080814152828
0.482287244240295,16.5087227183436
0.499532246715869,16.5093714443212
0.511895347116617,16.5100529103596
0.517589989168056,16.5108060127138
0.513505818072323,16.5116183083627
0.497932459129054,16.5124519340469
0.469487072569705,16.5133221243987
0.426431328681566,16.5142397430278
0.366873967430625,16.5152137343121
0.324177138848106,16.5158087667488
0.277597055132621,16.5164037991856
0.235933204455986,16.5169092293411
0.199859695431093,16.5173389396881
0.167955674486566,16.5177213976815
0.139265018264251,16.5180742112656
0.113188990247757,16.5184086376872
0.0893014149606856,16.5187331392686
0.0672406559801789,16.5190555706854
0.0466078530166564,16.5193856616671
0.0267236207522286,16.519741646223
0.00495533044437857,16.5201964723573
-0.00344751235838963,16.520398854636
-0.0110967859243539,16.5206012369148
-0.0174572562115751,16.520786189111
-0.0234213441110137,16.5209770086869
-0.0293725553238685,16.5211888216933
-0.0350811105373538,16.5214182545668
-0.0404038935467586,16.5216633786053
-0.0452623479493359,16.5219235954413
-0.0496164088203361,16.522199194362
-0.0534453705298509,16.5224911110958
-0.0568750864629219,16.5228155509915
-0.0595889845322189,16.5231432355425
-0.0617903924438702,16.5234928230471
-0.0634949475141607,16.5238676111125
-0.0647168406346443,16.5242713928827
-0.0654692919634488,16.5247088572912
-0.0657630346112332,16.5251858648284
-0.0656045867335948,16.5257098591586
-0.0649935332549598,16.5262908621995
-0.0639170386756715,16.5269431988879
-0.0623458255350614,16.527686036315
-0.0602210255474783,16.5285488971875
-0.0574182387513333,16.5295844335832
-0.0535979693571554,16.5309213505888
-0.0495548509557457,16.5323064490458
-0.0456578470051567,16.5336468022533
-0.0419495515522578,16.5349464580606
-0.0384507016504839,16.5362074497562
-0.0351716552818226,16.5374305041026
-0.0321164413620019,16.538615687128
-0.0292846704019168,16.5397627487939
-0.0266726276728737,16.5408713040245
-0.0242740277982876,16.5419409249006
-0.0220806144679308,16.5429711823397
-0.0200826763038619,16.5439616573657
-0.0182695033772268,16.5449119328551
-0.0166297917193606,16.5458215717184
-0.0150560361506768,16.5467483053085
-0.0135428195991015,16.5476989549466
-0.0120942472938444,16.5486753851833
-0.010714171799238,16.549679826012
-0.00940622324939817,16.5507149037652
-0.00817375669523998,16.5517837410524
-0.00701979717225168,16.5528900890484
-0.00594698170341653,16.5540385070083
-0.00495749762726264,16.5552346119088
-0.00405301591113781,16.5564854357691
-0.00323461680765421,16.5577999549972
-0.00250270280141806,16.5591899080605
-0.00185688896820827,16.5606711259208
-0.00129585030568961,16.5622658460259
-0.000840432692449123,16.563910481926
-0.000477770905702495,16.565609115691
-0.00019217008163349,16.5673803521757
3.09227026673584e-05,16.5692478523141
0.000205433964214593,16.5712438933113
0.000345234341091853,16.5734155977857
0.000465114849187453,16.5758386048642
0.000583037608537884,16.5786538158474
0.000728280987595388,16.5822116578358
0.000896663128379233,16.5859962165547
0.00110714080647451,16.5902051578793
0.00135719078104202,16.5947591703016
0.00159900432344822,16.5989342902131
0.0018364827943247,16.6029449244551
0.00207234659410075,16.6069033814771
0.00230899392629648,16.6108764071559
0.00254902397921711,16.6149115566322
0.00279532386677435,16.6190474739227
0.00305105875286052,16.6233187501524
0.00331965467183027,16.6277584165066
0.00360486928154064,16.6324000676643
0.0039109563101008,16.6372794250555
0.00424298722306871,16.6424355525877
0.0045972876909888,16.6477605244948
0.00495772887374294,16.6529681453721
0.00533178005853654,16.6581321372418
0.00571983015641975,16.6632131735608
0.0061260138890159,16.6682201554368
0.00655436538892484,16.6731549809078
0.00700973678442514,16.6780242913294
0.00749730875819821,16.6828324518204
0.00802273825367944,16.6875824410399
0.00859219327177021,16.6922753591879
0.00921248620598716,16.6969109606021
0.00989124367056849,16.7014884234575
0.0106404614366116,16.7060265846312
0.0114879598202005,16.7106121248055
0.0124537585716512,16.715251740811
0.0135711803966774,16.7199916174837
0.0148977841052293,16.7249356703297
0.0165691968537322,16.7303825501447
0.0188274911448772,16.7368225068398
0.0202630294606848,16.7405985930406
0.0217273996470795,16.7443746792414
0.0230003210461214,16.7477534673842
0.0240691795048662,16.7508470367485
0.0249450781649567,16.7538217037245
0.0255959765862537,16.7567227487274
0.0259872091568623,16.7595381016222
0.0261078705006074,16.7623916600909
0.0259101525593361,16.7654682443703
0.0252095754827484,16.7692794295823
0.0240964824833911,16.7730171188524
0.0229404995598394,16.7760745365307
0.0218481992868479,16.7786377605367
0.0207770264849617,16.7809931035014
0.0197156474156844,16.7832451179525
0.0186641484063138,16.7854406306808
0.0176251442843633,16.7876069214787
0.0166017408827464,16.7897624654121
0.0155970077839111,16.791920982563
0.0146138159117565,16.7940933650764
0.0136547823215705,16.7962887414924
0.012722256277207,16.7985151184682
0.011818318877665,16.8007798040246
0.0109447872391798,16.8030897096783
0.0101032249995129,16.8054515699277
0.00929494761541717,16.8078721361051
0.00852103250505432,16.8103583373621
0.00778233315814369,16.812917419276
0.00707948460039627,16.8155571116982
0.00640561242551142,16.8183170747461
0.00575064536457271,16.8212646450622
0.00511801529486488,16.8244215819855
0.00451106355841031,16.8278137960492
0.00393318110991402,16.8314712588077
0.00338774734861497,16.8354287681928
0.00287803212751735,16.8397270350837
0.00240705994992003,16.8444143227355
0.00197742096825343,16.8495493238957
0.00159103951976386,16.8552065163617
0.00124902769745509,16.8614844767819
0.000951743242393326,16.8685162485009
0.000702353245356622,16.8763575210822
0.000529107670458137,16.8844119934706
0.000424881429636306,16.8915917522525
0.000328759438102288,16.9008518659429
0.000262529209876976,16.9102430676736
0.000216165448090581,16.9202430676736
0.000187612104690097,16.9302430676736
0.000171476064263691,16.9402430676736
0.000163895471277509,16.9502430676736
0.000162224142306709,16.9602430676736
0.000164751682549654,16.9702430676736
0.000170432396707216,16.9802430676736
0.000178667030087377,16.9902430676736
0.000189154928298643,17.0002430676736
0.000201806106438266,17.0102430676736
0.000216694518720237,17.0202430676736
0.000234037977959689,17.0302430676736
0.000254197168871286,17.0402430676736
0.00027769179965487,17.0502430676736
0.000305235967598439,17.0602430676736
0.00033779863710975,17.0702430676736
0.000376700425032138,17.0802430676736
0.000423766770193602,17.0902430676736
0.000477910857139535,17.0996563989679
0.000539228825351967,17.1083734226441
0.00060858277233798,17.1164395225361
0.000687028633396859,17.1239027204223
0.000775781968458857,17.1308079899092
0.000876222254733943,17.1371972926777
0.000989910745631512,17.1431098032697
0.0011186139675299,17.1485821015911
0.00126433195704947,17.1536483234581
0.0014293274400875,17.1583403163413
0.00161616284890867,17.1626877985359
0.00182774008663483,17.1667185148922
0.00206735079462748,17.1704583688737
0.00233873267413027,17.1739315532206
0.00264614145549099,17.177160694208
0.00299443999652415,17.1801669998131
0.0033892090211181,17.182970402861
0.0038368938295892,17.1855897249991
0.00434499940325075,17.1880428680972
0.00492235830637948,17.1903470356897
0.00557951598114713,17.1925190224691
0.00631779651595189,17.1945467626876
0.00713100528579807,17.1964151926976
0.0080287692510233,17.1981547805502
0.00902527310507255,17.1997955208218
0.0101420559613816,17.2013687217029
0.0114157588201973,17.2029131389828
0.0129770486396539,17.2045462706175
0.0151318018431582,17.2064812452825
0.0169306605308992,17.207911720108
0.0188704029025198,17.2093421949336
0.0206488226880328,17.2106057318254
0.0222183752977769,17.211726074793
0.0236301612071027,17.2127802327093
0.0248945400635485,17.2138137501793
0.025999042841799,17.2148633883664
0.0269128373648701,17.2159725922685
0.0275754097390345,17.2172152096696
0.0278320827321874,17.218797559007
0.0274277888651432,17.220463481374
0.026447617358089,17.2221294037409
0.0252978745038953,17.2235212320274
0.0239898990908574,17.2248683088442
0.0225219162507562,17.2262523864313
0.0209020578618645,17.2277155121793
0.0191354522307074,17.2292975774618
0.0176963041681217,17.2306162079767
0.0163369420904715,17.2319348384917
0.013942700805878,17.2344885666529
0.0118743771455913,17.2370108204636
0.0100542234808932,17.239571216364
0.00848234628375972,17.2421431925782
0.00718623364837104,17.2446173178027
0.00606059852873469,17.2471298805361
0.0052084867361164,17.2493436972371
0.00457444575763617,17.2512267529537
0.00404405685809059,17.25300438531
0.00356805493050132,17.2548018006481
0.0031155529265693,17.2567395940763
0.00265118488904087,17.2590365407632
0.00212622850895794,17.262167349705
0.00167929189931675,17.2655227213474
0.00134933073494791,17.2686739417932
0.00108105464298422,17.2719699123459
0.000851287511401654,17.2757994325031
0.00067365209496018,17.2803532889228
0.000581171182826097,17.2854509902348
0.000590159064186374,17.2900966060931
0.00068079099241092,17.2943173354388
0.000842909404527478,17.2981476707982
0.00107216752548328,17.3016304188709
0.00136797176988771,17.3048105139897
0.00173267629929109,17.3077341320232
0.00217200396880364,17.3104505646732
0.00269571385258629,17.313010133322
0.00331960923638994,17.3154667634039
0.00406935288176775,17.3178820472857
0.00498608869002595,17.3203279104892
0.00612531628863854,17.322868803702
0.00750473805706006,17.3254624894319
0.00902110972984625,17.3278919634538
0.0105587616544752,17.330015820033
0.0121119742887086,17.3318802071045
0.013739301415852,17.3335814085535
0.0154748420615765,17.3351588792987
0.017378672006841,17.3366587330447
0.0194729052616139,17.3380838225352
0.0218058797654081,17.3394515157547
0.0244092111064798,17.340763638953
0.027326484317868,17.3420262497036
0.0306027751424569,17.3432430931314
0.0342815356504592,17.3444154557218
0.0384227904984836,17.3455481491406
0.0430897390286937,17.3466441415274
0.0483531883678371,17.3477060546948
0.054302971779031,17.348737974273
0.061043243910567,17.3497435730776
0.068699476294986,17.3507267659051
0.0774248249760777,17.3516918001141
0.0874106833368977,17.3526435416383
0.0989023010091536,17.353587796941
0.112218952903221,17.3545314833921
0.127792347320963,17.3554834454107
0.146234121029434,17.3564557666909
0.167985745768056,17.3574459374177
0.193223211379944,17.3584421500889
0.222643539247046,17.3594562153687
0.25720701949614,17.3605055377565
0.298424957244359,17.3616209438913
0.334121515407099,17.3625093397607
0.371535299530952,17.3633977356301
0.40469932113791,17.3641767515725
0.433638636947881,17.3648768671477
0.458925134702277,17.3655348110263
0.480618682198806,17.3661759332275
0.498373271672071,17.3668220641168
0.511376276377766,17.3674978201108
0.517980911855181,17.3682398670556
0.515120069146167,17.3690503619953
0.50088685753497,17.369880425021
0.473943941908591,17.3707457543882
0.432577753830823,17.3716577119752
0.37490205323005,17.3726250260437
0.331473960843997,17.373240693523
0.283722709434616,17.3738563610023
0.241076379746094,17.3743755233278
0.204327865242163,17.3748131557819
0.171928612582007,17.3752003942477
0.14284569518018,17.375556176328
0.116444793581755,17.375892341972
0.0922836699776653,17.376217578959
0.0699967230883031,17.3765397092163
0.0491969614154213,17.3768680201661
0.0292689264163348,17.3772188647364
0.0081658938821835,17.3776488272273
-0.00165294490897937,17.3778789728086
-0.0104874267535067,17.3781091183898
-0.0169791443167769,17.3782962621494
-0.0229342145698457,17.3784851141349
-0.0288982859616099,17.3786952499255
-0.0346353163923961,17.3789232335915
-0.0399952871366086,17.379167002444
-0.0448954976530272,17.3794258698269
-0.049293411140949,17.3797000639983
-0.053168005165266,17.3799904732802
-0.05670460460928,17.3803193809712
-0.059453161670554,17.3806457167768
-0.0616874667168398,17.380993694992
-0.0634238832479817,17.3813666538821
-0.0646766293141811,17.3817683378047
-0.0654590396093186,17.3822033722204
-0.0657820597879697,17.3826775338501
-0.0656525372857552,17.3831981516703
-0.065070681846907,17.3837749909523
-0.0640244860906456,17.38442217708
-0.0624859543077188,17.3851584286565
-0.0603986852811316,17.3860123949277
-0.0576443735730728,17.3870345575373
-0.0539084562171329,17.3883447691325
-0.0498561399239356,17.3897334662976
-0.0459455378442088,17.3910770126527
-0.0422215466130904,17.3923796607266
-0.0387059267563642,17.3936435700538
-0.0354096175193553,17.394869530979
-0.0323370358215363,17.3960576399989
-0.0294880786306286,17.3972076602112
-0.026859252818771,17.3983192107594
-0.0244444452044554,17.3993918637006
-0.0222355300457753,17.4004251884297
-0.0202228895511179,17.4014187646654
-0.0183958743956361,17.4023721753493
-0.0167432119685806,17.4032849856783
-0.0151652333187244,17.404209935018
-0.0136474159075377,17.4051587095208
-0.0121939513767853,17.406133109433
-0.0108087067211567,17.4071353383467
-0.00949533099936499,17.408167989341
-0.00825720232578126,17.4092341432308
-0.00709737318734087,17.4103374979419
-0.00601851271130354,17.4114825437772
-0.00502284534873914,17.4126748066647
-0.00411208469841296,17.4139211955052
-0.00328735996408493,17.4152305152871
-0.00254913025576252,17.4166142569276
-0.0018970774036853,17.418087876808
-0.00132995806322764,17.4196730095628
-0.000866903795892802,17.421314317362
-0.000497947155888496,17.4230081473778
-0.000207225808784883,17.42477300962
1.98752702046572e-05,17.426632052912
0.000197308663587318,17.428616720859
0.000338915073336475,17.4307726435531
0.000459349095213173,17.4331724273816
0.000576156187841147,17.4359493536192
0.000716952574916841,17.439424344731
0.000882488913976247,17.443195132359
0.00108782594524667,17.4473544543253
0.00133966887558148,17.4519821818783
0.00158185788077636,17.4561860693903
0.00181901879426884,17.4602057872257
0.00205414534797836,17.4641630111673
0.00228970857375594,17.468127975195
0.00252832096606739,17.4721497977553
0.00277285603787234,17.4762678131541
0.00302645575558027,17.4805169344544
0.00329250833070467,17.4849301965615
0.00357471624145434,17.4895409921795
0.00387724711513162,17.4943846615741
0.00420503162069806,17.4994997323543
0.00455870168553686,17.5048449060777
0.00491705749889646,17.5100536734516
0.0052893562123127,17.5152285218211
0.00567515237021357,17.5203184828132
0.00607869615419873,17.5253348556701
0.00650385542138649,17.5302780335242
0.0069554560842733,17.5351550853142
0.00743861706939061,17.5399704527649
0.00795894131436022,17.5447273848743
0.00852252733795156,17.5494271861892
0.00913610181154445,17.5540697519965
0.00980717979395121,17.5586542712862
0.0105454205632979,17.5631869117204
0.0113800296610645,17.5677676332096
0.0123297460502057,17.5723986986112
0.013426189327838,17.5771225660546
0.0147224604103889,17.5820321198362
0.0163377394710092,17.5873848996562
0.0185944676008579,17.59390781133
0.0200499188897524,17.5977621257064
0.021544325597917,17.6016164400828
0.0228473804068098,17.6050515417811
0.0239415961901742,17.6081717697895
0.0248429453163961,17.6111542202829
0.0255275054438113,17.6140749706875
0.0259522032066913,17.61689508439
0.0261091209486699,17.6197355411278
0.0259574049417992,17.6227677916803
0.0253473615845462,17.6264158143101
0.0242547624555394,17.6302709485108
0.0230782270993413,17.633452260098
0.021979921639324,17.636057696463
0.0209071078283131,17.6384309487836
0.0198446169500186,17.6406924193123
0.0187917910969652,17.6428930830048
0.0177510990411773,17.645061796685
0.0167256273896703,17.6472178231166
0.015718462386999,17.6493753317852
0.0147325032879778,17.6515454897323
0.0137703990872183,17.6537375994676
0.012834531999855,17.6559597771356
0.011927015212863,17.6582193978907
0.0110496975415549,17.6605234075454
0.0102041733654626,17.6628785497368
0.00939178712034652,17.6652915656954
0.00861364515290745,17.6677693520104
0.00787062720744354,17.6703191076951
0.0071633943191022,17.6729484935823
0.00648743058388454,17.6756868421546
0.00582994635407371,17.6786103883065
0.00519439641899687,17.6817403745149
0.00458411180163974,17.6851022649719
0.00400248073177646,17.6887254949386
0.00345288868327836,17.6926442212482
0.0029386251965868,17.6968983609241
0.00246275460622214,17.7015351275522
0.00202793149428025,17.7066117240527
0.00163617298676067,17.7122003141818
0.00128869336219347,17.7183959864648
0.000985932006026216,17.725327013635
0.000730196769005396,17.7330798706088
0.000537454738846889,17.7416321151604
0.000432878426035448,17.7486610448972
0.000336888255003433,17.7576523370244
0.000269036363074615,17.7669034428221
0.000220440340171403,17.7769034428221
0.00019032251431995,17.7869034428221
0.000173114264778657,17.7969034428221
0.000164815567818444,17.8069034428221
0.000162666182757573,17.8169034428221
0.000164870157603128,17.8269034428221
0.000170323567744578,17.8369034428221
0.000178389621538828,17.8469034428221
0.000188743456745702,17.8569034428221
0.000201278697465642,17.8669034428221
0.000216057305738805,17.8769034428221
0.000233287471547746,17.8869034428221
0.000253321275952481,17.8969034428221
0.000276669721793331,17.9069034428221
0.000304036945339431,17.9169034428221
0.000336379291035177,17.9269034428221
0.000375000151879526,17.9369034428221
0.000421700159514417,17.9469034428221
0.000475584032833169,17.9563485637184
0.000536619544668253,17.9650961001837
0.000605656437440765,17.9731903467343
0.00068374401299527,17.980679467412
0.000772091867903688,17.98760860745
0.000872073226747793,17.9940198848274
0.000985242382162339,17.999952616422
0.00111335797131061,18.0054435132432
0.00125841108514998,18.0105268326395
0.00142265438083168,18.0152345340815
0.00160863880137493,18.0195964387906
0.0018192531949423,18.0236403864567
0.00205777434281195,18.0273923686879
0.00232792275080126,18.0308766592728
0.00263393430929023,18.0341159582464
0.00298064849585089,18.037131540743
0.00337361832337931,18.0399434000889
0.00381925565535973,18.0425704110194
0.00432502419906477,18.0450305205594
0.00489970450852453,18.0473409683014
0.00555377435176032,18.0495185732358
0.0062895012673898,18.0515536867987
0.00709989456722543,18.0534283339549
0.00799445387817846,18.0551730273161
0.00898719680005312,18.0568178180549
0.0100993504621778,18.0583939459263
0.01136687083587,18.0599398242152
0.0129156600655676,18.0615692728836
0.0150400315554326,18.0634886658977
0.0168395616110738,18.0649274655306
0.0187833706440793,18.0663662651635
0.0205711197766297,18.0676389159473
0.0221464357262662,18.0687637973993
0.0235628900308466,18.0698201555938
0.024832098483798,18.0708543503432
0.0259422994633991,18.0719031910693
0.0268634722288081,18.0730095637919
0.0275368171871859,18.0742452702207
0.0278151359089433,18.0758054978472
0.0274343206563331,18.0774855833665
0.0264632457005134,18.0791656688858
0.0253187994679316,18.0805620113472
0.024016616476768,18.0819092297797
0.0225543917464439,18.0832916862561
0.0209402299800694,18.0847518581791
0.0191794855700928,18.0863294267149
0.0177920620390472,18.0875976515423
0.0164777135006722,18.0888658763698
0.0140653777586104,18.0914209825445
0.0119803699056279,18.0939445841806
0.0101450575484396,18.0965060444264
0.00855547197188143,18.0990863871236
0.00724948605629912,18.1015595166952
0.0061156829592278,18.1040693407274
0.00525555286289917,18.1062850181665
0.00461560064178507,18.1081694507025
0.0040803668748114,18.1099480028063
0.00360007719920075,18.1117460477816
0.00314355701803116,18.1136841537306
0.00267515820537615,18.1159807664077
0.00214665351071486,18.1191038322133
0.00169646094479423,18.1224497683566
0.00136347707791526,18.1255948793616
0.00109232055698954,18.1288859872098
0.000859591246308903,18.1327115018798
0.000679334197597037,18.1372485991885
0.000583820014233028,18.142324469293
0.000589847125386071,18.1469815685353
0.000678074034467982,18.1512097276839
0.000838089015460455,18.1550471580666
0.00106539504369664,18.1585362862098
0.00135930429093757,18.1617220497201
0.00172211894360435,18.1646507834951
0.00215948558979526,18.1673716779241
0.00268112397588411,18.1699352616668
0.00330279090931681,18.1723956199054
0.00405015734653368,18.1748147231576
0.00496445500026071,18.1772650398227
0.00610170960142529,18.1798123117804
0.00748076969196481,18.1824156663818
0.00899598953967987,18.1848525461819
0.0105308054104371,18.1869804954258
0.0120798830873898,18.1888470273454
0.0137027278587264,18.1905500963934
0.0154331809624806,18.1921290305398
0.0173315790532579,18.1936303705833
0.0194195888402681,18.195056656988
0.0217460211740207,18.1964256770413
0.0243417022126932,18.1977388411502
0.0272509353182231,18.1990026371765
0.0305181366163024,18.2002205453565
0.0341868514203929,18.2013939370454
0.038316769579605,18.2025275752911
0.0429708604424562,18.2036244276816
0.0482195327219721,18.2046870904146
0.054152512857908,18.2057196989492
0.0608734042362682,18.2067258980655
0.0685071160436115,18.2077095966938
0.0772058040405366,18.2086750052942
0.0871603648078862,18.2096270320641
0.0986144467148714,18.2105714370871
0.111885320349281,18.2115151060196
0.127401642130849,18.21246683278
0.14576995897271,18.2134386093034
0.16744915375621,18.2144288160907
0.192600636481841,18.2154248532146
0.221917092788965,18.2164384489708
0.2563512493429,18.217486843268
0.297396138445651,18.2186004045546
0.333207406492754,18.2194932961646
0.370776908886377,18.2203861877747
0.404038290306658,18.2211675299124
0.433051144311757,18.2218688982206
0.458405131948265,18.2225274925641
0.480169151616862,18.2231688122765
0.498005068345499,18.2238146929276
0.511111712273277,18.2244896222488
0.51786671230986,18.2252298541068
0.515216476807997,18.2260401954587
0.501216501666284,18.2268697518988
0.474538333411383,18.2277342893495
0.433474590792525,18.228645250574
0.376141601466589,18.2296113513639
0.332609061757517,18.23023053177
0.28467752081879,18.230849712176
0.24187887250203,18.2313712125058
0.2050271620618,18.231810198574
0.172553136616367,18.2321982629205
0.143411396412814,18.2325545693647
0.116961951066174,18.2328910565436
0.0927600592159773,18.2332164511469
0.0704395329417709,18.2335385723716
0.0496152268371519,18.2338666420765
0.0296811685657671,18.2342167379787
0.00866755747365555,18.2346433113157
-0.00143306669882725,18.2348792159118
-0.0087181678843215,18.2350666584166
-0.0153755249349922,18.2352541009215
-0.0212608944931263,18.2354358961464
-0.0272470961004362,18.2356404208424
-0.0330659375888766,18.2358637215618
-0.0385413084398647,18.2361032208429
-0.043575024400777,18.2363579032057
-0.0481153539253865,18.2366277751399
-0.0521380559845725,18.2369135576065
-0.0558851250889878,18.2372420564339
-0.0587717387916789,18.2375631026063
-0.0611399774584721,18.2379050174144
-0.0630066287357506,18.2382710463036
-0.0643858876229495,18.2386647334271
-0.0652914618003059,18.2390904483504
-0.0657350826553691,18.2395536307386
-0.0657248683023831,18.2400611492237
-0.0652632935172457,18.2406218559002
-0.0643418749848007,18.2412488912544
-0.0629376035646012,18.2419593194405
-0.0610035377022283,18.2427784722458
-0.0584436653191609,18.2437489567756
-0.0550252641255143,18.2449617097732
-0.0509453073388788,18.2463648657542
-0.0469900213919989,18.2477202552036
-0.0432124570956804,18.2490337525065
-0.0396386903637205,18.2503080929238
-0.0362820225099733,18.2515443571507
-0.0331483909740491,18.2527427857832
-0.0302387883700497,18.2539032091258
-0.0275505581079257,18.2550252733067
-0.0250782349140213,18.2561085573021
-0.0228141860865746,18.2571526290286
-0.020749151707293,18.2581570654941
-0.0188727203343014,18.2591214504007
-0.0171737511637229,18.2600453565413
-0.0155805621339945,18.2609640703859
-0.0140461571137065,18.2619062992151
-0.0125750390558522,18.2628736170979
-0.0111711232040418,18.263868137666
-0.00983812246027048,18.2648923407265
-0.00857949297015639,18.2659491649703
-0.00739838023187876,18.2670421276495
-0.0062975622164256,18.2681754857678
-0.00527938910638571,18.269354458258
-0.00434571861321435,18.2705855406761
-0.00349784476987452,18.2718769655756
-0.0027364161772781,18.2732394027892
-0.00206133593854753,18.2746870771015
-0.00147162756941263,18.2762396642074
-0.000979994384875667,18.2778700466063
-0.000587237911983072,18.279547878118
-0.000276841590543955,18.2812914751268
-3.39427085081089e-05,18.2831223237321
0.000155545025672618,18.2850692007156
0.000305423034051157,18.2871730394168
0.000429993066317877,18.2894971446575
0.000545668930769181,18.2921524540985
0.000675815105599822,18.2953816084794
0.000835106440623955,18.2991216464656
0.00102681141860261,18.303134459981
0.00127586578388073,18.3078152107812
0.00151954249697029,18.3120927631586
0.0017574726097796,18.316143211188
0.00199284283619173,18.3201084958395
0.00222809158815036,18.3240671602839
0.00246574429385589,18.3280720437148
0.002708585566725,18.3321641747975
0.00295968680915163,18.3363793020667
0.00322236583511504,18.3407506741397
0.00350023682262691,18.3453114587794
0.00379733124006918,18.3500964076353
0.00411835274323551,18.3551431833855
0.0044691569433559,18.3604936545891
0.00482471112891409,18.3657168324092
0.00519373436027357,18.3709097513218
0.00557555869721041,18.3760191862136
0.00597420775274878,18.3810547642955
0.00639335679289084,18.3860156526212
0.00683772356164588,18.3909090782088
0.00731231310967374,18.3957397588635
0.00782261075574489,18.4005114132405
0.00837457306317811,18.4052257693252
0.0089747519568599,18.4098830260111
0.00963043964418405,18.4144824446179
0.0103499045289966,18.4190235239282
0.0111584569761377,18.4235918445481
0.0120765335535521,18.428207362827
0.0131319795780205,18.4329019136062
0.0143703675547811,18.4377501291436
0.0158852191160741,18.4429454578859
0.0179956461208307,18.4492469003914
0.0195346871771063,18.4534062249428
0.0211410334310538,18.4575655494942
0.0225163083845488,18.4611500203333
0.023664785681957,18.4643366718244
0.0246184957419776,18.4673424194632
0.0253725786977687,18.4703090966059
0.0258657777718609,18.4731454239984
0.026095311178986,18.4759671514591
0.0260320919519041,18.4789256692777
0.0255738022344472,18.4823285593477
0.0245052076167943,18.4864914177767
0.0235717977408437,18.4891747087988
0.0224935016167419,18.491857999821
0.0214166763512225,18.4943081656851
0.0203500466195945,18.4966136173947
0.0192924022462589,18.498838776932
0.0182455486234317,18.5010199069305
0.0172124219078412,18.5031799924956
0.0161961464344393,18.5053352766501
0.0151997232014537,18.5074981750865
0.0142259240364917,18.509678775047
0.01327725950501,18.5118856916189
0.0123559702987143,18.514126609685
0.0114640304245318,18.5164086477861
0.0106031550911264,18.5187386198831
0.00977480556949687,18.5211232512743
0.00898020156674878,18.523569343662
0.00822032922622607,18.5260839361745
0.00749595233448285,18.528674453266
0.00680762241759137,18.5313488616363
0.0061408924028397,18.5341816753613
0.00549447428534173,18.537210273735
0.0048717222590914,18.5404581826699
0.00427600361765603,18.5439528601493
0.00371071514176442,18.547726100125
0.00317920565997989,18.5518149201863
0.00268466579118544,18.5562628139038
0.00222996873586614,18.5611218121864
0.00181747057110313,18.5664560665804
0.00144877542996852,18.5723485973728
0.00112467361144943,18.5789105180432
0.000845281200115469,18.5862917026259
0.000620964136899704,18.5944427938545
0.00050054604680124,18.6009891762564
0.000387566051867603,18.6095750342561
0.000304661339203933,18.6186577445546
0.000243271468546385,18.6286577445546
0.000204296738068346,18.6386577445546
0.000180971748702698,18.6486577445546
0.000168473171141299,18.6586577445546
0.000163414836228778,18.6686577445547
0.000163537829494065,18.6786577445547
0.000167415545421709,18.6886577445547
0.00017419441049501,18.6986577445547
0.000183402697490375,18.7086577445547
0.000194828623317508,18.7186577445547
0.000208450827832623,18.7286577445547
0.000224403359468137,18.7386577445547
0.000242963639622209,18.7486577445547
0.00026455845416989,18.7586577445547
0.000289787822523171,18.7686577445547
0.00031947037437624,18.7786577445547
0.000354718164439547,18.7886577445547
0.000397055471142941,18.7986577445547
0.000447550645134975,18.8084671492616
0.000504869358683738,18.8175665154049
0.000569720066155554,18.8259872171488
0.000643064706304152,18.8337786197537
0.000726032000193745,18.84098748508
0.000819910014136887,18.8476574357233
0.000926157898203178,18.8538291805312
0.00104642658847686,18.8595407290418
0.00118258459020707,18.864827564431
0.0013367469017424,18.8697227918359
0.00151130687561397,18.8742572973083
0.00170897509047914,18.8784599077878
0.00193282353332681,18.8823575380342
0.00218633756262087,18.8859753169861
0.00247348016208446,18.8893367252568
0.00279876940298262,18.8924637438777
0.00316737801413509,18.895376998465
0.00358525821026055,18.8980959096049
0.00405930742749774,18.9006388696968
0.00459759403149747,18.9030234458441
0.00520967102662175,18.9052666270098
0.00590703557265708,18.907385159151
0.00667852407179964,18.9093375333189
0.0075288097426233,18.9111443527312
0.00846948686484869,18.9128360490927
0.0095175457142087,18.9144427607284
0.0106999975570934,18.9159981442902
0.0120832214096889,18.9175666553387
0.0138511441674828,18.91929435341
0.0165717692192663,18.9215642796465
0.0182773632513814,18.9228424489042
0.0200616674579208,18.9241206181619
0.02168886535214,18.9252761898493
0.0231510235436327,18.9263472713811
0.0244657307657134,18.9273841060461
0.0256268842135265,18.9284243984986
0.0266103420924543,18.9295075514627
0.0273685387467423,18.9306924825933
0.0277963159613696,18.9321128928913
0.027437610802061,18.934347755603
0.026647766879068,18.9357591779727
0.0255359840807642,18.9371706003424
0.0242626494429072,18.9385165772556
0.0228273205761412,18.9398893792711
0.0212384667773886,18.9413334162424
0.0195025134770053,18.9428875221978
0.0183120726874682,18.9439629878653
0.0171673425074329,18.9450384535329
0.0146572588133097,18.9476103661206
0.0124909294310721,18.9501416476096
0.0105966937129407,18.9526881358936
0.00891929171579192,18.9553084923612
0.00755771822223793,18.9577904633262
0.00638437708737772,18.9602880777945
0.00543757359627872,18.962640732715
0.00475967346042382,18.9645774322931
0.00420499745985178,18.9663690240492
0.00371379282816873,18.9681561721231
0.00325293715763621,18.9700538656072
0.00278977914620721,18.9722449774611
0.00224755920390296,18.9753178994057
0.00178227405447253,18.9786195818385
0.00143265142778797,18.9817608124306
0.00115204434036192,18.9849815468066
0.000911451791160386,18.9886638371851
0.000715981061044504,18.9931033747089
0.000601991473303226,18.9980581768854
0.000588450931662814,19.0028323529476
0.000660803129015888,19.0071442978588
0.000806688259581772,19.0110602361292
0.00102056325026845,19.0146192819043
0.00130097105497621,19.0178651617665
0.0016496212046354,19.0208443982253
0.00207139276556322,19.0236054309228
0.00257505742843886,19.0261984797544
0.00317468521504234,19.0286757815065
0.003893427242648,19.0310974614093
0.00476818505454984,19.0335324325835
0.00585255198214854,19.0360510777354
0.00718192550619745,19.0386489629756
0.00867270263763634,19.0411255729052
0.0102069647665398,19.0433181435124
0.0117495102962733,19.0452313726628
0.0133561745488343,19.0469666604867
0.0150605815455286,19.0485679356716
0.0169253182011284,19.0500873692529
0.0189703343581456,19.0515275446381
0.0212469233949284,19.0529094543932
0.0237825760150467,19.0542331865492
0.026624664595966,19.0555075549154
0.0298127185599189,19.0567343802389
0.0333938620462795,19.0579168558035
0.0374241044182095,19.0590588977786
0.0419632332003759,19.0601631455186
0.0470816093564675,19.061232722377
0.0528652448752645,19.0622715421527
0.0594137969179726,19.063283169993
0.066847121658467,19.0642714298986
0.0753102728740819,19.0652403776409
0.0849871046138312,19.0661949885722
0.0961084542702691,19.0671407512806
0.10897409404609,19.0680842689102
0.123986072610888,19.0690338850935
0.141706137793667,19.0700007488175
0.162744119731468,19.0709912422621
0.187135211343058,19.0719856626205
0.215534261616071,19.0729950083764
0.248829502523726,19.0740351200608
0.288363821625886,19.075132614104
0.333708125625651,19.0762737318993
0.373085780475078,19.0772095946339
0.406128130975953,19.0779873179661
0.434839103880805,19.0786849455155
0.459907700040783,19.0793418536642
0.481374677697829,19.0799831509141
0.498871309123053,19.0806306465083
0.511552565600238,19.0813092861632
0.517704216677079,19.0820567905589
0.514234144576543,19.0828682380934
0.499335825199669,19.0837001122912
0.471649559946974,19.0845678766354
0.429449937060893,19.0854826375341
0.370849449120555,19.0864532116632
0.327795860772084,19.0870584264898
0.280643436419883,19.0876636413164
0.238498389250342,19.0881758747454
0.202093181977694,19.0886095347732
0.169945098400771,19.0889943903877
0.141060786791349,19.0893487000262
0.114824244690243,19.0896840066677
0.0908015622083007,19.0900088818397
0.0686294092234427,19.0903311587196
0.0479154319367414,19.0906603321459
0.0280145483438927,19.0910136333474
0.00662164631504455,19.0914548734848
-0.00244559437413012,19.0916701199571
-0.0106557859482566,19.0918853664295
-0.0170975326028993,19.0920715603093
-0.0230536905319964,19.0922609347048
-0.0290137081604728,19.0924715364062
-0.0347427096920388,19.0926999306855
-0.0400924508468707,19.0929440880431
-0.0449813061660459,19.0932033441208
-0.0493673801918366,19.0934779426909
-0.0532296466292005,19.0937687841913
-0.0567332180648089,19.0940960911016
-0.0594731517486036,19.0944227812646
-0.0616993902895981,19.0947711847834
-0.0634280377442952,19.095144621675
-0.0646733009730931,19.0955468473622
-0.065448484548937,19.0959825017422
-0.0657644823213442,19.0964573804422
-0.0656280646892772,19.0969788381084
-0.0650392988772908,19.0975566983852
-0.0639859922795052,19.0982051298139
-0.0624398710861896,19.098942949124
-0.0603440072675039,19.0997989948136
-0.0575788103247009,19.1008242129957
-0.0538245510105144,19.1021403091597
-0.0497749284975385,19.10352810579
-0.0458680669126806,19.1048708402819
-0.0421483302440997,19.1061727133512
-0.0386372299609252,19.107435857319
-0.0353455611114906,19.1086610493225
-0.0322776422744745,19.1098483799483
-0.0294332965180402,19.1109976101528
-0.0268089726851695,19.1121083588241
-0.0243985121176831,19.1131801986016
-0.022193754306542,19.1142126996803
-0.0201850564460281,19.1152054424041
-0.0183617529256485,19.1161580098957
-0.0167125626750967,19.1170699668863
-0.0151356943198897,19.1179953992452
-0.0136190884523141,19.1189446810671
-0.0121669133045276,19.1199196299836
-0.0107830319804686,19.1209224567022
-0.0094710884146451,19.1219557632556
-0.00823445445635158,19.1230226417021
-0.00707617511350684,19.1241268042806
-0.00599891075186096,19.1252727598147
-0.00500487567283258,19.1264660586692
-0.00409577178818035,19.1277136427608
-0.00327271484900653,19.129024363001
-0.00253614836339416,19.1304097765458
-0.00188573571296166,19.1318854398536
-0.00132021092183777,19.133473148288
-0.000859175287536234,19.1351153470959
-0.000491872225528133,19.1368104651032
-0.000202484615745,19.1385770362757
2.35864052614346e-05,19.1404383460141
0.000200287181519962,19.1424260596692
0.000341467598365911,19.1445862031999
0.000461820539855095,19.1469921837192
0.000579005167477562,19.1497792781133
0.00072107655392431,19.1532759900425
0.000887491284116331,19.1570502674803
0.00109433664264115,19.1612225969464
0.00134471506580873,19.1658098323357
0.00158649670995847,19.1699985942905
0.00182377073691762,19.1740139302761
0.00205930945990631,19.1779723624588
0.00229549878290593,19.181942228177
0.0025349158214654,19.1859718078769
0.00278042434143433,19.190100065143
0.00303516950556037,19.1943617470151
0.00330255481999322,19.1987898935511
0.00358630912275418,19.203418014188
0.00389064275840376,19.2082816638409
0.00422055679831677,19.2134196714521
0.00457440022867068,19.2187553471579
0.00493366470972705,19.2239646991969
0.00530665164983765,19.2291348731251
0.00569335821467945,19.2342210856837
0.00609797237861498,19.2392334012035
0.00652444591370343,19.2441730251384
0.00697761281578763,19.2490468176275
0.00746261719801819,19.253859194406
0.00798508147921623,19.2586132731499
0.00855113039084485,19.2633102594635
0.00916752384514886,19.2679499789014
0.00984182127529109,19.2725316080821
0.0105846410296984,19.2770665565309
0.0114246186601675,19.2816492733875
0.0123810180822085,19.2862838513798
0.0134861491941617,19.2910142507194
0.0147949046797613,19.2959377872962
0.0164329388652618,19.3013281792035
0.0186904282530425,19.3078164570622
0.020137155617508,19.3116366588643
0.0216186344960895,19.3154568606663
0.0229093281888588,19.3188684142592
0.0239932863602019,19.3219775259989
0.0248844068445248,19.3249565791543
0.0255554102589032,19.3278691453448
0.0259666724624184,19.3306871028204
0.0261090982056858,19.3335325059568
0.0259391562107399,19.3365818484144
0.0252944093165785,19.3402910500506
0.0241942306423489,19.3440968754561
0.0230264653835872,19.3472274234179
0.0219306420952306,19.3498162277395
0.0208584707923141,19.3521826121907
0.0197963940461884,19.354440488639
0.0187440570465449,19.3566391987607
0.0177039869084712,19.3588069927552
0.0166792783092451,19.3609628331419
0.0156730115277993,19.3631207189989
0.014688075323554,19.3652917135563
0.0137271067779357,19.3674850539629
0.0127924757795683,19.3697088155683
0.011886283535401,19.3719703488065
0.0110103669748758,19.37427658744
0.010166309013516,19.3766342725683
0.00935544326783834,19.3790501504056
0.00857886522368888,19.3815311314539
0.0078374449224823,19.3840844337944
0.00713183366543416,19.3867177466039
0.00645664998103301,19.3894641712008
0.00580010467816784,19.3923966941503
0.00516564422989868,19.3955367497288
0.00455660358922463,19.3989099685965
0.00397637202804562,19.4025459864393
0.00342833286888582,19.4064791992291
0.00291576845497507,19.4107498197729
0.00244172845018648,19.4154054517889
0.00200884370936093,19.4205038488425
0.0016190968270976,19.4261180295744
0.00127366363245841,19.4323443742571
0.000972952353689322,19.4393129304077
0.000719601002380006,19.4470986422023
0.000563992508245136,19.453899206976
0.00045533894878404,19.4606997717496
0.000351736439177087,19.4697221140733
0.000279196025089062,19.4789354242373
0.000226843240245469,19.4889354242373
0.000194158765400969,19.4989354242373
0.000175187093957382,19.5089354242373
0.000165669232087136,19.5189354242373
0.000162660176894176,19.5289354242373
0.000164232712914568,19.5389354242373
0.000169192077338588,19.5489354242373
0.000176839359837979,19.5589354242373
0.000186806240731201,19.5689354242373
0.000198953931098268,19.5789354242373
0.000213317667189141,19.5889354242373
0.000230080752239902,19.5989354242373
0.00024956906502254,19.6089354242373
0.000272262941116503,19.6189354242373
0.000298827608110167,19.6289354242373
0.000330167093666078,19.6389354242373
0.000367511345318977,19.6489354242373
0.000412554146510828,19.6589354242373
0.000465154158392399,19.6685115611931
0.000524778731243909,19.677385762293
0.000592224041557414,19.6855976521698
0.000668506599208916,19.6931957981434
0.000754805141595106,19.7002259029508
0.000852460096455817,19.7067306062792
0.00096298912983341,19.7127497103037
0.00108810942088561,19.7183203815367
0.00122976496170497,19.7234773083767
0.00139015541959015,19.7282528539673
0.00157177114011345,19.7326772151939
0.00177743218957355,19.7367785807925
0.00201033654570398,19.7405832694873
0.00227411374875253,19.7441158575841
0.00257289420876973,19.7473993205232
0.00291139283941101,19.750455182284
0.00329501477573108,19.7533036576196
0.00372999276679193,19.7559638100094
0.0042235688564447,19.7584537371736
0.0047842435064014,19.760790783454
0.00542212879689285,19.7629918099958
0.00614446357863908,19.7650604805341
0.0069400117947267,19.7669627348782
0.00781754626802249,19.768729162024
0.00879012215179714,19.770389955148
0.00987717951095736,19.7719757647664
0.0111108001773239,19.7735228135059
0.0125917372821008,19.7751246363217
0.0145571735478799,19.7769534320804
0.0164556648532755,19.7785065035268
0.0185327889367138,19.7800595749731
0.020371806565677,19.7813709559111
0.0219716576743583,19.7825092787906
0.0234074266742824,19.7835707825763
0.024695979199417,19.7846052668512
0.025827897148993,19.7856498092357
0.0267756287168147,19.7867456727092
0.0274853270711768,19.7879587906977
0.0278297431655503,19.7894547590797
0.0275218430859167,19.7911836643706
0.0265721903111682,19.7929125696615
0.0254388567368431,19.7943224555198
0.024149944069415,19.7956693134215
0.0227005262283036,19.7970467106687
0.0210983514532699,19.7984986305311
0.0193492453654328,19.8000643625026
0.0187065320430195,19.8006437414973
0.0180731436283621,19.801223120492
0.0169717622306215,19.802267541425
0.0144883035107317,19.80483571309
0.0123449590802089,19.8073649529723
0.0104692143900854,19.809913082222
0.00881708026393352,19.8125215810351
0.00747458526924363,19.814994267587
0.00631211016090815,19.8174946849691
0.00538410677744279,19.8198238033017
0.00471547469891672,19.8217514431115
0.00416646756987436,19.8235403859585
0.00367932411784809,19.8253284707386
0.00322142924798473,19.8272312431193
0.00275996400959005,19.8294359678344
0.00221996062337873,19.8325309225878
0.00175888476246794,19.8358448079373
0.00141383194518202,19.8389881259971
0.00113639105074035,19.8422212090181
0.000898772524257409,19.8459246779229
0.000707059099671629,19.8503874792389
0.000597470452866865,19.8553717126012
0.000588633379562874,19.8601219326561
0.000664738526410614,19.8644171404952
0.000813928451939324,19.8683176414499
0.00103089525429959,19.8718627537995
0.00131435306212979,19.8750964959801
0.00166614336259716,19.8780654097431
0.00209127910989537,19.8808179318757
0.00259868921545607,19.8834042470018
0.00320271119700788,19.8858768000094
0.00392683676399818,19.8882957345372
0.00480850385846594,19.890730120882
0.00590144089176084,19.8932491368898
0.007238431883154,19.8958428216958
0.00873374768928399,19.8983098182249
0.0102696109401114,19.9004902526003
0.0118152145656586,19.9023950301018
0.0134266462204664,19.9041243774736
0.0151374895690836,19.9057213599115
0.0170100428158456,19.9072372324548
0.0190644486720602,19.908674517112
0.0213517835996419,19.9100537695633
0.0239000864341927,19.9113752781856
0.0267562109556479,19.9126474293766
0.0299609125298546,19.9138724676359
0.0335601578966238,19.9150530355134
0.0376109330978196,19.9161933141249
0.0421740787582386,19.9172961004325
0.0473192130806297,19.9183642215341
0.0531335124468854,19.9194017381436
0.0597174280567802,19.9204122269924
0.0671920026171495,19.9213995480826
0.075703255900115,19.9223677290905
0.0854369422959632,19.9233217881824
0.0966263478950337,19.924267251012
0.109574768505675,19.9252107768695
0.124689589184356,19.9261607994224
0.142541341848031,19.9271286281843
0.163710344390415,19.9281190369494
0.188256689405705,19.9291137593853
0.21684280082462,19.9301239390506
0.250369581962121,19.9311656877873
0.290208620307138,19.932266333745
0.335759304410038,19.9334084302592
0.374813274204305,19.9343350282308
0.407625222767977,19.9351075938467
0.436159058150773,19.9358024990554
0.461063038660925,19.9364580685931
0.482356721883948,19.93709908622
0.499652264180049,19.9377473700723
0.512075976022483,19.9384282010578
0.517850965952651,19.9391803596367
0.513866163575476,19.9399923263887
0.498397853930467,19.9408255418424
0.470065578902171,19.9416952923056
0.427130740766766,19.9426124892382
0.367700238990626,19.9435860401763
0.324917976922627,19.9441828700753
0.278214368564336,19.9447796999743
0.236448260246598,19.9452863141652
0.200303439645348,19.9457166909615
0.168346422925279,19.9460995350122
0.139613509570009,19.9464525729269
0.113502353581084,19.9467871140479
0.0895850644848601,19.9471116407169
0.0674994544904511,19.9474340042108
0.0468475856459169,19.9477638930576
0.026955866048529,19.9481193632331
0.00525128288481107,19.9485716709272
-0.00325968870862646,19.9487760534328
-0.0110009312758441,19.9489804359385
-0.0173778632877498,19.9491655648763
-0.0233411285941488,19.9493560333366
-0.0292952074144789,19.9495675438172
-0.0350091322125307,19.9497967086811
-0.0403386568886629,19.9500415778584
-0.0452045478644737,19.9503015388411
-0.0495663359934941,19.9505768710125
-0.0534033265250605,19.9508685022984
-0.0568535442332544,19.9511939074954
-0.059573166750109,19.9515213505965
-0.0617799443836972,19.9518706506357
-0.0634896682405524,19.9522451155695
-0.0647165372539823,19.9526485310196
-0.0654737924607588,19.9530855761242
-0.0657722024190953,19.9535620985266
-0.0656183378195482,19.9540855244164
-0.0650118814991286,19.9546658359564
-0.0639401233705354,19.9553173283652
-0.0623739772445305,19.9560591011356
-0.0602549406229015,19.9569205453975
-0.0574595212089555,19.9579539849576
-0.0536520155176958,19.9592867647034
-0.0496069876395765,19.9606724677031
-0.0457073707329723,19.9620133757517
-0.0419961310936562,19.9633135623801
-0.0384941697550907,19.9645750787837
-0.0352119399916575,19.9657986604706
-0.0321535358777998,19.9669843773686
-0.0293186169662057,19.9681319808347
-0.0267035069166189,19.9692410859389
-0.0243019503756497,19.9703112643579
-0.0221057138030364,19.9713420864706
-0.0201051020586701,19.9723331328924
-0.0182894155562154,19.9732839864026
-0.016647355419446,19.9741942102644
-0.0150728612339167,19.9751206130898
-0.0135588393164842,19.9760709151539
-0.0121094108065821,19.9770469691214
-0.010728431006331,19.9780510000704
-0.0094195336455001,19.9790856281466
-0.00818607816792363,19.9801539681845
-0.00703109485147208,19.9812597614518
-0.00595722687136972,19.9824075543714
-0.00496666870745144,19.9836029469675
-0.00406109957222772,19.9848529483191
-0.00324160924730371,19.9861665028655
-0.00250861133098241,19.9875553028514
-0.00186173413333749,19.9890351091858
-0.00129966903862007,19.990628046336
-0.000842945406354875,19.9922720589452
-0.000479227911712887,19.9939697956779
-0.000192792197106385,19.9957398424622
3.09247564667697e-05,19.9976057641904
0.000142345145417482,19.9988028820952
0.000234753816868378,20
