ecg,time
0.0188790085835321,15.0016633623854
0.0206881249714958,15.0063500528282
0.022618708585359,15.0110367432709
0.024205875789403,15.0148457968345
0.0255183156217633,15.0181438364919
0.0266181840989039,15.0212179659867
0.0275056030898397,15.0242109577411
0.0281229014755313,15.0270545025817
0.0284727235926973,15.0298684424871
0.0285319169591691,15.0327979273335
0.0282148140998684,15.0361158268003
0.0272231086230845,15.0404758909497
0.0263302341994461,15.0431799309292
0.025271902203555,15.0458839709087
0.0241990874598372,15.0483462595779
0.0231253083857702,15.0506570015266
0.0220507390346621,15.0528838713354
0.0209780645377327,15.0550645432622
0.0199109012635911,15.0572226525285
0.0188529342033234,15.0593747790214
0.0178076533380716,15.0615335278482
0.0167782821680272,15.0637090911725
0.0157677651256576,15.0659101388807
0.0147787722201579,15.0681443767258
0.0138137120034916,15.0704189155738
0.0128747408686017,15.0727405463162
0.0119637738692052,15.0751159496319
0.0110824975487476,15.0775518628706
0.010232373342634,15.0800552522904
0.00941465390514465,15.0826334425958
0.00863038561717459,15.0852942884271
0.00786406479714981,15.0881089174364
0.00711320477592203,15.0911173537439
0.00638160810801541,15.0943427892186
0.00567320594822119,15.0978123273154
0.00499210997259085,15.1015573513015
0.00434255283707228,15.1056143760568
0.00372878674938881,15.1100262480724
0.00315491675544605,15.1148441099679
0.00262467586286969,15.1201307448477
0.00214111501861911,15.1259670723
0.00170648342106396,15.1324611115884
0.00133151148057165,15.1395617189365
0.00108484661318452,15.1454341080691
0.000896900410522151,15.1513064972017
0.000697318407793493,15.159690376676
0.000547068803326393,15.1684171578864
0.00042909753684139,15.1779848563857
0.000344257725091394,15.1879848563857
0.000288013172440378,15.1979848563857
0.000252302208517575,15.2079848563857
0.000231261891608514,15.2179848563857
0.000220767479938099,15.2279848563857
0.000218037654573661,15.2379848563857
0.000221273177748391,15.2479848563857
0.000229370284108042,15.2579848563857
0.000241724166190752,15.2679848563857
0.00025811005321753,15.2779848563857
0.000278621913965163,15.2879848563857
0.000303654453387465,15.2979848563857
0.000333923397295985,15.3079848563857
0.000370528267983852,15.3179848563857
0.000415071847772192,15.3279848563857
0.000469685730728855,15.3379547622854
0.000532243761339571,15.3471784553698
0.000603520345844851,15.3556867664978
0.000684629657304334,15.3635355098108
0.000776894259599402,15.3707772106866
0.000881832093193032,15.3774604237044
0.00100116766779047,15.3836300782595
0.0011368556715076,15.3893278027764
0.00129111098488722,15.3945921991196
0.00146644401413933,15.3994590817655
0.0016657008138888,15.4039617024993
0.00189211227462767,15.4081309635798
0.00214935207918945,15.4119956175145
0.00244160834094576,15.4155824565397
0.00277367343777249,15.418916506104
0.00315105852104239,15.4220212285059
0.00358014492622886,15.4249187393142
0.00406838772210118,15.4276300529803
0.00462460131107279,15.4301753832382
0.00525937623792811,15.4325745334793
0.00597839323513566,15.4348265342522
0.00677416661612674,15.4369056390014
0.00765792599484445,15.4388481929122
0.00864705234854999,15.4406917375678
0.00976999423271249,15.4424790050978
0.011081423724571,15.4442720073458
0.0127720763157668,15.4462600464758
0.0145435561032528,15.4480837686334
0.0164958272576506,15.4499074907909
0.0181437114865022,15.4513723495636
0.0195598848255544,15.4526296299512
0.0208233768625413,15.4537973045413
0.0219496127275883,15.4549308134178
0.0229293580696489,15.4560697923
0.0237368992265157,15.4572567536346
0.0243230803418046,15.4585567134364
0.0245768973158208,15.4601217252805
0.0242405075962063,15.4620010087613
0.0232989887353884,15.4638802922422
0.0222038527978899,15.4653927221893
0.0209846517628209,15.466813576191
0.0196341041401873,15.46824814844
0.0181601263796654,15.4697420255377
0.016570475891809,15.4713321448892
0.0149004063308711,15.4730630400376
0.0134372336111783,15.4747023654858
0.0111542318026685,15.4775691204388
0.00926836605425399,15.4803261514065
0.00776234403557608,15.4828876623915
0.00649421980927263,15.4853907273126
0.00538368216482031,15.487941735797
0.00440694903545901,15.4905679131275
0.00359050329029614,15.4931422087979
0.00292672143183769,15.4955829851638
0.0023778234990395,15.4979177211875
0.00191439197034783,15.5001825542673
0.001512855906088,15.5024266603473
0.00115169056946855,15.5047317911804
0.000802082474058969,15.5072945442174
0.000529690700761057,15.5095779805396
0.000288523477127843,15.5118614168617
0.000109759577747469,15.5137455448037
-3.47331253697556e-05,15.5154080378587
-0.000163764250770296,15.5170126617625
-0.000286705120111381,15.5186596730898
-0.00041159666443646,15.5204644031481
-0.000551784934167437,15.5226666942336
-0.000782049805962561,15.5267484551019
-0.000970490796752242,15.5305946698458
-0.00111257556859805,15.5338513028191
-0.00124754192444655,15.5372785301133
-0.0013967521798842,15.5415317878921
-0.00156840679926974,15.5473273283112
-0.00167762249507809,15.5522834599528
-0.00173161994489678,15.5567953605775
-0.00172227400747814,15.5608534321119
-0.0016423743341876,15.5645050240456
-0.00148531446312231,15.5678039482314
-0.00124527150038683,15.570802808284
-0.000915776485688346,15.5735598822562
-0.000487061183061991,15.5761388363539
5.7291769881665e-05,15.5786078534274
0.000746872878510095,15.5810481644767
0.00164675975130263,15.5835939826218
0.00291524627814705,15.5865039382263
0.00452531113907881,15.5895633401013
0.00648549611986618,15.5927227386478
0.00785367477947938,15.5946594335526
0.0093792550373455,15.5965961284574
0.0109795241781207,15.5984003309069
0.0126149411462693,15.600028816556
0.0143955481378194,15.6015871893421
0.0163330393496478,15.6030683085108
0.0184758105350648,15.6044924269978
0.0208550082954408,15.6058619546823
0.0235056693115794,15.6071800625938
0.0264676799954262,15.6084504099542
0.029775855706913,15.6096729644235
0.0334807442563212,15.6108523123944
0.0376339873396349,15.6119909776788
0.0422940742124185,15.6130915184358
0.0475311026654043,15.6141571952159
0.0534297091135984,15.6151917810237
0.0600887587405929,15.6161988499054
0.0676273297035265,15.6171822326958
0.0761907517831355,15.6181461017641
0.0859577231593222,15.6190949715743
0.0971565089635612,15.6200342859558
0.110080655650892,15.6209703735586
0.125120613082991,15.6219111085256
0.142816836202454,15.622866888744
0.163901319380695,15.6238499783372
0.188310927114158,15.6248353083547
0.216680103262357,15.625833016966
0.249857591845747,15.626857487407
0.28909198758229,15.6279321973747
0.334938214393337,15.6290660013062
0.37609465891562,15.6300210035904
0.410258228510015,15.630801574463
0.439808423568874,15.6314951028975
0.465637641133008,15.6321451548378
0.487866494612485,15.6327780400854
0.506176669737111,15.6334158867471
0.519776279446037,15.6340836217316
0.527031300206518,15.6348188286024
0.524813451882326,15.6356227687801
0.511159628153615,15.6364471711869
0.484721525470099,15.6373083854409
0.443735198742375,15.6382183638024
0.386239246629614,15.6391855999285
0.341620555728081,15.6398172028616
0.292324724931281,15.6404488057947
0.248447414883888,15.6409778001013
0.210849139208542,15.6414203237953
0.17782329166962,15.6418099100351
0.148243798320381,15.6421666689407
0.12143135468871,15.6425029430298
0.0969206285093091,15.6428276267716
0.0743343657864264,15.6431485702744
0.0532838278457502,15.6434748651251
0.0331748979803473,15.6438219923283
0.0121726587311551,15.6442400384711
0.00130524836751066,15.6444891186079
-0.00606065868943874,15.6446756610848
-0.0127931508946514,15.6448622035618
-0.0186810961770615,15.6450410581152
-0.0246964170872105,15.6452429201767
-0.0305612867418972,15.6454637309142
-0.0360915903360121,15.6457007922613
-0.0411842976626548,15.6459530064214
-0.0457847915045433,15.6462203208449
-0.0498674003798269,15.6465034093894
-0.0534163707357716,15.6468035145217
-0.0564045469223401,15.6471196876198
-0.0588722595440847,15.6474563910138
-0.0608347907285121,15.6478166305442
-0.0623064286696467,15.6482038273355
-0.0633012534437541,15.6486221998353
-0.0638316264860039,15.6490769932597
-0.063906580820452,15.649574817268
-0.0635298687766666,15.6501241646017
-0.0626954467053475,15.65073734573
-0.0613831263259312,15.6514307279385
-0.0595509127626718,15.6522280181469
-0.0571133616877471,15.6531682199288
-0.0538710092407053,15.6543306978479
-0.0497800554050749,15.655744978211
-0.0458032161286253,15.6571095102723
-0.041997895667505,15.6584317806891
-0.0383932036405398,15.6597148395234
-0.035004049330693,15.6609599122862
-0.031837395826076,15.6621673004761
-0.0288949827512157,15.6633368524769
-0.0261747341280658,15.6644682113974
-0.023671641393554,15.6655609440346
-0.0213784215157435,15.6666146039396
-0.019286066071019,15.6676287559517
-0.017384324069061,15.6686029767888
-0.0156621317775211,15.6695368396844
-0.0140742987152823,15.6704498533516
-0.0125445200665239,15.6713861163934
-0.0110775998205909,15.6723469957552
-0.00967751436796867,15.6733345259334
-0.00834805777589168,15.6743510874453
-0.00709278729389789,15.6753994949685
-0.00591497189606361,15.6764831088379
-0.00481753843973088,15.6776059844571
-0.00380301543036628,15.6787730769946
-0.0028734739653801,15.6799905292492
-0.00203046478311734,15.6812660891933
-0.00127494922425303,15.6826097385347
-0.000607219833248246,15.6840346830335
-2.68021147107693e-05,15.685559004786
0.000460246811654216,15.6871803582933
0.000843634752419318,15.6888446667574
0.00114028682080423,15.6905702504711
0.00136503996951371,15.6923772398777
0.00153178218282864,15.6942922871271
0.00165384814383659,15.6963526703695
0.00174460359526667,15.69861471014
0.0018185100328005,15.701173562945
0.00189389546891353,15.7042233032961
0.00199368423961893,15.7079568550504
0.00212044024728512,15.7118642071254
0.00229091406930072,15.7162421736983
0.00246726071409211,15.7202489536374
0.00264812139054471,15.7240884254383
0.00283307236817603,15.7278705740179
0.00302240464186863,15.731659971501
0.00321721508724124,15.7355021772728
0.00341928869606517,15.7394337954445
0.00363096598281092,15.7434871723357
0.00385504268092362,15.7476930562582
0.00409472230213733,15.7520824060834
0.00435364270796878,15.7566877626235
0.00463603653119858,15.7615446790115
0.00494708474374655,15.7666930336728
0.005291512678674,15.7721462238532
0.00564229860300225,15.7774227431463
0.00601049549511711,15.7826606903466
0.00639498122735103,15.7877991418832
0.00680047497972667,15.7928581114346
0.00723092131721691,15.7978404924409
0.00769116391618382,15.8027548668409
0.0081862942831869,15.8076063523832
0.00872185262382431,15.8123982537367
0.0093038618063665,15.817131646187
0.00993895470690349,15.8218059482162
0.0106360252861177,15.8264291166636
0.0114199520215358,15.8310900265171
0.0123050912579227,15.8357792120087
0.0133141790439952,15.8405149686015
0.0144792929879135,15.8453322173379
0.0158541053580043,15.8503145423777
0.0175542845401672,15.8556889942765
0.0199669959685541,15.8623005417974
0.0215865115562037,15.8663274636911
0.0232660293712753,15.8703543855848
0.0247258992599094,15.873896242921
0.0259547559708786,15.8770853619566
0.0269777947624359,15.8801191891745
0.0277636673913069,15.8830414055333
0.0282830416690438,15.8858592740212
0.0285304373730519,15.8886960724653
0.0284670713450417,15.8917222194968
0.0279489649426564,15.895355457714
0.0271394983846146,15.8985246252195
0.0260536388679629,15.901693792725
0.0249674712238753,15.9043737095667
0.0238929245882666,15.9067869955287
0.0228186516085341,15.9090690064061
0.0217442528620996,15.9112798182635
0.0206727448184633,15.913452168062
0.0196078077137804,15.9156072254852
0.0185530838826573,15.9177602202588
0.0175119907244388,15.9199229520232
0.0164876712608566,15.9221051119029
0.0154829903578438,15.9243150523904
0.0145005420188746,15.9265602817472
0.0135426601535342,15.9288478039358
0.0126114326698237,15.9311843616196
0.0117087073317039,15.9335766450443
0.0108361036841783,15.936031455685
0.00999502482221356,15.9385558525071
0.00918666159984448,15.9411573157558
0.00841161546323577,15.9438452984231
0.00764926597834441,15.9467129641263
0.00690349538265924,15.9497804624559
0.00617808096196225,15.9530722611073
0.00547700782265145,15.9566166124482
0.00480443019547192,15.9604462578563
0.00416459901889282,15.9645993673874
0.00356174495325202,15.969120897978
0.00299989594229822,15.9740648465398
0.0024826117536208,15.9794984447816
0.00201272605084982,15.9855092357891
0.00159227099691696,15.9922149177863
0.00123575547275614,15.9994704798909
0.000948248339971052,16.0073325627625
0.000724063920288162,16.0161678207123
0.000580447117743952,16.0240649665939
0.000453736827337358,16.0335838401958
0.000361649438930513,16.0435838401958
0.000300181426641723,16.0535838401958
0.000260769236482606,16.0635838401958
0.000237152218955685,16.0735838401958
0.000224874376215846,16.0835838401958
0.000220899486578107,16.0935838401958
0.000223247492946689,16.1035838401958
0.000230691696292265,16.1135838401958
0.000242543355036348,16.1235838401958
0.000258517898581135,16.1335838401958
0.00027866374912266,16.1435838401958
0.000303337831546144,16.1535838401958
0.000333220946493244,16.1635838401958
0.00036937585512542,16.1735838401958
0.000413361177104353,16.1835838401958
0.000467428382094088,16.1935838401958
0.000529493340117044,16.2028558241372
0.000600218816484662,16.2114094580467
0.000680698580874464,16.2193000026968
0.000772240944450674,16.2265802175078
0.000876350046672857,16.2332988965439
0.00099473551366979,16.2395011878218
0.00112933545291953,16.2452289202388
0.00128234604468332,16.2505208809312
0.00145625659873056,16.2554130556015
0.00165388914129093,16.259938853963
0.00187844712133878,16.2641293234639
0.00213357247184726,16.26801334989
0.00242341643273918,16.2716178468614
0.0027527278066336,16.2749679486759
0.00312696559375484,16.2780872130995
0.00355244759256608,16.280997836535
0.00403654959318134,16.2837208968456
0.00458798440496863,16.2862766491482
0.00521720775837112,16.2886849084993
0.00593152585951231,16.2909496576225
0.0067220044739718,16.2930390827999
0.00759955495044785,16.2949895040403
0.00858106993247548,16.2968383639404
0.00969397847258231,16.2986277725332
0.0109902830419393,16.3004176192315
0.012643788635688,16.3023815706494
0.0144671306825902,16.3042719403431
0.0160278465944393,16.3057454303457
0.017671874422916,16.3072189203483
0.0191393105449769,16.3085162764011
0.0204467599500205,16.3097041377339
0.0216160875304909,16.3108437956484
0.0226436181778179,16.3119769205442
0.0235088840227757,16.3131435187194
0.0241718151468982,16.3143983542982
0.0245498381113353,16.3158512827471
0.0243486213187333,16.3179490017505
0.0236792470002284,16.3195115929897
0.0226594845827685,16.321074184229
0.0214985104343508,16.3225051948605
0.0202014748023736,16.3239265537938
0.0187767453453952,16.3253917829467
0.0172336339502908,16.3269380947986
0.0162727573243433,16.327900825047
0.0153389325127903,16.3288635552954
0.0130172122093111,16.3314674747842
0.0107352827010969,16.3344160388391
0.00893171279145499,16.3371378389582
0.00749028140859414,16.3396668430626
0.00625749516787346,16.3421769938683
0.00517645591768525,16.3447416306939
0.00422530834689301,16.3473863024055
0.00344143236640174,16.3499427611648
0.00280241298159137,16.3523707488576
0.00227199144960875,16.3547003018466
0.00182196576104497,16.3569704520445
0.00142922494988331,16.3592369408144
0.00107132194325115,16.3615997281582
0.000711658850959289,16.3643423472669
0.000471717237197349,16.3664323356528
0.000256881224393752,16.3685223240387
8.74253537379868e-05,16.3703440531243
-5.37397618816345e-05,16.3719970299091
-0.000181525199802417,16.3736137905581
-0.000304615776185093,16.3752924903019
-0.000431428930320826,16.3771609776562
-0.00057819461244445,16.3795209813655
-0.000815511480918166,16.3838541646636
-0.00100075985143932,16.3877646222672
-0.00114305022605827,16.3911447625738
-0.00128135377248886,16.3948057836334
-0.00143762027224464,16.3995169110534
-0.00158801583797019,16.4050341799304
-0.00168001517202632,16.4098570999692
-0.00171445182891857,16.414230457692
-0.00168346450630459,16.4181672099346
-0.00157990600788896,16.421714404724
-0.00139739058244828,16.4249248053398
-0.00113011369709729,16.4278516346629
-0.00077078111564587,16.4305557075347
-0.000308131581378146,16.4331006903796
0.000277074638436663,16.435556574892
0.00101986914097304,16.4380096368601
0.00200258918543957,16.4406190788578
0.00336153552422783,16.4435638470238
0.00507145251969836,16.446652623938
0.00653152315389346,16.4489427396707
0.0081775060472285,16.4512328554035
0.00974067681120413,16.4531580940333
0.0113563445852985,16.4549210281406
0.0130350370433898,16.4565365415993
0.0148542802803286,16.4580729029284
0.0168571923392885,16.4595485586987
0.0190592122884707,16.4609574674012
0.0215110263691569,16.46231555012
0.0242388654753951,16.463620508923
0.0272879333556585,16.4648784947575
0.0306993135497045,16.4660912747197
0.0345157298756384,16.4672599865551
0.0387955085705941,16.4683889375621
0.0436012267597156,16.4694810651531
0.0490062565523341,16.4705395616075
0.0550953029731363,16.4715674990712
0.0619745153779132,16.4725689807784
0.0697696615282964,16.4735479424288
0.0786348008515224,16.474508686644
0.0887618531768078,16.4754560470834
0.100394291153604,16.4763955943925
0.113849779331381,16.4773340907867
0.129556531562362,16.4782801437614
0.148116604308482,16.4792453456414
0.170038573245365,16.4802302817058
0.19544558990896,16.4812203504724
0.225025702372181,16.4822268412421
0.259719076849412,16.4832662566642
0.300983768149181,16.484367453085
0.337350119321465,16.4852583600599
0.375557324119887,16.4861492670348
0.409277254710383,16.4869255173856
0.438647359139072,16.4876206234816
0.464323251625358,16.4882728697709
0.486400017201328,16.4889081062934
0.504550532127494,16.4895483727803
0.517975793706188,16.4902185266127
0.525035225350894,16.490955946888
0.522616340746397,16.4917618019888
0.508776420285318,16.4925879091695
0.482169075828389,16.4934504209786
0.441044005143162,16.4943611011803
0.383461814477916,16.4953284892917
0.339204833100791,16.4959550295065
0.290383035104342,16.4965815697213
0.246882226184214,16.4971074411883
0.209542095453202,16.4975483991152
0.176705590032589,16.4979372170778
0.147275704372367,16.4982936354609
0.120587045125884,16.4986298389995
0.0961813507009058,16.4989546572869
0.073684893272206,16.499275930916
0.0527094021933573,16.4996028104945
0.0326541721581015,16.4999510398805
0.0116215644012487,16.50037260987
0.00110748737451998,16.5006151643956
-0.00622866959169054,16.5008018946566
-0.0129336433571373,16.5009886249176
-0.0188232866847612,16.5011684917842
-0.0248302526433249,16.5013712480055
-0.0306802892138461,16.5015928772363
-0.036192288306482,16.5018307294661
-0.0412650365119955,16.502083739053
-0.0458450002617945,16.5023518760077
-0.0499071584238367,16.5026358317915
-0.0535183201721421,16.5029448430636
-0.056471612670447,16.5032624263218
-0.0589066108463544,16.5036007915756
-0.0608376676502451,16.5039628845065
-0.0622790563267384,16.5043521655596
-0.0632447658239051,16.5047729036669
-0.06374698489327,16.5052304091156
-0.0637944851366653,16.5057313783493
-0.0633906456640159,16.5062844246588
-0.0625286879314693,16.5069021342705
-0.0611875707283369,16.5076011082889
-0.0593237911951031,16.5084055940401
-0.0568486456196231,16.5093557807443
-0.0535524192254274,16.5105347491156
-0.0494701723328063,16.5119453670169
-0.0455058444545517,16.513306980034
-0.0417153724311995,16.5146264736758
-0.0381267583647522,16.515906787546
-0.0347543061410812,16.5171490954098
-0.031604581618792,16.5183536761334
-0.0286790298045543,16.5195203704202
-0.0259753425782801,16.5206488211691
-0.0234883260921846,16.5217385983407
-0.021210552227731,16.5227892596453
-0.0191329039474055,16.5238003735956
-0.0172450549424408,16.5247715190979
-0.0155358962799124,16.5257022693519
-0.0139520807171675,16.5266170645304
-0.0124267200231222,16.5275551910342
-0.0109645263770229,16.5285180807351
-0.00956946373171404,16.5295077925553
-0.00824530913076318,16.5305267376541
-0.00699559868713407,16.5315777689475
-0.00582357590922411,16.5326642951024
-0.00473213764385583,16.5337904335333
-0.00372377759106197,16.5349612204064
-0.00280052691082035,16.5361829066262
-0.0019638907718885,16.5374633882941
-0.00121477850700359,16.5388128568005
-0.000553422821956593,16.5402448271532
2.07210063669868e-05,16.5417778624561
0.000499644074210239,16.5434019444128
0.000876316913219392,16.5450703776852
0.00116745206515512,16.5468014626818
0.00138780903636139,16.5486157393476
0.0015512262986855,16.5505404966575
0.00167102952459055,16.5526141003173
0.00176064039185587,16.5548949257778
0.00183471367339501,16.5574826855311
0.00191220071360205,16.5605849411634
0.00201435197423157,16.564318391449
0.00214520788019126,16.5682564171571
0.00231260896885518,16.5724846274018
0.00248795517187341,16.5764268893516
0.00266920748267926,16.5802419042255
0.00285551134860348,16.5840214252649
0.00304695206267846,16.5878228487073
0.00324452511700859,16.5916884271803
0.00344998136341535,16.5956531718931
0.00366567583512328,16.5997487476691
0.00389445799416359,16.6040058269546
0.00413961849376961,16.6084556980143
0.00440492954820905,16.6131316384497
0.00469483993776794,16.6180703577053
0.00501488727977764,16.6233132331911
0.00536054325360408,16.6287237058517
0.00571543459075563,16.6339982899911
0.00608694091696329,16.6392132576873
0.00647575863442206,16.6443339324594
0.00688635800354205,16.6493751407776
0.00732295519358177,16.6543420992747
0.00779043514404464,16.6592425326843
0.00829397491666007,16.6640811431497
0.0088391999726064,16.6688606589675
0.00943224410111162,16.6735816981629
0.0100798807133508,16.6782433635179
0.0107946855037595,16.6828748764094
0.0115990295151178,16.6875410083277
0.0125089284207134,16.6922385336907
0.0135485981485255,16.6969878486676
0.0147533580927522,16.7018309896661
0.0161848288711123,16.7068697868733
0.0179872071104888,16.7123976033795
0.0204046755574361,16.7188595808286
0.0219746124046134,16.72271201274
0.0235847115523674,16.7265644446515
0.0249911046861161,16.7300074611756
0.0261774406948461,16.7331516137232
0.0271586788542033,16.7361718667329
0.0278898726225321,16.7390633963437
0.0283551747609372,16.7418744350174
0.0285441878086917,16.7447329198298
0.0284068563898971,16.747831426646
0.0277412556529637,16.7517374222972
0.0269038667289282,16.7547213499378
0.0258345301599654,16.7577052775784
0.0247554052020863,16.7603075723176
0.0236815855202045,16.7626873474223
0.0226071598998359,16.7649518828065
0.0215330542161736,16.7671530763493
0.0204625407330904,16.7693206271644
0.0193993224413739,16.7714742402213
0.0183470053600607,16.7736283276465
0.0173089548115402,16.7757941951073
0.0162882590127081,16.7779812225158
0.0152877284203086,16.7801975661821
0.014309905709658,16.7824506122673
0.0133570750670438,16.7847472989115
0.0124312761030867,16.7870943471737
0.0115343122124506,16.789498456084
0.0106677580488892,16.7919664736302
0.00983297563818289,16.7945055298733
0.0090311152283451,16.7971232107638
0.00825831505748159,16.799845345936
0.007498962761168,16.8027509525737
0.00675692049860599,16.8058609840603
0.00603600981903425,16.8092006056132
0.00534025212273654,16.8127989036385
0.00467382751222785,16.8166896131853
0.00404099397996101,16.8209121214855
0.00344595806939382,16.8255129594817
0.00289267902831574,16.8305483144237
0.00238458720831565,16.8360887916234
0.00192435354985667,16.8422270475757
0.00151475975697488,16.8490711889632
0.00117076639131905,16.8564400129458
0.000898209503043193,16.8644386604916
0.00071852253368012,16.8718749010921
0.000563046517993258,16.8805798994667
0.000443411212595258,16.8898847424135
0.000354122934189554,16.8998847424135
0.000294655178980299,16.9098847424135
0.000256621776448272,16.9198847424135
0.000233904490820124,16.9298847424135
0.000222172973750677,16.9398847424135
0.00021849001768269,16.9498847424135
0.000220944063185193,16.9598847424135
0.000228350820171196,16.9698847424135
0.000240044806125586,16.9798847424135
0.000255750986661983,16.9898847424135
0.000275516445967669,16.9998847424135
0.000299686495597487,17.0098847424135
0.000328918799185593,17.0198847424135
0.000364238272037021,17.0298847424135
0.000407145080236416,17.0398847424135
0.000459801286193342,17.0498847424135
0.000520644070536389,17.0592276767982
0.000590002061103076,17.0678502997485
0.000668927820952174,17.075805213542
0.000758700974995113,17.0831452995856
0.000860795946805734,17.0899195745281
0.000976889495451803,17.0961734028896
0.00110888258495047,17.1019488203909
0.00125892907752372,17.1072848118094
0.00142946999098745,17.112217550465
0.00162327199119138,17.1167806221726
0.00184347472883366,17.1210052374482
0.00209364594401224,17.1249204313474
0.00237785008037462,17.1285532513044
0.00270073281529162,17.1319289468404
0.0030676290580872,17.1350711683306
0.0034847044695343,17.1380021770026
0.00395914401261199,17.1407430789647
0.00449941457290933,17.1433141069995
0.00511564368075403,17.1457349806126
0.0058188978891796,17.1480215719135
0.00659681068388891,17.1501273737335
0.0074594608940983,17.15208839032
0.00842245665844155,17.1539415340655
0.00951057835543104,17.1557269956843
0.0107690782007814,17.1574988690043
0.0123325316944148,17.1593932347226
0.0147008851362889,17.1618459184755
0.0162342485600868,17.1632704444633
0.0178430434780871,17.164694970451
0.0193065150449653,17.1659765327441
0.0206139317962575,17.1671554681786
0.0217831846013088,17.1682891126348
0.0228095176628571,17.1694184472719
0.02367155245631,17.1705837101954
0.0243276973306084,17.1718410919562
0.0246910579753567,17.173306268786
0.0244287523881375,17.1754876317923
0.0237259335104288,17.1770249915206
0.0226897111655973,17.1785623512488
0.0215127638124631,17.1799852723012
0.020199051162629,17.1814060272194
0.0187573631941962,17.1828750713522
0.0171967177716077,17.1844293416895
0.0161675382307703,17.18545669953
0.0151763469734985,17.1864840573705
0.0128323515405947,17.1891363571107
0.0105894126445393,17.1920660720621
0.00881694260564707,17.1947698310578
0.00739723971637267,17.1972870042953
0.00617661147137357,17.199798988763
0.00510590918331731,17.2023676393797
0.00416387230245398,17.2050179543718
0.00338621139636515,17.2075860709823
0.00275362432226451,17.2100217296578
0.00222976726644393,17.2123542038663
0.00178644928116667,17.2146215391142
0.00140097876901634,17.2168760190912
0.00105228746440925,17.219206020924
0.000710299829510586,17.2218350901157
0.000457987773099555,17.224051197396
0.000233564959300662,17.2262673046763
6.30824313400658e-05,17.2281354370436
-7.61958344060032e-05,17.2297995267562
-0.000201110215590668,17.2314117199366
-0.000320533129519683,17.2330715077041
-0.000442361493410479,17.2348975554238
-0.000580248342651421,17.237144916067
-0.000817892195925109,17.2415347456473
-0.00101462135860296,17.2457563087196
-0.0011637109070023,17.2493831661259
-0.00130442668570484,17.2532164791407
-0.00146389811621179,17.2581974797203
-0.00160434550790742,17.263606591886
-0.00168849544798721,17.2683833071909
-0.00171446029336796,17.2727049830915
-0.00167445292580348,17.2765918385657
-0.00156132992971804,17.2800955206895
-0.00136894624472211,17.2832651907929
-0.00109119573687678,17.2861595605743
-0.000720351590979639,17.2888392432777
-0.000244466188054953,17.2913675553201
0.000357616673319759,17.2938174017972
0.00112395966865927,17.2962773901637
0.00214143148928726,17.298907698159
0.00353703668120235,17.3018582436749
0.0052875618620203,17.3049500648215
0.00671940252133253,17.3071515800555
0.00832819516244343,17.3093530952894
0.00990124763255981,17.3112614764559
0.0115405310133286,17.3130223598351
0.0132263433077803,17.3146185606892
0.0150695103795359,17.3161498608301
0.0170977263091639,17.3176192921224
0.0193267754454585,17.3190214350246
0.02180957854971,17.3203733320591
0.024572282810928,17.3216724469737
0.0276600468449734,17.3229246595151
0.0311153633068754,17.3241321208695
0.0349815996367754,17.3252959436724
0.0393175884701741,17.3264202982247
0.0441874487785642,17.3275082490813
0.0496659400509427,17.3285629925525
0.0558410147122679,17.3295878560529
0.0628181716684194,17.3305864728567
0.0707272714347424,17.3315630341854
0.079726171033009,17.3325218954696
0.0900118644209876,17.3334679596031
0.101835337041575,17.3344069358834
0.115523917904765,17.3353456966912
0.131521663730652,17.3362931231189
0.150456438206708,17.3372612596219
0.17274637364501,17.3382461806542
0.198590320260718,17.3392373130834
0.228698529466853,17.340246372072
0.264050023890244,17.341290709985
0.306197602618921,17.3424015529836
0.341977582141727,17.3432704329764
0.379385850230251,17.3441393129693
0.412581188328687,17.3449038765553
0.441555681298635,17.345592857148
0.466869853624385,17.3462421029362
0.488569607843421,17.3468766845138
0.506285439917365,17.3475186346961
0.519156396022134,17.3481935388508
0.525406611374173,17.3489411321572
0.521864798011139,17.3497481360528
0.506783328896763,17.3505772300181
0.478767861479657,17.3514441898895
0.436035805659568,17.352360324916
0.376637381808249,17.353334210025
0.332982997035647,17.3539418493845
0.285172220273609,17.354549488744
0.242516876451289,17.355062846479
0.20574825871443,17.3554965959384
0.1733251567796,17.3558810419645
0.14422000049682,17.3562347039561
0.117798995058596,17.3565692354205
0.0936179060123022,17.3568932573024
0.0713064502380645,17.3572146261541
0.0504664543541301,17.3575428490833
0.0304451018610637,17.3578951763474
0.00890657043121367,17.3583356729875
-0.000178933068441902,17.3585495700703
-0.0084073413939675,17.3587634671531
-0.0148655205401777,17.3589485155
-0.020840302313762,17.3591367952865
-0.026822587574509,17.3593462664585
-0.0325755866420548,17.3595734924292
-0.0379497419182113,17.3598164399131
-0.0428626080841391,17.3600744382037
-0.0472718047299329,17.3603477235543
-0.0511579172528888,17.3606371880967
-0.0547552123460276,17.3609701509185
-0.0575058772199935,17.3612958864408
-0.0597409142119173,17.3616432068276
-0.0614775075042059,17.3620155282842
-0.0627300314772203,17.3624166110298
-0.0635119501224549,17.3628511015666
-0.0638343128422683,17.3633248070898
-0.0637040343546248,17.3638451021883
-0.0631213163253139,17.3644218352536
-0.0620740554820734,17.3650692364013
-0.0605339402067353,17.3658062364683
-0.0584437062460287,17.3666619178096
-0.0556824291609634,17.3676878765379
-0.0519234719518045,17.3690086115645
-0.0478804781538874,17.3703976816612
-0.0439805470210768,17.3717419690973
-0.0402679133397631,17.3730456214175
-0.0367640415689827,17.3743107167525
-0.0334796956842215,17.3755379952668
-0.0304191815098255,17.3767275207366
-0.0275823217635423,17.3778790336835
-0.0249655703328654,17.3789921369906
-0.0225627725310963,17.3800663907372
-0.0203657662808438,17.3811013555434
-0.0183648984480126,17.3820966049979
-0.0165494826678223,17.3830517182923
-0.0149082058600993,17.3839662591717
-0.0133467870583775,17.3848901796632
-0.0118458663569862,17.3858378772059
-0.0104096987991346,17.3868111156397
-0.00904218137191798,17.3878120835068
-0.00774700171264206,17.3888433550862
-0.00652758636433779,17.3899079877028
-0.00538704813629459,17.3910096494874
-0.00432813110802898,17.3921527922969
-0.00335315307064659,17.3933428914438
-0.00246394470508363,17.3945867875721
-0.00166178395707973,17.3958931908955
-0.000947322560356071,17.3972734558773
-0.000320498753318556,17.3987428331579
0.000219575928164136,17.4003226277704
0.000655836734232895,17.4019620746942
0.000996835714019219,17.4036532227946
0.00125828152850613,17.40541453469
0.00145452898665479,17.4072688781498
0.00159915635625656,17.4092472421485
0.00170543777101508,17.4113944481856
0.00178709542639395,17.4137814757518
0.00185989951058389,17.4165375880195
0.00194692239753496,17.4199687509844
0.0020578485909775,17.4237327387141
0.00220612196380083,17.4278657755441
0.00237863294821064,17.4319939654596
0.00255738350790363,17.435889142659
0.00274100659928639,17.439687172631
0.00292917590470343,17.4434673509836
0.00312245734855378,17.4472818007245
0.00332222487531096,17.4511702821414
0.00353051326445448,17.4551666087459
0.00374988837421138,17.4593019686854
0.00398336488581792,17.4636070508574
0.00423438433479506,17.4681135222576
0.00450690184795646,17.4728554180791
0.00480564241084451,17.4778705651527
0.0051365973753196,17.4832017733969
0.00548503745301415,17.4885522095871
0.00584629398143843,17.4938109712813
0.00622389951256721,17.4989910794794
0.00662039451920454,17.5040836584589
0.0070399971919516,17.5090978079191
0.0074872221872142,17.5140405015395
0.00796705578354834,17.5189183332643
0.00848484602448466,17.5237354218509
0.00904640343107585,17.5284937716409
0.00965808951290036,17.5331934511666
0.0103269521830207,17.5378332183021
0.0110722437432885,17.5424786417633
0.0119119019339671,17.5471541902769
0.0128649597856813,17.5518672717645
0.0139586353808517,17.5566432613707
0.0152350494315946,17.5615394131856
0.0167740254272313,17.5666995957616
0.018798534965624,17.5726005803428
0.0206264031107013,17.5773517344189
0.0225813798337862,17.582102888495
0.0241773445277578,17.5859316473072
0.0254943976384373,17.5892364890513
0.0265982363774454,17.5923132561523
0.0274909250296377,17.59531041071
0.0281132220394877,17.5981557363699
0.0284681621062831,17.6009690622919
0.028533271455324,17.6038946494963
0.0282249397327354,17.6072004804751
0.0272412303598371,17.611566179469
0.0263500947972843,17.6142775570728
0.0252917440200403,17.6169889346766
0.0242188543526529,17.6194552846049
0.0231450941388159,17.6217681753474
0.0220705164785384,17.6239962528935
0.0209977675399924,17.6261775874313
0.019930456755065,17.6283359972682
0.0188722711462249,17.6304881610778
0.0178267051609505,17.6326467430337
0.0167969874260832,17.6348219727176
0.0157860673724252,17.6370225449541
0.0147966198867786,17.6392561822159
0.0138310582476795,17.6415300064903
0.0128915431628735,17.6438508164291
0.01197999413944,17.6462252968376
0.0110981016598566,17.6486601878955
0.0102473312146581,17.6511624562372
0.00942893929890803,17.6537394256752
0.00864397603473049,17.6563989485563
0.00787740933699557,17.6592102645586
0.00712622969358664,17.6622150193165
0.00639424258972243,17.6654363203017
0.00568537531966771,17.6689012006716
0.00500373640741571,17.6726409604271
0.00435355671960077,17.6766920136877
0.00373908916626881,17.6810970783748
0.00316444310927372,17.6859071219463
0.00263336082502658,17.6911846665781
0.00214890697164794,17.6970102255086
0.00171334445017344,17.7034912196974
0.00133714672369649,17.7105823472538
0.00109005320532644,17.7164346155753
0.000901570354858534,17.7222868838968
0.000701063607935654,17.7306527691295
0.000550140224868095,17.7393522783188
0.000431313956929905,17.7489048746572
0.000345640866088297,17.7589048746572
0.000288779736085897,17.7689048746572
0.000252601088485729,17.7789048746572
0.000231191056365377,17.7889048746572
0.000220386386844636,17.7989048746572
0.000217376836936416,17.8089048746572
0.000220341012077095,17.8189048746572
0.000228157062204701,17.8289048746572
0.000240203845076411,17.8389048746572
0.000256240021353479,17.8489048746572
0.0002763408667554,17.8589048746572
0.000300878126696194,17.8689048746572
0.000330537477273831,17.8789048746572
0.000366377184272294,17.8889048746572
0.000409941156977861,17.8989048746572
0.000463453239629413,17.9089048746572
0.000524986438293286,17.9181967444077
0.000595112176317972,17.9267699898416
0.000674912080702767,17.9346790676862
0.000765684192181103,17.9419767126807
0.000868921075073968,17.9487117329072
0.000986319127726832,17.9549292969296
0.00111980129345221,17.9606712577154
0.00127154633111414,17.9659764287528
0.00144402353498657,17.9708808230972
0.00164003185723224,17.9754178774663
0.00186274801378641,17.9796186647057
0.00211578270421718,17.9835120934589
0.00240325043023649,17.9871250965197
0.00272985614708614,17.9904828219525
0.00310100581073713,17.9936088337014
0.00352295182753908,17.9965253239748
0.00400298748527054,17.9992533516759
0.00454971856019713,18.0018131313099
0.00517345689546725,18.0042244045687
0.00588308488573508,18.006496066116
0.00666819622743634,18.0085901863352
0.00753931680290365,18.0105428759654
0.00851272956468867,18.0123912397732
0.00961459092053894,18.0141763717175
0.010893602966451,18.0159552009304
0.0125046044027555,18.0178830775487
0.0144158715666042,18.0198704367128
0.015984841862607,18.0213483099386
0.0176412402363632,18.0228261831644
0.0191239980988366,18.0241281727011
0.0204441801197239,18.025316753014
0.0216255221829913,18.0264547555104
0.0226654318100365,18.0275842983384
0.0235442783803243,18.0287450523618
0.0242232528424506,18.0299903588524
0.0246232519572242,18.0314248438419
0.0244779641982203,18.0334483895495
0.0238372128293583,18.0350293824532
0.0228272084526125,18.0366103753569
0.0216747161518519,18.0380435818451
0.0203852474877588,18.0394613870111
0.0189665337473825,18.0409203043798
0.0174280088948562,18.0424579634618
0.0164741444161165,18.0434095066454
0.0155421329744206,18.044361049829
0.0140221511393736,18.0460086321617
0.0116069558498253,18.0489417961367
0.00961809050746275,18.051757911171
0.00804342096399012,18.0543559797843
0.00673964652163741,18.0568529578385
0.00559978166668082,18.0593910741411
0.00459783942636491,18.0619995270099
0.0037394671878871,18.0646224720511
0.00304507361544375,18.0671043688007
0.00247444858416153,18.0694696474909
0.00199607194023819,18.0717523465686
0.00158530842052134,18.0739963376133
0.00122094562794965,18.0762689910082
0.000879298627395053,18.0787080412348
0.000499653100593227,18.0818726353119
0.000304533260361141,18.0837353193608
0.000127236481760799,18.0855980034097
-2.0695996086258e-05,18.0872958615985
-0.000150395526605218,18.088907038625
-0.000271899023281035,18.0905330828213
-0.000392928135514138,18.092277813696
-0.00052395324441492,18.0943233158288
-0.000699319620585413,18.0973486208832
-0.000881165409360033,18.100884829731
-0.00101901027277396,18.103878618237
-0.00114393005025935,18.1068599431546
-0.00127475241632923,18.1102999449009
-0.00142373913810797,18.1147110208956
-0.00158391572523223,18.1203831892927
-0.00168393147560874,18.1252765411515
-0.00172780270906962,18.1297211210767
-0.00170749291373685,18.1337166998682
-0.00161575451016268,18.1373157990346
-0.00144626812614782,18.140565768014
-0.00119300564695337,18.1435254668821
-0.000849010822906315,18.146253738331
-0.000404029806588875,18.1488122743437
0.000159788975949797,18.1512708085502
0.000879135671817073,18.1537269689888
0.00181731593619236,18.1562939166697
0.00313009957945008,18.1592159026977
0.00479050208311237,18.1622866188375
0.00629223548466502,18.1646900007334
0.00799181129119272,18.1670933826292
0.00960172470533095,18.1691039495321
0.0111806207178367,18.1708503888876
0.0128617309339871,18.1724924133402
0.0146565669794261,18.1740310988445
0.0166309753702075,18.1755088748109
0.0188067225726824,18.1769237305136
0.0212281752600503,18.1782871088895
0.0239228196213532,18.1795975036481
0.0269344388861828,18.1808605661768
0.0303010234867126,18.1820771792931
0.0340694133422931,18.1832502065518
0.0382946366203463,18.1843830552303
0.0430380468257631,18.1854786335385
0.0483693576907966,18.1865396967911
0.054375704016505,18.1875701419012
0.0611591524759132,18.1885736587525
0.0688424114170209,18.1895541249998
0.0775755517810962,18.1905157770251
0.087544983782364,18.191463346286
0.0989857869265159,18.1924022083131
0.112205212099702,18.1933389928337
0.127613254051643,18.1942819177368
0.145782036192013,18.1952419602855
0.167332314430968,18.1962253985852
0.192294677691137,18.1972125435914
0.221331180339063,18.1982140882231
0.255336490670842,18.1992454259553
0.295661506488706,18.2003325897563
0.342202627886559,18.2014702820565
0.381950967110032,18.2023889517612
0.415172064390201,18.2031508239022
0.444025414140899,18.2038353470389
0.469219081674185,18.2044815394265
0.490787411880815,18.2051143659035
0.508340481765786,18.2057559372563
0.520982860995126,18.2064323708847
0.526854707155687,18.2071851199573
0.522751027804675,18.2079917381853
0.507024215127685,18.2088216983039
0.478248913457961,18.2096906635456
0.434614356742668,18.2106097784776
0.374151137646536,18.2115876226019
0.330651223609113,18.2121869921493
0.283169883121521,18.2127863616967
0.240799870386936,18.2132940956587
0.204222665464901,18.2137244467298
0.171936992497458,18.2141067139399
0.14293945493066,18.2144589140088
0.116606869229408,18.2147924796384
0.0924991074500412,18.2151159490442
0.0702455881238222,18.2154372017425
0.0494410391246841,18.2157659468513
0.0294011255526003,18.2161202907163
0.00750092595838505,18.2165721107336
-0.00101862519352232,18.2167747170276
-0.00877010550617086,18.2169773233215
-0.0151633425724734,18.2171610145265
-0.0211504598625322,18.2173502348684
-0.0271315812732729,18.2175604363576
-0.0328737975069691,18.2177882344794
-0.0382316174427023,18.2180316809684
-0.0431250215770794,18.2182901597799
-0.0475130763306682,18.2185639440232
-0.0513772150376604,18.2188539537228
-0.0549495050091689,18.219187487618
-0.057678372177462,18.219513930003
-0.0598919578006716,18.2198620790025
-0.0616074898903417,18.2202353789564
-0.0628393593049572,18.2206376276187
-0.0636009729765998,18.2210735200859
-0.0639032436228596,18.2215489286766
-0.0637528508614751,18.2220713185868
-0.0631495286763173,18.2226507339583
-0.0620805170247783,18.2233015727135
-0.060516438702303,18.2240431342082
-0.0583979245118455,18.2249052294186
-0.0555987566618763,18.2259412972773
-0.0517701828310555,18.2272835777341
-0.0477301701476028,18.2286704353285
-0.0438362711255445,18.2300128830602
-0.0401310585913085,18.2313149101499
-0.036635305269192,18.2325784866143
-0.0333594050245855,18.2338042951181
-0.0303074326972597,18.2349923691092
-0.0274790500667742,18.2361424333432
-0.024870591895636,18.2372540827906
-0.022475813509309,18.2383268737736
-0.0202864858278359,18.2393603651755
-0.0182929080237541,18.2403541295694
-0.0164843627619674,18.241307745017
-0.0148495205167423,18.2422207734369
-0.01329042795029,18.243145528088
-0.0117920222136,18.2440941030541
-0.010358517653875,18.2450682925269
-0.00899380498875401,18.2460702972912
-0.00770156367693283,18.2471027070887
-0.00648521036865294,18.2481685987025
-0.00534784620658577,18.2492716650657
-0.00429220177238724,18.2504163901467
-0.003320579473391,18.2516082916312
-0.0024347926516123,18.2528542673933
-0.00163609984722128,18.2541631071937
-0.000925131116502191,18.2555462801036
-0.000301800352045579,18.2570192096389
0.000234808744669814,18.2586034778448
0.000666890119994478,18.260244450886
0.00100432770290141,18.2619378178159
0.00126274273706921,18.2637020786239
0.00145644984244434,18.2655603359346
0.00159899957106649,18.2675439590507
0.0017036561468414,18.2696984462621
0.00178416323987425,18.2720961387292
0.00185639244424195,18.2748696606417
0.00194386825052415,18.2783374647926
0.00205498057325605,18.2821070278575
0.0022041792916635,18.2862619660891
0.00237790188187832,18.2904195485888
0.00255693874779097,18.2943271838164
0.00274021393467769,18.2981291787687
0.0029276093872509,18.3019082498085
0.00311982358541135,18.305717977478
0.00331831038940611,18.3095988136063
0.00352514532052007,18.3135849015008
0.0037429050146658,18.3177075438884
0.00397459292008361,18.3219974075945
0.00422362156196224,18.32648603155
0.0044938968168669,18.3312072068764
0.00479006523356105,18.336198412223
0.00511799132450924,18.3415020079512
0.00546583182328509,18.3468660719403
0.00582563378929557,18.3521266115049
0.00620197042571527,18.3573135848829
0.00659689320784187,18.3624114103085
0.0070146918091401,18.367430659992
0.00745980707963611,18.3723777913714
0.00793721232055461,18.3772596861741
0.00845222578305628,18.3820805876291
0.00901062793652431,18.3868426647515
0.0096187415369254,18.3915461043832
0.0102835662017796,18.3961897343567
0.0110231222844693,18.4008326289692
0.011856147965868,18.4055063675684
0.0128011145325054,18.4102164490655
0.0138846437403926,18.4149871955824
0.0151474803471107,18.4198727588845
0.0166655968816794,18.4250080991312
0.0186435864808946,18.4308271811897
0.0205108795460872,18.4357137669537
0.0220913196224156,18.4395802544333
0.0237073637241357,18.443446741913
0.0250958515149544,18.4468602829689
0.0262655468205418,18.4499889033439
0.0272299260320053,18.4530052830037
0.0279392140146416,18.4558859645404
0.0283825949822902,18.4586956932817
0.0285475343663535,18.4615649124545
0.0283786419385679,18.4646974185611
0.0276404743274325,18.4687483588466
0.0267908150075285,18.4716612185264
0.0257260539235999,18.4745740782062
0.024649092164132,18.4771435622072
0.023575412303365,18.47950805386
0.0225009116559536,18.4817643815296
0.0214270014341868,18.4839610327326
0.0203570508089973,18.4861263427921
0.0192947668114464,18.4882793366109
0.0182437356143741,18.4904340385673
0.0172072954343469,18.4926015182127
0.0161885074441447,18.4947910030946
0.0151901548392335,18.4970105527045
0.0142147541650484,18.499267492458
0.0132645658450162,18.5015687227206
0.0123416041206208,18.5039209530263
0.011447650951737,18.5063308798236
0.0105842595101747,18.5088053647643
0.00975276969979452,18.5113515691794
0.00895431210613093,18.5139771190391
0.00818268265346722,18.5167166262115
0.00742488543550632,18.5196415337681
0.00668477129035444,18.522773212133
0.00596618256557862,18.5261371914203
0.00527316102960662,18.5297629759464
0.00460989839253387,18.5336848160946
0.00398065471263302,18.5379427318382
0.00338962190578814,18.5425840834217
0.00284072198902083,18.5476662231442
0.00233731718497334,18.5532615747723
0.00188199685482819,18.559465545475
0.001479190091267,18.5663565535858
0.00114130249102465,18.5737815034041
0.000874563653709358,18.5818809829377
0.000709845214749012,18.5888933082092
0.000552398207610263,18.5978883586441
0.00043672395175762,18.6071295797176
0.000349768573035008,18.6171295797176
0.000291998693009785,18.6271295797176
0.000255217918506295,18.6371295797176
0.000233446238991818,18.6471295797176
0.000222458737738769,18.6571295797176
0.00021939773584753,18.6671295797176
0.000222411088146185,18.6771295797176
0.000230360092660704,18.6871295797176
0.000242616933715639,18.6971295797176
0.00025894131519994,18.7071295797176
0.000279416451631653,18.7171295797176
0.00030442949720857,18.7271295797176
0.000334690866325674,18.7371295797176
0.000371296345772187,18.7471295797176
0.000415846066043483,18.7571295797176
0.000470461532518925,18.7670981186532
0.000533020202706758,18.7763206361185
0.000604294603599311,18.7848279838631
0.000685397411776755,18.7926759428653
0.000777650000392624,18.7999170079371
0.000882569183672147,18.8065997073698
0.00100187829405878,18.8127689480498
0.00113753073812759,18.8184663391003
0.00129173998002328,18.8237304657638
0.00146701483808865,18.8285971281414
0.00166619957058179,18.8330995655176
0.00189252300918125,18.8372686691793
0.00214965645283711,18.8411331818561
0.00244178521016229,18.844719886891
0.00277369831301514,18.8480538014216
0.00315090284340659,18.851158379675
0.00357977507780234,18.8540557289762
0.00406776363230008,18.8567668548281
0.00462367441360662,18.8593119605488
0.00525808634533031,18.8617108364494
0.00597679477995459,18.8639628612839
0.00677219880835316,18.8660418439094
0.00765549265218696,18.867984097536
0.00864399824171746,18.8698271142524
0.00976603711796013,18.8716135059658
0.0110759380982812,18.8734049502347
0.012762478854553,18.8753888174965
0.0145413515745809,18.8772200672582
0.016503043673115,18.87905131702
0.018153157408486,18.8805167498122
0.019570329288263,18.8817736456984
0.0208346693583511,18.8829408755741
0.0219617059887961,18.8840739373949
0.0229422198491505,18.8852124608991
0.0237505026433728,18.8863989445967
0.0243374033970216,18.8876983772728
0.0245919391365129,18.8892627303619
0.0242560658421529,18.8911416347284
0.0233146179969186,18.8930205390949
0.0222193575712261,18.8945325971312
0.0209999149392585,18.8959531184569
0.0196490043191735,18.8973874048867
0.0181745410102084,18.898881045418
0.0165842791584154,18.9004709853741
0.0149133445588638,18.902201776271
0.0134557739208664,18.9038335260708
0.0111697570901472,18.9067012308576
0.00928109208238704,18.9094597463569
0.00777317085430524,18.9120222366844
0.0065041108871573,18.9145250274519
0.00539283552181049,18.917075561836
0.00441550049377474,18.919701118823
0.0035955546500786,18.9222850467039
0.0029293445986971,18.924734963819
0.00237880845277147,18.9270782728486
0.00191426386417642,18.9293513914827
0.00151195031124766,18.9316039085229
0.00115018672069027,18.9339183543041
0.000799939567024349,18.9364936245877
0.000528124649332395,18.9387802885791
0.00028751803825166,18.9410669525705
0.00010893377003901,18.9429567288784
-3.54469759336384e-05,18.9446251079882
-0.0001643624779148,18.946235704891
-0.00028717381895813,18.9478890819075
-0.000411919371945765,18.9497011520479
-0.00055195355004266,18.9519133914466
-0.000782704250161639,18.9560303421331
-0.000971125476144733,18.9599059026599
-0.00111294762146728,18.9631851114441
-0.00124753996157657,18.9666368778551
-0.00139624696860804,18.9709266104737
-0.00156420317133425,18.9766875618323
-0.00167031617419465,18.9816259228142
-0.00172097328706451,18.9861202839503
-0.00170808565162376,18.9901638440342
-0.00162443146391303,18.9938035303264
-0.00146341005390914,18.9970928523008
-0.00121920515333945,19.0000841034403
-0.000885172513750369,19.0028364223316
-0.000451349178495245,19.0054130870915
9.90262121393368e-05,19.0078822720142
0.000795967351609767,19.0103248966335
0.00170527513820599,19.0128749297116
0.0029859126748755,19.015788957983
0.00460807623762737,19.0188468863956
0.00614482550596712,19.0213440917601
0.00752247475707166,19.0233398186942
0.00906051100522941,19.0253355456283
0.0106506852839708,19.0271683075754
0.0122779702319347,19.0288265886648
0.0140302538661508,19.030397705594
0.0159464022874555,19.031899967769
0.0180489934348183,19.0333341308014
0.0203863233663323,19.0347159969168
0.0229836829541665,19.0360432354973
0.0258853391752786,19.0373225745768
0.0291267720566934,19.0385543258823
0.0327544073587748,19.0397418579667
0.0368202460217617,19.040888269234
0.0413825580587524,19.041996363945
0.0465066975970837,19.0430686871092
0.0522761043521587,19.044109316765
0.0587865725895709,19.0451217939536
0.0661532045997583,19.0461099017152
0.074516162572508,19.0470777523114
0.0840481184485659,19.0480298526864
0.0949666524068093,19.0489713906014
0.107552799919891,19.0499085815209
0.122177773464683,19.0508490250232
0.139351982178457,19.0518026607294
0.159815889259543,19.0527835036633
0.183581761248068,19.0537690566274
0.211183657980034,19.0547652212442
0.243427744068968,19.055785588266
0.281474634866994,19.0568516372665
0.326409333896542,19.0579839813474
0.368965390894507,19.0589827040207
0.404028310740202,19.0597866974934
0.434203949663901,19.0604926300682
0.460586390789154,19.0611494393218
0.483383961527653,19.0617850333574
0.502346357081103,19.0624216810973
0.51677639714555,19.0630832500001
0.525239654391938,19.0638037949687
0.524786178967403,19.064607127051
0.513089667808884,19.0654276844845
0.488884513290682,19.0662823121595
0.450473092573374,19.0671836502656
0.395923039336642,19.0681404334767
0.350503938984067,19.0688025858209
0.299723328369283,19.0694647381651
0.254601510227819,19.0700137164624
0.216183670586654,19.0704676102389
0.182579414388793,19.0708640698332
0.152551964195863,19.0712252136246
0.125372930168326,19.0715642455025
0.100555498321309,19.0718904097891
0.0777163303315207,19.0722115821425
0.0564778902899452,19.0725364456489
0.0363057207471361,19.0728787645685
0.0157803002009554,19.0732772500302
0.00797564396623415,19.0734475270834
0.00073395874667822,19.0736178041367
-0.00720145213013211,19.0738211999781
-0.0138097389410226,19.0740073545768
-0.0197482809376942,19.0741910620253
-0.0257511921128874,19.0743968100224
-0.0315624245683364,19.0746208769473
-0.0370158988127416,19.0748609094535
-0.0420193228247574,19.0751160301778
-0.0465244530504556,19.0753863344932
-0.0505094733910219,19.0756726069123
-0.0541626503346267,19.0759964954565
-0.0570191622516362,19.0763178959224
-0.0593578755697398,19.0766604034322
-0.0611951235792168,19.0770272398542
-0.0625452808354246,19.0774220093881
-0.0634221237076287,19.077849160797
-0.063837328600711,19.0783142405727
-0.0637988083096345,19.0788242667842
-0.0633086221089332,19.0793883095488
-0.0623572883903583,19.0800199605145
-0.0609204131769074,19.0807367919723
-0.0589481843825099,19.0815652582746
-0.0563375618664657,19.0825506057416
-0.052830380050849,19.0837930396114
-0.0487637065205245,19.0851932889295
-0.0448266522468897,19.0865469814531
-0.0410700437511658,19.0878593351859
-0.0375186613521577,19.0891328518686
-0.0341851039549245,19.0903684844406
-0.0310748733742236,19.0915664006214
-0.0281886629928351,19.0927263877472
-0.0255235964620682,19.0938480658015
-0.0230740405538808,19.0949309973699
-0.0208322312525632,19.0959747397804
-0.0187888049802042,19.096978862969
-0.0169332679958591,19.0979429457157
-0.015254413961485,19.0988665571966
-0.0136806261712455,19.0997853688674
-0.012166208636018,19.1007277049577
-0.0107156683657154,19.1016951440572
-0.00933294066397528,19.1026898012067
-0.00802176406216843,19.1037141581766
-0.00678562734269371,19.104771156271
-0.00562771744855875,19.105864316192
-0.00455086503435789,19.1069978995071
-0.00355748754141416,19.1081771312454
-0.00264952923878944,19.1094085152437
-0.00182839692059958,19.1107002955727
-0.00109488864240855,19.112063158596
-0.000449110400203024,19.1135113538337
0.000109629488881501,19.1150645960984
0.000569131743351325,19.1166951574811
0.000929509096310368,19.1183732764285
0.00120700384655469,19.120117268757
0.00141618755652336,19.1219486523972
0.00157077111219436,19.1238962551549
0.00168403885456944,19.1260010997198
0.00176951172949412,19.1283266651255
0.00184225556688996,19.1309842945483
0.00192270383677449,19.1342179496299
0.00202764579159893,19.137958274147
0.0021649888138873,19.1419736815785
0.00233512475395999,19.1461839699833
0.00251200529897662,19.1501169970394
0.00269397835866348,19.1539283434882
0.00288051145152353,19.1577073889212
0.00307195427084901,19.1615105314636
0.00326949760399803,19.1653795568203
0.00347502770405896,19.1693492501523
0.00369098803376713,19.1734511760949
0.00392028415685908,19.1777159989556
0.00416624445135102,19.1821750626804
0.00443267587341816,19.1868617651029
0.00472407564619766,19.1918130003078
0.00504606184890743,19.1970703802658
0.00539227409701845,19.2024681434623
0.00574846196660298,19.2077384130011
0.00612127697191421,19.2129453614833
0.00651177191374339,19.2180594264111
0.00692436855704442,19.223094281942
0.00736334351643535,19.2280554745282
0.00783360769676971,19.2329505027622
0.00834037880508949,19.2377839424178
0.00888932741468686,19.2425583672481
0.00948664207772737,19.2472742737224
0.0101391613054539,19.2519306832207
0.0108610091187732,19.2565654949557
0.011673510333406,19.2612337523031
0.0125933762396357,19.2659347638089
0.0136454737307386,19.2706899305417
0.0148665707706333,19.2755445016655
0.016321990374424,19.2806088376888
0.0181703637158962,19.2862098881074
0.020588961832424,19.2926124462591
0.0221439302939248,19.2964097959453
0.023731132072564,19.3002071456315
0.0251142038599747,19.3036103218028
0.0262807089630126,19.3067359256949
0.0272419306288578,19.3097516617539
0.0279471515497017,19.312630434524
0.0283864493716184,19.3154400423431
0.0285468760702456,19.3183114380732
0.0283719851128516,19.3214506911821
0.0276191403243399,19.3255318474704
0.0267671241167068,19.3284316421718
0.0257031091232607,19.3313314368733
0.0246265253350778,19.3338947212104
0.0235528745114754,19.3362562849192
0.0224783699770928,19.3385110544659
0.021404510516699,19.3407068736474
0.0203346827456799,19.3428718149
0.0192725940804489,19.345024770814
0.0182218259393256,19.3471796917334
0.0171857112901508,19.3493476013519
0.0161673048980637,19.3515377006824
0.0151693843785923,19.3537580323442
0.0141944611281512,19.3560159120719
0.0132447893457681,19.3583182394573
0.0123223795369317,19.3606717226152
0.0114290079304541,19.3630830662274
0.0105662224518905,19.3655591440193
0.00973535968145239,19.368107128728
0.00893754562603409,19.3707346664588
0.00816617813531004,19.3734778984423
0.00740872181467067,19.3764069493247
0.0066690257214877,19.3795432765529
0.00595093787862336,19.3829124816533
0.00525850136082892,19.3865441716665
0.00459591092424063,19.3904727045462
0.0039674266391346,19.3947382375877
0.0033772367159565,19.3993883119113
0.00282925475739087,19.4044805324959
0.00232682793238945,19.4100877172297
0.00187252786941762,19.4163058648308
0.00147112464504083,19.42320704327
0.00113449097474562,19.4306441577213
0.000864580435652959,19.4389480791162
0.000703953836185649,19.4458853982973
0.000546374686587029,19.4550038676227
0.000432470358317543,19.4642492279902
0.000346947489231041,19.4742492279902
0.000290199946406041,19.4842492279902
0.000254142264699499,19.4942492279902
0.00023287604559548,19.5042492279902
0.000222240273249581,19.5142492279902
0.000219425281763862,19.5242492279902
0.000222612982755894,19.5342492279902
0.000230688014263093,19.5442492279902
0.00024303854591246,19.5542492279902
0.000259435553590973,19.5642492279902
0.000279970616306847,19.5742492279902
0.00030503756068072,19.5842492279902
0.000335352698140667,19.5942492279902
0.000372017787971823,19.6042492279902
0.000416639996752655,19.6142492279902
0.000471260413384289,19.6242027514711
0.0005338120585482,19.6334113082982
0.000605071347225514,19.6419061885913
0.000686151495770481,19.6497430114605
0.000778373365257281,19.6569741114572
0.000883252716323464,19.6636478776159
0.00100251153471442,19.6698090953572
0.00113810161892248,19.6754992668497
0.00129223454837735,19.680756882278
0.00146741689136417,19.6856176568333
0.00166649025470125,19.6901147535315
0.00189268027419226,19.6942789946824
0.00214965442006088,19.6981390600259
0.00244159329670492,19.7017216748742
0.00277328013041826,19.7050518023099
0.0031502146877874,19.7081528453264
0.00357876380609617,19.7110468614699
0.00406636364485356,19.7137548063051
0.00462180311526841,19.7162968307312
0.00525563704759033,19.7186926665766
0.00597383368240186,19.7209422261363
0.0067685835077855,19.7230185890084
0.00765098890921728,19.7249579336008
0.00863821111550405,19.7267975565499
0.00975822277399318,19.728579672898
0.0110644035354766,19.7303649436596
0.0127405420351575,19.73233559877
0.0145425406749284,19.7341876592383
0.0161059610869449,19.7356535819321
0.0177514115887824,19.7371195046259
0.0192192623490113,19.7384105519556
0.0205276634518425,19.7395941325183
0.0216978349016738,19.7407307219133
0.0227256983102298,19.7418617192057
0.0235904075569779,19.7430272111306
0.0242512572197221,19.7442825318781
0.0246238886241926,19.7457398873004
0.0243987421421725,19.7478701687227
0.0237158870830313,19.7494213397292
0.0226896058386969,19.7509725107357
0.0215219974962124,19.7523996017413
0.0202178271752059,19.7538202336416
0.018785677617213,19.7552865919265
0.0172347501792288,19.7568357605155
0.0162486971991374,19.7578214957111
0.0152935912199513,19.7588072309067
0.0129619563517409,19.7614283599573
0.010691206847665,19.7643714791551
0.00889692358771324,19.767087698959
0.00746203973528684,19.7696129839487
0.00623297999998751,19.7721234620939
0.00515514229568354,19.7746890765355
0.00420684534055527,19.777335206681
0.00342367184848769,19.7798994708212
0.00278610328431416,19.7823327345056
0.00225770608817222,19.7846644437422
0.00181021540899457,19.7869327174542
0.00142070600781008,19.7891908705875
0.00106756425049004,19.7915309761009
0.000718595037073981,19.7941948446292
0.00046979004900795,19.7963643663978
0.000247967567702744,19.7985338881664
7.71089803563917e-05,19.8003856403186
-6.34067826031813e-05,19.8020456862447
-0.000189798902066479,19.8036589422051
-0.000310908655271815,19.8053242747693
-0.000434817974428789,19.8071630025369
-0.000575970716962137,19.8094434911175
-0.000814371470060606,19.8138120894337
-0.00100746995651826,19.8179162908257
-0.00115393436819966,19.8214354884865
-0.00129357447153046,19.825184078533
-0.0014514506950736,19.830025469732
-0.00159713691944979,19.8354924387557
-0.00168551020585084,19.8402945115976
-0.00171605824310715,19.844643855081
-0.00168095461197855,19.8485569826061
-0.00157302610126278,19.8520841656261
-0.00138602258410722,19.8552751861542
-0.00111403738663969,19.8581860212075
-0.000749505538513762,19.8608782191837
-0.000280800155444255,19.8634152707441
0.000312361198607628,19.8658688757154
0.0010663851004179,19.8683258796773
0.00206583913258934,19.8709460918297
0.00344200589084924,19.8738932383047
0.00517136591020628,19.8769839636331
0.00661807717821289,19.8792320143721
0.00824627796875227,19.8814800651111
0.00981317057105744,19.8833966766476
0.0114415184806109,19.885160895516
0.0131197558937529,19.8867642114708
0.0149500291205941,19.8882987614364
0.0169639014876729,19.8897715301439
0.019177709322375,19.8911773790093
0.0216431145475806,19.892532699357
0.0243860340226284,19.8938349454872
0.0274519773797652,19.8950903105795
0.0308825846998463,19.8963006908683
0.0347206018184059,19.8974671307025
0.0390249216733559,19.8985939852812
0.0438586579526979,19.8996842025407
0.0492957673841901,19.9007409732252
0.0554220939748138,19.901767438821
0.0623439630112195,19.9027675748985
0.0701886862878128,19.9037453889328
0.0791119281216778,19.904705203214
0.0893077495465733,19.9056518783042
0.101022967233812,19.9065910547192
0.114578919203392,19.9075295074985
0.130410526358772,19.9084759652729
0.149130363915941,19.9094421946608
0.171211051157821,19.9104269591293
0.196806065432316,19.9114172866873
0.226612512320604,19.9124246297805
0.261586143733816,19.9134658170491
0.303222460169879,19.9145706218324
0.33933795714238,19.9154516890395
0.377205328685999,19.9163327562466
0.410719369704979,19.9171039636146
0.439937345280618,19.9177963521709
0.465474912904395,19.918447165303
0.487407524525442,19.9190819310855
0.505391239754295,19.9197226841619
0.518602439921299,19.9203945757629
0.52534680098826,19.9211359389704
0.522482426738788,19.9219421024072
0.50814780422602,19.9227692921839
0.480976598128036,19.9236335230131
0.439203905036801,19.9245463845034
0.380884464287907,19.9255164101703
0.33684648648769,19.9261354860201
0.288406020136133,19.9267545618699
0.245225189752036,19.9272754921286
0.208099966014355,19.9277135996534
0.175417991597226,19.9281006809155
0.146109092816085,19.9284559942587
0.119519987953433,19.9287915150877
0.0951977348936542,19.9291159901656
0.0727698827151549,19.9294372638433
0.051844406686775,19.9297646188399
0.0318012666357119,19.9301143543523
0.0105887726635551,19.9305426929811
0.000686059664846412,19.9307727599484
-0.00822088615219317,19.9310028269156
-0.014732578817028,19.9311889759687
-0.0207047776251423,19.9313767516385
-0.0266899878743064,19.9315857842832
-0.0324502294650098,19.9318126353664
-0.0378340608972376,19.9320552352571
-0.0427578967192917,19.9323128890794
-0.0471786761946912,19.9325858164703
-0.0510767389145931,19.9328748967487
-0.0546860638401329,19.9332072933219
-0.057448633724314,19.9335325470324
-0.0596952650550499,19.9338793243361
-0.0614431160145275,19.9342510258905
-0.0627065647091055,19.9346513941286
-0.063499113180059,19.9350850528307
-0.0638318845850109,19.9355577791352
-0.0637119100855897,19.9360769063744
-0.0631396125368167,19.9366521913994
-0.0621031884519773,19.9372977918054
-0.0605747905208747,19.9380324764585
-0.0584980499238268,19.9388850121756
-0.0557542502347322,19.9399062119121
-0.0520257235640554,19.9412173953438
-0.0479799486377889,19.9426077128938
-0.0440756777803467,19.9439530857173
-0.0403579496138116,19.9452577462647
-0.0368485936764415,19.946523819181
-0.0335585784931589,19.9477520682153
-0.0304923447554391,19.9489425686593
-0.0276498139005071,19.9500950662049
-0.0250275158787737,19.9512091656075
-0.022619355114661,19.952284427209
-0.0204172144935777,19.9533204112696
-0.0184114733642311,19.9543166910085
-0.0165914667183537,19.955272845647
-0.014945892982901,19.9561884396563
-0.0133830699534808,19.9571117681501
-0.0118806162039259,19.9580588439174
-0.0104428155423106,19.9590314093886
-0.00907356952893195,19.9600316444653
-0.00777657182943935,19.9610621125453
-0.00655525633451688,19.9621258572906
-0.0054127445875837,19.9632265294455
-0.00435179085439639,19.9643685583882
-0.00337472464302139,19.9655573898056
-0.00248338999063463,19.9667998243766
-0.0016790800067557,19.9681045168359
-0.000962463677786517,19.9694827418296
-0.000333499088025567,19.9709496298112
0.000208678817825529,19.9725262936619
0.00064754547392381,19.9741646731132
0.000990708758153245,19.9758542686876
0.00125393587067632,19.9776135186935
0.00145160561224566,19.9794651277809
0.00159731011921149,19.9814398215708
0.00170432251475828,19.983581954449
0.0017863375655187,19.9859615706698
0.00185903291180765,19.9887056444506
0.00194512261347193,19.9921117986862
0.0020552321571238,19.9958721477488
0.00220248581872724,20
