ecg,time
0.000298781951439778,15.0084141342055
0.000331978167680439,15.0184141342055
0.000371359056925388,15.0284141342055
0.000418655387845337,15.0384141342055
0.000475289254097747,15.0482563405878
0.00053950469889548,15.0573648943144
0.000612092125054049,15.0657734003541
0.000694115499677634,15.0735353225423
0.000786812652736863,15.0807011071217
0.000891593971739249,15.0873175747193
0.00101005817930121,15.0934281955742
0.0011440154775658,15.0990733598642
0.00129551634544247,15.1042905850226
0.00146688366800848,15.1091146942417
0.00166074896848337,15.1135780198969
0.00188009754145742,15.1177106165314
0.00212832098291985,15.1215404458636
0.00240927700712909,15.1250935238118
0.002727367816729,15.1283940949976
0.00308763514035787,15.1314648290888
0.00349588443720992,15.1343269941423
0.00395884517728247,15.1370006471359
0.00448438992353149,15.1395048743948
0.00508184275071488,15.1418580655091
0.00576242581339794,15.1440782700023
0.00651949074461865,15.1461330346113
0.00735456571148105,15.1480331018094
0.00827924737631737,15.1498110557977
0.00931080786003847,15.1514995619102
0.0104770155630358,15.1531354131059
0.0118324438287337,15.1547736502053
0.0135793244839751,15.156593118178
0.0156010739256624,15.1584256921867
0.0172910068370942,15.1598153403643
0.0190749257535249,15.161204988542
0.0206724042109175,15.1624294908961
0.0220992796503297,15.163550191183
0.0233811556751528,15.1646260711339
0.0245156374797082,15.1656972351234
0.0254823185001087,15.1668023861741
0.0262403015564889,15.1679950651465
0.0267044612999329,15.1693844314393
0.0265666726911206,15.171414133375
0.0259087692663887,15.1729084523586
0.0248821841289458,15.1744027713421
0.0236949713807408,15.1757818848896
0.0223537579704501,15.1771620910621
0.020867613080732,15.1785950893275
0.0192456239155887,15.1801186900786
0.0181488777980635,15.1811498179658
0.0170780530338957,15.1821809458529
0.0158575776414993,15.1834183015488
0.01451681162967,15.1848705806417
0.0132797094653854,15.1863149468367
0.0120828499838967,15.1878288421196
0.0108491114247087,15.1895375271496
0.00941215412036222,15.1917702700132
0.00803194971867632,15.1942440432633
0.0068414047684375,15.1967393512551
0.00584149762836779,15.1992021002288
0.00494311825264492,15.2018262267871
0.00416727536793613,15.2045539214408
0.00350325674101473,15.2074067895482
0.00294237958375615,15.2104109096922
0.00247877266917209,15.2135961673047
0.00211002222847141,15.216997912344
0.00183862318025411,15.2206592153072
0.00167501254900452,15.2246340638471
0.00164144974123289,15.2286792511302
0.00172913998768794,15.2322865055601
0.00191521896158101,15.2355337972474
0.00218752889222381,15.2384661884797
0.00254077256893657,15.2411320764043
0.00297533378481487,15.2435811370944
0.00349659181702127,15.2458608236058
0.00411778000014314,15.2480253245631
0.00486336610171275,15.2501356354948
0.00578040162180206,15.2522746762366
0.00696318415593242,15.2545701780026
0.00861567402286272,15.2572451563172
0.0106441771049819,15.2600037625132
0.0122127670797812,15.2618560222686
0.0139835067596473,15.263708282024
0.0157874021147488,15.2653682575389
0.0176702712788411,15.2668883314918
0.0197083814892338,15.2683251502434
0.021935353552884,15.2696890550971
0.0244042680322857,15.2709971961088
0.0271550628586328,15.2722539066148
0.0302336882747135,15.2734639422757
0.0336850213069804,15.2746294442982
0.0375630889642105,15.2757539360374
0.0419227170186978,15.2768392331212
0.0468322118803858,15.2778887631722
0.0523669108237312,15.2789052248259
0.0586160661450234,15.2798917202658
0.0656854774681364,15.2808515514622
0.0737004819005982,15.2817880773485
0.0828127479971749,15.28270494888
0.0932075145582153,15.2836061241316
0.105113564395743,15.2844959381831
0.118817982595905,15.2853792761963
0.13468845345213,15.286261855216
0.153205833496156,15.2871505593692
0.175020574073852,15.2880541963438
0.200823051034061,15.2889771946841
0.230677801752104,15.2899026348838
0.265332309362582,15.2908395882554
0.305816177957843,15.2918026829553
0.353843152772406,15.2928219255005
0.390844032713126,15.2935500289439
0.429108223763021,15.2942781323873
0.463093493301312,15.2949271954375
0.492911896244102,15.2955230782115
0.519075285428261,15.2960965174698
0.541524034050946,15.2966711110555
0.559700560553648,15.2972718259271
0.572292897372251,15.2979367468659
0.576053583355096,15.298687228795
0.568112444738117,15.2994603418095
0.547208702911471,15.3002774585329
0.511545732011035,15.3011533895511
0.462475478665014,15.3020411800106
0.398735201648383,15.3029636764157
0.349915514470449,15.3035766175971
0.296875867634966,15.3041895587784
0.250436165703771,15.3047009770492
0.211054500487297,15.3051282848557
0.176678218806326,15.3055047969262
0.146013371619184,15.3058502447266
0.1182916559255,15.3061767238402
0.0929883108615843,15.3064930854777
0.0696716614101029,15.3068074587414
0.0478734701751201,15.3071300028218
0.0267828211216867,15.3074804825382
0.00792930102752584,15.3078414044569
-0.00165064282785187,15.308049554442
-0.0103248825537219,15.308257704427
-0.0170101760451348,15.3084344222445
-0.0231281925409772,15.3086118826128
-0.0293110715836659,15.308810574232
-0.0352977497127247,15.3090269546806
-0.0409198590746585,15.3092588323689
-0.0460831637001949,15.309505399374
-0.0507381016949751,15.3097667706887
-0.0548621572218689,15.3100437239899
-0.0584494519874317,15.3103375740568
-0.0615043765472537,15.3106501303401
-0.0640294226234006,15.3109837118514
-0.0660171328310946,15.3113383292465
-0.0675033875735295,15.3117194709825
-0.0685067363136581,15.3121320645181
-0.0690398996926674,15.3125815557041
-0.0691117838919699,15.3130748465611
-0.0687253252524398,15.3136208852745
-0.067872411142315,15.3142327762519
-0.0665288412290342,15.314928138403
-0.0646441809562037,15.3157332722004
-0.062112832858845,15.3166933645401
-0.0586675608589063,15.3179093503735
-0.0545049682852324,15.3193275282245
-0.0504487225568011,15.3206998738949
-0.0465566672438449,15.322032311068
-0.0428587947834093,15.3233271792084
-0.0393714048145723,15.3245852723293
-0.0361030353473632,15.3258066089704
-0.0330570101454295,15.3269908393411
-0.0302327423594853,15.3281374604476
-0.0276265562053087,15.3292459280359
-0.0252323110477681,15.3303157109074
-0.0230419363007922,15.3313463111837
-0.0210459142271206,15.3323372631117
-0.0192337197706106,15.3332881173596
-0.0175942171388109,15.3341984146477
-0.016022679774323,15.3351242946904
-0.0145108979485214,15.3360740808475
-0.013062996059742,15.3370496133957
-0.0116828249550857,15.3380531100819
-0.0103740144909998,15.3390871831298
-0.00913991987915617,15.3401549384901
-0.0079835658226301,15.3412601070526
-0.00690758740009338,15.3424072226384
-0.00591416699902479,15.3436018693932
-0.00500496578548942,15.3448510356352
-0.00418104680215741,15.3461636375839
-0.00344278417477167,15.3475513274262
-0.00278974765851077,15.3490298062051
-0.00222054026390731,15.3506211029208
-0.00175572162355438,15.3522642971804
-0.00138340275976155,15.3539609969614
-0.00108782317486568,15.35572975647
-0.000854369397489831,15.3575940490617
-0.000669028991191217,15.3595858501824
-0.000517809246668728,15.3617517453577
-0.00038573696052192,15.3641662836183
-0.00025455351134399,15.3669676179016
-9.44535729899753e-05,15.3704953917261
8.91300993982802e-05,15.3742741913434
0.000313582882191798,15.3784645579135
0.000600066153862975,15.3834095991903
0.000890331924059932,15.3882313739512
0.00115930328471898,15.3926762500312
0.00141724790121687,15.3969899432282
0.00167828531778339,15.4014369103766
0.00196775403068762,15.4064684205017
0.00224694458256048,15.4113902515627
0.00252636645387535,15.4163517063574
0.00277912592285583,15.4208319409937
0.00300829065820355,15.4248646502149
0.0032295816226037,15.4287150894388
0.00345049156267643,15.432500677626
0.00367577037244813,15.4362881944846
0.00390920018218288,15.4401241524145
0.00415426964962372,15.4440456034975
0.00441449363561873,15.4480846429637
0.00469367230800774,15.4522715597347
0.0049960957478289,15.4566365579625
0.00532678308975721,15.461211043301
0.00569184018197567,15.4660288894197
0.00609903889425773,15.4711276467812
0.00652869714040568,15.476202087376
0.00698095417036566,15.4812181010709
0.00745879411944879,15.4861687773223
0.00796591786785424,15.4910474742871
0.00850756742133281,15.4958559721677
0.00908995349813227,15.500597446667
0.00972016352011433,15.5052749691275
0.0104060452455942,15.5098901217094
0.0111723167787891,15.514535947483
0.0120337179264297,15.5192092839236
0.013011475652782,15.5239250082118
0.0141347728934438,15.5287116231751
0.0154499890136613,15.5336355103865
0.0170488493383827,15.5388675623973
0.0192170214152064,15.5450303523952
0.0209526997531072,15.5494601750852
0.0227862628547781,15.5538899977752
0.0243321913873165,15.557609810947
0.0256203028832044,15.5608751714772
0.0266983638043098,15.563937738841
0.0275563918841388,15.5669098432488
0.0281454567030382,15.5697455650566
0.0284659455147962,15.5725652525138
0.0284907232075406,15.5755198602559
0.0281211322710723,15.5789137477132
0.0273401944817556,15.5823637735403
0.0262144943451282,15.5858137993674
0.0251150782819948,15.5885858094187
0.0240388637062535,15.591032531306
0.022964703444872,15.5933309773687
0.0218903056942007,15.5955506724685
0.0208183768111605,15.5977273399989
0.019752569536082,15.5998834801234
0.0186965660971508,15.6020350114402
0.0176538400998236,15.6041941083693
0.0166275967770354,15.6063706475529
0.0156207631874322,15.6085730424197
0.0146359930766846,15.6108087696832
0.0136756809057755,15.6130847142233
0.0127419683728037,15.6154074330155
0.0118367569594488,15.6177833452897
0.010961719233456,15.620218887234
0.0101183005644231,15.6227206721478
0.00930773462657666,15.6252956036479
0.0085309202907047,15.6279514713428
0.00776617605471876,15.6307831309832
0.00701735372467916,15.6338100788092
0.00628819641874531,15.637056039157
0.00558273396073687,15.6405483545212
0.00490509426093803,15.6443186756566
0.00425949528455396,15.6484038290384
0.00365015225780762,15.6528470669599
0.00308110649918193,15.6577000968009
0.00255597591985599,15.6630267795964
0.00207768222830214,15.6689095939437
0.00164833532143649,15.6754588242997
0.00127913499507409,15.6826083037173
0.000971204871083378,15.6903442615681
0.000717923336427136,15.6987929778865
0.000518012308557731,15.7081219671369
0.000374571433706231,15.7181219671369
0.000279805212545103,15.7277549645031
0.000210575849177838,15.7377549645031
0.000162353396293715,15.7477549645031
0.000129196233016374,15.7577549645031
0.000106810070077593,15.7677549645031
9.20148774811518e-05,15.7777549645031
8.25169078481806e-05,15.7877549645031
7.67182091782694e-05,15.7977549645031
7.35302608523937e-05,15.8077549645031
7.22164872363007e-05,15.8177549645031
7.22772764908656e-05,15.8277549645031
7.33732655724745e-05,15.8377549645031
7.52756813108982e-05,15.8477549645031
7.78336777240719e-05,15.8577549645031
8.09521446319351e-05,15.8677549645031
8.45763236038296e-05,15.8777549645031
8.86811745232606e-05,15.8877549645031
9.32641974203562e-05,15.8977549645031
9.83407938347649e-05,15.9077549645031
0.000103941500842002,15.9177549645031
0.000110110632015909,15.9277549645031
0.000116906026289763,15.9377549645031
0.000124399739267036,15.9477549645031
0.000132679618866238,15.9577549645031
0.000141851799967777,15.9677549645031
0.000152044244091244,15.9777549645031
0.0001634115535724,15.9877549645031
0.000176141420567181,15.9977549645031
0.000190463249789108,16.0077549645031
0.000206659750222151,16.0177549645031
0.000225082672425423,16.0277549645031
0.000246174451789176,16.0377549645031
0.000270498434554009,16.0477549645031
0.000298781838584299,16.0577549645031
0.000331978038319266,16.0677549645031
0.000371358906333781,16.0777549645031
0.000418655209483848,16.0877549645031
0.000475289056448786,16.0975971736207
0.000539504480261196,16.1067057299648
0.000612091882815516,16.1151142384108
0.000694115230691907,16.1228761628079
0.000786812353371375,16.1300419494146
0.000891593637840924,16.136658418873
0.00101005780612835,16.142769041435
0.00114401505970795,16.1484142072908
0.00129551587672107,16.1536314338848
0.00146688314138756,16.1584555444195
0.00166074837593014,16.1629188712796
0.0018800968738209,16.167051469017
0.00212832022975268,16.1708812993577
0.00240927615650661,16.1744343782273
0.00272736685500067,16.1777349502539
0.00308763405182814,16.1808056851109
0.00349588320377117,16.1836678508607
0.00395884377788094,16.1863415044854
0.00448438833344512,16.1888457323141
0.00508184094056199,16.1911989239395
0.00576242374762323,16.1934191288868
0.00651948846806513,16.1954738940848
0.00735456319876021,16.1973739617745
0.00827924458923051,16.199151916159
0.00931080474143698,16.2008404225723
0.0104770120172121,16.2024762739569
0.0118324394852069,16.2041145108728
0.013579318622875,16.2059339781565
0.0156010705464021,16.2077665550724
0.0172910034372541,16.2091562035261
0.019074922436686,16.2105458519799
0.0206724011052486,16.2117703546074
0.0220992766966807,16.2128910550489
0.0233811528648185,16.2139669350819
0.0245156348355839,16.2150380990957
0.0254823160715618,16.2161432501053
0.0262402994347555,16.2173359289311
0.0267044596936092,16.2187252948126
0.0265666724274672,16.2207549958665
0.0259087696925078,16.2222493153437
0.0248821848482154,16.2237436348209
0.0236949724053622,16.2251227484833
0.0223537593116412,16.226502954632
0.020867614737882,16.227935952797
0.0192456258946904,16.229459553375
0.0181488780706579,16.230490682923
0.0170780516572536,16.231521812471
0.0158575770599691,16.2327591674708
0.0145168130761163,16.2342114443971
0.0132797103223065,16.2356558112534
0.0120828475838964,16.2371697108336
0.0108491017998328,16.238878406824
0.00941212459813433,16.2411111849461
0.00803192405403931,16.2435849591164
0.00684138265731884,16.2460802680175
0.00584147694468858,16.2485430225423
0.00494310051363585,16.2511671512218
0.0041672603442336,16.2538948484004
0.00350324423148368,16.2567477195809
0.00294236945513932,16.259751843416
0.0024787648717448,16.262937105439
0.00211001682932529,16.2663388557523
0.00183862042527666,16.2700001650563
0.00167501299026564,16.2739750212925
0.00164145397734123,16.2780201922581
0.00172914722179685,16.2816274337266
0.00191522880178791,16.2848747138701
0.00218754116179627,16.2878070951666
0.00254078725893361,16.2904729748186
0.00297535102270361,16.2929220287923
0.00349661196432632,16.2952017104566
0.00411780368780719,16.2973662084817
0.00486339452821151,16.2994765189962
0.00578043712369086,16.3016155629998
0.00696323187186718,16.3039110746529
0.00861574513307351,16.3065860742777
0.0106442617795186,16.3093446819503
0.0122128505225596,16.3111969294551
0.013983588272323,16.3130491769599
0.0157874843427876,16.3147091440843
0.0176703581067338,16.3162292132717
0.0197084751563641,16.3176660285113
0.0219354559698537,16.3190299305289
0.0244043816894458,16.320338069399
0.0271551891571678,16.3215947777255
0.0302338295751657,16.3228048115154
0.0336851793995609,16.3239703116622
0.0375632662236148,16.3250948016547
0.0419229160476618,16.3261800971065
0.0468324356805517,16.3272296256453
0.0523671630342543,16.3282460859414
0.0586163507398213,16.3292325801333
0.0656857992883919,16.3301924102197
0.0737008468262674,16.3311289351515
0.0828131629896707,16.3320458058773
0.0932079882222603,16.3329469804929
0.105114107425783,16.3338367940967
0.118818608487648,16.3347201318759
0.134689179580596,16.3356027109124
0.15320668281318,16.3364914153902
0.175021578147831,16.337395053096
0.200824210707314,16.338318051301
0.230679144153272,16.3392434916641
0.265333869807437,16.3401804456383
0.305818007981261,16.3411435417206
0.353845350347547,16.3421627874887
0.390846042230679,16.3428908850608
0.429109964981984,16.343618982633
0.463095014195668,16.3442680420435
0.492913243579369,16.3448639230557
0.519076468871039,16.3454373617607
0.541525039675043,16.3460119558597
0.55970134906074,16.3466126725866
0.572293378543326,16.3472775978262
0.576053563295041,16.3480280802023
0.568111881320911,16.3488011946591
0.547207523202525,16.3496183137483
0.51154406077872,16.3504942431675
0.462473183017035,16.351382035431
0.39873242769992,16.3523045313856
0.349913048285793,16.3529174653799
0.296873862214815,16.3535303993742
0.250434519414968,16.3540418130334
0.211053086383247,16.3544691182567
0.176676967539446,16.3548456287939
0.146012245688199,16.3551910756441
0.118290631733162,16.3555175541954
0.0929873707839115,16.355833915587
0.0696707890836074,16.3561482889377
0.0478726441708777,16.3564708336028
0.0267819919766002,16.3568213151449
0.00792913290091313,16.3571822257862
-0.00165074677739968,16.3573903746447
-0.0103249324628828,16.3575985235032
-0.0170102172481431,16.3577752411857
-0.0231282355914209,16.3579527017088
-0.0293111143302648,16.3581513934526
-0.0352977906552368,16.358367774004
-0.0409198973540681,16.358599651785
-0.0460831988447024,16.3588462188802
-0.0507381334651179,16.3591075902881
-0.0548621855202844,16.3593845436891
-0.0584494768050315,16.3596783938662
-0.0615043979293924,16.3599909502731
-0.064029440601632,16.3603245319252
-0.0660171466589517,16.3606791493007
-0.0675033984414206,16.3610602912068
-0.0685067443138115,16.3614728849445
-0.0690399048914222,16.3619223763706
-0.0691117863268459,16.3624156675166
-0.0687253249158888,16.3629617065834
-0.0678724079362665,16.3635735980118
-0.0665288349352707,16.3642689607463
-0.0646441711283183,16.3650740953376
-0.0621128185144823,16.3660341888663
-0.0586675390795817,16.3672501769532
-0.0545049470138601,16.3686683544773
-0.0504487021848671,16.370040699905
-0.0465566479951341,16.3713731368593
-0.0428587767702955,16.3726680047908
-0.0393713880925442,16.373926097706
-0.0361030199372538,16.375147434141
-0.0330569960438206,16.3763316643037
-0.0302327295445368,16.3774782851997
-0.0276265446407388,16.3785867525747
-0.0252323006860601,16.3796565352301
-0.0230419270859462,16.380687135288
-0.0210459060971701,16.381678086995
-0.01923371265988,16.3826289410196
-0.0175942109799262,16.3835392380817
-0.0160226739467337,16.3844651182509
-0.014510892477053,16.3854149045412
-0.013062990963114,16.3863904372334
-0.011682820250998,16.3873939340767
-0.0103740101958114,16.388428007297
-0.00913991600758713,16.389495762848
-0.00798356238745101,16.3906009316231
-0.00690758441178189,16.3917480474487
-0.00591416446540286,16.3929426944767
-0.00500496371131227,16.394191861034
-0.00418104518863977,16.3955044633526
-0.00344278301900753,16.3968921536369
-0.00278974695268859,16.3983706329568
-0.0022205399941456,16.3999619303554
-0.00175572189944563,16.4016051248523
-0.00138340348380324,16.4033018249756
-0.00108782426148554,16.4050705849384
-0.000854370765469904,16.4069348781329
-0.000669030560985349,16.4089266800646
-0.000517810936205598,16.4110925763658
-0.000385738677153528,16.4135071162848
-0.000254555130456069,16.4163084533074
-9.44548417383092e-05,16.4198362330903
8.91290366838659e-05,16.4236150337106
0.000313582192461651,16.427805403848
0.000600065579807189,16.4327504444277
0.000890331523190063,16.4375722207085
0.00115930296117249,16.4420170975551
0.00141724758412642,16.4463307907698
0.00167828494338457,16.450777757037
0.00196775347460527,16.4558092641402
0.00224694402393087,16.4607310953344
0.00252636585045072,16.4656925495004
0.0027791254464074,16.4701727865757
0.00300829022802658,16.4742054967624
0.00322958120564331,16.4780559363675
0.00345049114124493,16.4818415246408
0.00367576993403757,16.4856290413956
0.00390919971616595,16.4894649990782
0.00415426914590323,16.4933864497939
0.00441449308378838,16.4974254887839
0.00469367169667141,16.5016124049722
0.00499609506401603,16.5059774025085
0.00532678231808421,16.5105518870398
0.00569183930328747,16.5153697322241
0.0060990378834052,16.5204684885091
0.00652869611246022,16.5255429295514
0.0069809530838335,16.5305589432751
0.00745879298056199,16.5355096197264
0.0079659166623691,16.5403883168571
0.00850756613616736,16.545196814904
0.00908995211648952,16.5499382895547
0.0097201620236757,16.5546158121575
0.010406043614316,16.5592309648766
0.0111723149472152,16.5638767905569
0.0120337158588276,16.5685501269215
0.0130114732926554,16.5732658510854
0.0141347701600537,16.5780524658302
0.0154499857682719,16.582976352597
0.0170488452666829,16.5882084035296
0.0192170151850801,16.5943711894405
0.0209526946907124,16.5988010161979
0.0227862593295949,16.6032308429552
0.0243321885881042,16.6069506576922
0.0256203005361837,16.6102160188428
0.0266983618643614,16.6132785864439
0.0275563904834008,16.616250691248
0.0281454558191012,16.6190864132107
0.0284659451666589,16.6219061005703
0.0284907234909865,16.6248607078475
0.0281211335416258,16.6282545938386
0.0273401958792973,16.6317046221638
0.0262144952639541,16.635154650489
0.025115079080277,16.6379266611393
0.0240388644909979,16.6403733831957
0.0229647042296052,16.6426718293349
0.0218903064783897,16.6448915244761
0.0208183775923432,16.6470681920278
0.0197525703115663,16.6492243321601
0.0186965668643552,16.6513758634746
0.0176538408563441,16.6535349603935
0.0166275975206887,16.6557114995601
0.0156207639162253,16.6579138944041
0.014635993788829,16.6601496216393
0.013675681599679,16.6624255661461
0.0127419690470462,16.6647482849001
0.0118367576127991,16.667124197131
0.0109617198648417,16.6695597390269
0.01011830117294,16.6720615238868
0.00930773521147082,16.6746364553273
0.00853092086783786,16.6772923228978
0.00776617662132341,16.6801239824001
0.00701735427806603,16.6831509300714
0.00628819695579748,16.6863968902457
0.00558273447823794,16.6898892054143
0.00490509475586973,16.6936595263287
0.00425949575383633,16.6977446794598
0.0036501526984082,16.7021879170956
0.00308110690828403,16.7070409466084
0.00255597629505184,16.7123676290223
0.00207768256776453,16.7182504429177
0.00164833562389537,16.7247996727274
0.00127913524932808,16.7319491517424
0.00097120508218556,16.7396851091099
0.000717923509226465,16.7481338248358
0.000518012434346685,16.7574628133498
0.000374571514837833,16.7674628133498
0.000279805282139347,16.777095808906
0.000210575894798277,16.787095808906
0.000162353425152722,16.797095808906
0.000129196249964103,16.807095808906
0.000106810078577892,16.817095808906
9.20148800290665e-05,16.8270958089061
8.25169062043205e-05,16.8370958089061
7.67182045542004e-05,16.8470958089061
7.35302540669042e-05,16.8570958089061
7.22164788364547e-05,16.8670958089061
7.22772668376303e-05,16.8770958089061
7.337325489799e-05,16.8870958089061
7.52756697561648e-05,16.8970958089061
7.78336653640079e-05,16.9070958089061
8.09521314922578e-05,16.9170958089061
8.45763096723863e-05,16.9270958089061
8.8681159757379e-05,16.9370958089061
9.32641817512346e-05,16.9470958089061
9.8340777169591e-05,16.9570958089061
0.000103941483064262,16.9670958089061
0.000110110612984152,16.9770958089061
0.000116906005834933,16.9870958089061
0.000124399717188324,16.9970958089061
0.000132679594925292,17.0070958089061
0.000141851773880925,17.0170958089061
0.000152044215519229,17.0270958089061
0.000163411522106864,17.0370958089061
0.000176141385712803,17.0470958089061
0.000190463210939809,17.0570958089061
0.000206659706629041,17.0670958089061
0.000225082623153078,17.0770958089061
0.00024617439565507,17.0870958089061
0.000270498370043207,17.0970958089061
0.000298781763727014,17.1070958089061
0.00033197795051139,17.1170958089061
0.000371358802067527,17.1270958089061
0.000418655083932589,17.1370958089061
0.000475288914525159,17.146938019818
0.000539504320352684,17.1560465778874
0.00061209170266349,17.1644550879268
0.000694115027637775,17.1722170137924
0.000786812124372218,17.179382801752
0.000891593379443657,17.1859992724561
0.00101005751441803,17.1921098961644
0.00114401473024682,17.1977550630741
0.00129551550447263,17.2029722906365
0.00146688272064579,17.2077964020601
0.00166074790021383,17.2122597297356
0.00188009633577451,17.2163923282197
0.00212831962100323,17.2202221592435
0.00240927546751716,17.2237752387372
0.00272736607486772,17.2270758113324
0.00308763316802291,17.2301465467065
0.00349588220183229,17.2330087129248
0.00395884264097477,17.2356823669722
0.004484387041767,17.2381865951796
0.00508183947050411,17.2405397871413
0.00576242207050738,17.2427599923827
0.00651948661899148,17.2448147579858
0.00735456115630442,17.246714826005
0.00827924232081675,17.2484927806434
0.00931080219761899,17.250181287232
0.0104770091140192,17.2518171386954
0.0118324359104588,17.2534553753766
0.0135793137394603,17.2552748419592
0.0156010679924321,17.2571074214346
0.0172910009354356,17.2584970700839
0.0190749200855654,17.2598867187332
0.0206723990143365,17.2611112215608
0.0220992748070852,17.2622319221001
0.0233811511645419,17.263307802168
0.0245156333413097,17.2643789661662
0.0254823148232845,17.2654841171022
0.0262402985087719,17.2666767957597
0.0267044592681791,17.2680661612359
0.0265666730097122,17.2700958621951
0.025908770699099,17.2715901820268
0.0248821859812725,17.2730845018585
0.0236949736976396,17.2744636155808
0.0223537607680358,17.2758438216992
0.0208676163498365,17.2772768197889
0.019245627656187,17.2788004202505
0.0181488786539408,17.2798315509031
0.0170780511022315,17.2808626815557
0.0158575769153297,17.2821000361659
0.0145168131940176,17.2835523128163
0.0132797103742877,17.2849966797509
0.0120828472439507,17.2865105798535
0.0108491005835328,17.2882192771799
0.00941212095847391,17.2904520596055
0.0080319208922663,17.2929258338847
0.00684137993371222,17.2954211428972
0.00584147440001503,17.2978838980981
0.00494309833176379,17.3005080270379
0.0041672584968762,17.3032357245267
0.00350324269389144,17.3060885960848
0.00294236821090848,17.3090927203737
0.00247876391473012,17.3122779829388
0.0021100161677261,17.3156797339005
0.00183862008922852,17.3193410439841
0.00167501304747133,17.3233159011667
0.00164145450113204,17.3273610701326
0.00172914811425084,17.3309683100149
0.00191523001471104,17.3342155887453
0.00218754267337775,17.3371479688254
0.00254078906802913,17.339813847465
0.00297535314374186,17.3422629006108
0.0034966144425563,17.3445425816822
0.00411780659921944,17.3467070793442
0.00486339801978656,17.3488173898049
0.00578044147900914,17.3509564341995
0.00696323771722992,17.3532519470506
0.00861575382753912,17.3559269492587
0.010644272131386,17.3586855571065
0.0122128607311927,17.360537803119
0.0139835982537819,17.3623900491314
0.015787494417586,17.364050015232
0.0176703687489066,17.3655700838378
0.0197084866386291,17.3670068986482
0.0219354685248932,17.3683708003187
0.0244043956218487,17.3696789389268
0.0271552046376488,17.3709356469864
0.0302338468924921,17.3721456805472
0.033685198772314,17.3733111804642
0.0375632879422187,17.3744356702429
0.0419229404303515,17.3755209654947
0.0468324630944592,17.3765704938483
0.0523671939245716,17.3775869539782
0.058616385592537,17.3785734480171
0.0656858386956363,17.3795332779675
0.0737008915072271,17.3804698027823
0.0828132137956923,17.3813866734092
0.0932080462056534,17.3822878479467
0.105114173894273,17.3831776614954
0.118818685091314,17.3840609992456
0.134689268443475,17.3849435782837
0.153206786740554,17.3858322828007
0.175021700997318,17.3867359205953
0.20082435258748,17.3876589187833
0.230679308380835,17.3885843591658
0.26533406069952,17.3895213132131
0.305818231836569,17.3904844094636
0.353845619138886,17.3915036556246
0.390846288056585,17.3922317524787
0.429110178038006,17.3929598493327
0.463095200342879,17.3936089082979
0.49291340853157,17.3942047890943
0.519076613809447,17.3947782277312
0.541525162897816,17.3953528218925
0.559701445765379,17.3959535388458
0.572293437703144,17.3966184646109
0.576053561207581,17.3973689470412
0.568111812833097,17.398142061674
0.547207379395319,17.3989591810521
0.511543856952154,17.3998351102745
0.462472902938913,17.4007229027576
0.398732089197905,17.401645398657
0.349912747322089,17.4022583317739
0.296873617468257,17.4028712648908
0.250434318488263,17.403382677987
0.211052913786485,17.4038099828948
0.176676814810664,17.4041864932447
0.146012108251423,17.4045319399789
0.118290506709158,17.4048584184615
0.0929872560220616,17.405174779823
0.0696706825867837,17.4054891531843
0.0478725433230075,17.4058116979208
0.0267818907375825,17.4061621796859
0.00792911237442034,17.4065230889499
-0.00165075946928733,17.4067312376708
-0.0103249385578475,17.4069393863917
-0.017010222281029,17.4071161040576
-0.0231282408510896,17.4072935645996
-0.0293111195542845,17.4074922563586
-0.0352977956604401,17.4077086369224
-0.0409199020356606,17.4079405147147
-0.0460832031450884,17.4081870818209
-0.050738137354986,17.4084484532401
-0.0548621889877564,17.4087254066533
-0.0584494798489361,17.4090192568437
-0.0615044005552286,17.4093318132656
-0.0640294428134442,17.4096653949348
-0.066017148370256,17.4100200123088
-0.0675033997915643,17.4104011542357
-0.0685067453140076,17.4108137479981
-0.0690399055497923,17.4112632394535
-0.069111786647995,17.4117565306348
-0.0687253248989155,17.4123025697447
-0.0678724075692005,17.4129144612283
-0.0665288341914432,17.4136098240342
-0.0646441699531402,17.4144149587225
-0.0621128167877443,17.4153750523967
-0.0586675364440026,17.4165910407595
-0.0545049444414121,17.4180092182435
-0.0504486997232127,17.4193815636417
-0.0465566456714478,17.4207140005692
-0.0428587745981506,17.4220088684753
-0.0393713860785721,17.4232669613654
-0.0361030180838777,17.4244882977753
-0.0330569943505107,17.4256725279127
-0.030232728008532,17.426819148783
-0.0276265432575293,17.4279276161321
-0.0252322994497802,17.4289973987612
-0.0230419259897034,17.4300279987925
-0.0210459051333608,17.4310189504726
-0.0192337118204554,17.4319698044699
-0.0175942102566337,17.4328801015046
-0.0160226732639812,17.4338059816892
-0.014510891837837,17.4347557679956
-0.0130629903696823,17.4357313007054
-0.0116828197054785,17.4367347975678
-0.0103740097001641,17.4377688708091
-0.00913991556357867,17.4388366263833
-0.00798356199660306,17.4399417951844
-0.00690758407534124,17.4410889110391
-0.00591416418429017,17.4422835581004
-0.00500496348607573,17.4435327246961
-0.004181045019395,17.4448453270598
-0.00344278290536416,17.4462330173979
-0.00278974689365643,17.4477114967837
-0.00222053998799062,17.4493027942654
-0.00175572195947766,17.4509459887911
-0.00138340359811604,17.4526426889561
-0.00108782441962531,17.4544114489743
-0.000854370957509308,17.4562757422421
-0.000669030777195493,17.4582675442725
-0.000517811166542427,17.4604334407109
-0.000385738910270744,17.4628479808319
-0.0002545553510879,17.465649318188
-9.44550189367231e-05,17.4691770986963
8.91288853893521e-05,17.4729558994388
0.000313582087461284,17.4771462700105
0.000600065489876322,17.4820913105053
0.000890331458490652,17.4869130870253
0.00115930290821173,17.4913579639916
0.00141724753257983,17.4956716572091
0.00167828488362887,17.5001186233387
0.00196775338738204,17.5051501299701
0.00224694393710608,17.5100719611851
0.0025263657573149,17.515033415253
0.00277912537362294,17.5195136527092
0.0030082901628901,17.5235463630466
0.00322958114294681,17.5273968027112
0.00345049107820508,17.531182390998
0.0036757698686949,17.5349699077366
0.00390919964686458,17.5388058653806
0.00415426907107799,17.542727316039
0.00441449300183297,17.5467663549547
0.0046936716058327,17.5509532710519
0.00499609496230369,17.5553182684803
0.00532678220314252,17.5598927528855
0.00569183917218603,17.5647105979239
0.00609903773229689,17.5698093540408
0.00652869595921855,17.5748837951512
0.00698095292208137,17.5798998088781
0.00745879281132014,17.5848504853592
0.00796591648349348,17.5897291825146
0.00850756594569945,17.5945376805862
0.00908995191190629,17.5992791552593
0.00972016180223241,17.6039566778832
0.0104060433730139,17.6085718306225
0.0111723146763621,17.6132176562888
0.0120337155531179,17.6178909926421
0.0130114729437208,17.6226067167875
0.0141347697559427,17.6273933315
0.0154499852884591,17.632317218201
0.0170488446646792,17.637549268974
0.0192170142638698,17.6437120542804
0.0209526939422195,17.6481418816393
0.0227862588084598,17.6525717089983
0.0243321881743415,17.6562915239667
0.025620300189299,17.6595568852091
0.0266983615776769,17.6626194528452
0.0275563902764494,17.665591557708
0.028145455688568,17.6684272796936
0.0284659451153512,17.6712469670387
0.0284907235330654,17.6742015742472
0.0281211337296575,17.6775954600214
0.027340196086104,17.681045488716
0.0262144953999768,17.6844955174106
0.0251150791984735,17.6872675281494
0.0240388646071897,17.6897142502309
0.0229647043457927,17.6920126963814
0.0218903065944944,17.6942323915286
0.0208183777080017,17.6964090590835
0.0197525704263811,17.6985651992169
0.0186965669779453,17.7007167305311
0.0176538409683556,17.7028758274484
0.0166275976307984,17.7050523666125
0.015620764024139,17.7072547614531
0.0146359938942849,17.7094904886841
0.0136756817024423,17.711766433186
0.0127419691469078,17.7140891519342
0.0118367577095794,17.7164650641587
0.0109617199583828,17.7189006060474
0.0101183012631098,17.7214023908993
0.0093077352981596,17.7239773223309
0.00853092095337373,17.7266331898829
0.0077661767052968,17.7294648493648
0.00701735436007945,17.7324917970132
0.00628819703538438,17.7357377571618
0.00558273455491836,17.7392300723014
0.0049050948291991,17.743000393183
0.00425949582336107,17.747085546277
0.00365015276368092,17.7515287838705
0.00308110696888938,17.7563818133346
0.00255597635063476,17.761708495692
0.00207768261805559,17.7675913095205
0.00164833566870763,17.7741405392494
0.00127913528700709,17.7812900182046
0.000971205113480208,17.7890259755006
0.000717923534855147,17.7974746911387
0.000518012452885319,17.8068036795437
0.000374571526694889,17.8168036795437
0.000279805292336322,17.8264366748235
0.000210575901412896,17.8364366748235
0.000162353429262726,17.8464366748235
0.000129196252292014,17.8564366748235
0.000106810079639883,17.8664366748235
9.20148801974883e-05,17.8764366748235
8.25169057421291e-05,17.8864366748235
7.67182036422392e-05,17.8964366748235
7.35302528271197e-05,17.9064366748235
7.22164773500001e-05,17.9164366748235
7.22772651577036e-05,17.9264366748235
7.33732530584139e-05,17.9364366748235
7.52756677770196e-05,17.9464366748235
7.78336632553636e-05,17.9564366748235
8.09521292566792e-05,17.9664366748235
8.45763073066046e-05,17.9764366748235
8.86811572533644e-05,17.9864366748235
9.326417909682e-05,17.9964366748235
9.83407743487503e-05,18.0064366748235
0.000103941480057106,18.0164366748235
0.000110110609766685,18.0264366748235
0.000116906002378574,18.0364366748235
0.000124399713459197,18.0464366748235
0.000132679590883235,18.0564366748235
0.000141851769478177,18.0664366748235
0.000152044210698698,18.0764366748235
0.000163411516799853,18.0864366748235
0.000176141379836003,18.0964366748235
0.000190463204391299,18.1064366748235
0.000206659699282904,18.1164366748235
0.000225082614852048,18.1264366748235
0.000246174386200361,18.1364366748235
0.000270498359180173,18.1464366748235
0.000298781751124584,18.1564366748235
0.000331977935731915,18.1664366748235
0.000371358784521528,18.1764366748235
0.000418655062809019,18.1864366748235
0.000475288890646412,18.1962788860365
0.000539504293446909,18.2053874443953
0.000612091672350262,18.213795954702
0.00069411499346938,18.221557880814
0.000786812085836228,18.2287236690006
0.000891593335958574,18.2353401399137
0.00101005746532456,18.2414507638144
0.00114401467479754,18.2470959309011
0.00129551544181931,18.2523131586259
0.00146688264982738,18.2571372701988
0.00166074782013865,18.2616005980111
0.00188009624520363,18.2657331966206
0.00212831951852639,18.2695630277591
0.00240927535152761,18.2731161073575
0.00272736594352877,18.2764166800482
0.0030876330192239,18.279487415509
0.00349588203313688,18.282349581806
0.00395884244954678,18.2850232359243
0.00448438682426953,18.2875274641953
0.00508183922295941,18.2898806562134
0.00576242178808162,18.2921008615041
0.00651948630759679,18.2941556271752
0.00735456081232644,18.2960556952497
0.00827924193875931,18.2978336499307
0.00931080176913681,18.2995221565486
0.0104770086249363,18.301158008025
0.0118324353081177,18.3027962446663
0.0135793129162921,18.3046157111303
0.0156010675630329,18.3064482910378
0.0172910005150883,18.30783793972
0.0190749196909334,18.3092275884021
0.020672398663895,18.3104520912634
0.0220992744908688,18.311572791819
0.0233811508805113,18.3126486718927
0.0245156330922716,18.3137198358882
0.0254823146159796,18.3148249868116
0.0262402983560712,18.3160176654406
0.0267044592001678,18.3174070308482
0.0265666731120457,18.3194367317911
0.0259087708731578,18.3209310516825
0.0248821861766938,18.3224253715739
0.0236949739199052,18.3238044853063
0.0223537610179339,18.3251846914195
0.0208676166258834,18.3266176894964
0.0192456279573249,18.3281412899382
0.0181488787552607,18.329172420778
0.0170780510105119,18.3302035516178
0.0158575768926116,18.3314409061624
0.0145168132158854,18.3328931827658
0.0132797103849652,18.3343375497135
0.0120828471880625,18.3358514499046
0.0108491003787983,18.3375601474578
0.00941212034215776,18.3397929306138
0.00803192035682061,18.3422667049117
0.00684137947250829,18.344762013943
0.00584147396909625,18.3472247692585
0.00494309796233483,18.3498488982424
0.0041672581841505,18.3525765957838
0.00350324243368014,18.3554294674058
0.00294236800043719,18.3584335917715
0.00247876375296477,18.3616188544284
0.0021100160560648,18.3650206054999
0.00183862003279057,18.3686819157155
0.00167501305774764,18.3726567730584
0.00164145459056694,18.3767019416851
0.00172914826624604,18.3803091812983
0.00191523022109531,18.3835564597889
0.00218754293044899,18.3864888396625
0.00254078937558878,18.3891547181302
0.00297535350425126,18.3916037711355
0.00349661486368701,18.3938834521062
0.00411780709386397,18.3960479497066
0.00486339861284751,18.3981582601579
0.00578044221859152,18.4002973046186
0.00696323870960379,18.4025928176727
0.00861575530316524,18.4052678203187
0.0106442738882756,18.4080264281961
0.0122128624640392,18.4098786739556
0.0139835999483752,18.4117309197151
0.0157874961281403,18.413390885642
0.0176703705558316,18.4149109541491
0.0197084885881421,18.4163477688867
0.0219354706564339,18.4177116704983
0.024404397987113,18.4190198090619
0.0271552072655585,18.4202765170762
0.030233849832049,18.4214865505982
0.0336852020605815,18.4226520504762
0.037563291628455,18.4237765402185
0.041922944568539,18.4248618354364
0.0468324677468841,18.4259113637586
0.0523671991667345,18.4269278238602
0.0586163915068765,18.4279143178732
0.0656858453825953,18.4288741478005
0.0737008990887825,18.4298106725954
0.0828132224162437,18.4307275432056
0.0932080560436531,18.4316287177298
0.105114185171506,18.4325185312691
0.118818698087603,18.4334018690143
0.13468928351898,18.4342844480527
0.153206804370903,18.4351731525763
0.175021721836436,18.4360767903858
0.200824376654318,18.4369997885709
0.230679336237875,18.4379252289567
0.265334093078664,18.4388621830163
0.305818269805717,18.4398252792952
0.353845664727862,18.4408445255228
0.390846329753777,18.4415726222551
0.429110214181453,18.4423007189873
0.463095231926027,18.442949777877
0.492913436522979,18.4435456586368
0.519076638409365,18.4441190972621
0.541525183817754,18.4446936914339
0.559701462191139,18.4452944084256
0.572293447765314,18.4459593342797
0.576053560887178,18.4467098167192
0.568111801256085,18.4474829313817
0.547207355049065,18.4483000508088
0.511543822435333,18.4491759799978
0.462472855500419,18.450063772518
0.398732031857288,18.450986268408
0.349912696338654,18.4515992013762
0.296873576006855,18.4522121343445
0.250434284449322,18.4527235473453
0.211052884546125,18.4531508521996
0.176676788935517,18.4535273625178
0.146012084966526,18.4538728092323
0.118290485526629,18.4541992877033
0.0929872365776834,18.4545156490597
0.0696706645421696,18.4548300224228
0.0478725262349844,18.4551525671714
0.0267818735826004,18.4555030489742
0.00792910889653635,18.4558639580049
-0.00165076161978394,18.4560721067025
-0.0103249395906098,18.4562802554
-0.0170102231339113,18.4564569730631
-0.0231282417424948,18.4566344336083
-0.0293111204397215,18.4568331253699
-0.0352977965089562,18.4570495059358
-0.0409199028294567,18.45728138373
-0.0460832038744274,18.457527950838
-0.050738138014904,18.4577893222591
-0.0548621895762238,18.4580662756743
-0.0584494803657781,18.458360125867
-0.0615044010013516,18.4586726822915
-0.0640294431895695,18.4590062639636
-0.0660171486621562,18.4593608813374
-0.0675034000222744,18.4597420232678
-0.0685067454854333,18.4601546170344
-0.0690399056633085,18.4606041084948
-0.0691117867043799,18.461097399682
-0.0687253248980166,18.4616434387993
-0.0678724075089899,18.4622553302922
-0.0665288340673998,18.4629506931102
-0.0646441697560011,18.463755827815
-0.0621128164971197,18.4647159215139
-0.058667535999261,18.4659319099234
-0.0545049440074283,18.4673500874007
-0.0504486993080572,18.4687224327938
-0.0465566452797105,18.4700548697169
-0.0428587742321192,18.4713497376186
-0.0393713857393652,18.4726078305045
-0.0361030177718942,18.4738291669102
-0.0330569940656594,18.4750133970433
-0.030232727750336,18.4761600179092
-0.0276265430252222,18.4772684852539
-0.0252322992423581,18.4783382678786
-0.0230419258060022,18.4793688679053
-0.0210459049720872,18.4803598195809
-0.0192337116802404,18.4813106735736
-0.0175942101360762,18.4822209706036
-0.0160226731502984,18.4831468507908
-0.0145108917315293,18.4840966371
-0.0130629902711338,18.4850721698128
-0.011682819615044,18.4860756666784
-0.0103740096181754,18.4871097399232
-0.0091399154903302,18.4881774955014
-0.00798356193235201,18.4892826643068
-0.00690758402029555,18.4904297801665
-0.00591416413860503,18.4916244272334
-0.0050049634498407,18.4928735938356
-0.00418104499262756,18.4941861962069
-0.00344278288799559,18.4955738865541
-0.0027897468855163,18.497052365951
-0.00222053998878371,18.4986436634468
-0.00175572197145269,18.5002868579775
-0.00138340361925737,18.5019835581495
-0.00108782444816197,18.503752318177
-0.000854370991759658,18.5056166114573
-0.000669030815511503,18.5076084135044
-0.000517811207222118,18.5097743099659
-0.000385738951390992,18.512188850121
-0.000254555390061101,18.5149901875336
-9.44550505186537e-05,18.5185179681646
8.91288582360616e-05,18.5222967689278
0.000313582068188839,18.526487139573
0.000600065473208813,18.5314321800534
0.000890331446375585,18.5362539566177
0.00115930289823681,18.5406988336062
0.00141724752287671,18.5450125268242
0.00167828487243519,18.5494594929283
0.0019677533711417,18.5544909994724
0.00224694392096978,18.5594128306913
0.00252636574003459,18.5643742847411
0.00277912536012439,18.5688545222676
0.00300829015081801,18.572887232633
0.00322958113133514,18.5767376723086
0.00345049106653736,18.5805232605979
0.00367576985660774,18.5843107773335
0.00390919963405101,18.5881467349704
0.00415426905724805,18.5920681856181
0.00441449298668925,18.5961072245201
0.00469367158905073,18.6002941406005
0.00499609494351518,18.6046591380088
0.00532678218191157,18.6092336223908
0.00569183914797047,18.6140514674022
0.00609903770438508,18.6191502234879
0.0065286959309173,18.6242246646109
0.00698095289221042,18.6292406783384
0.00745879278006811,18.6341913548251
0.00796591645046413,18.639070051985
0.00850756591053062,18.6438785500612
0.00908995187413216,18.6486200247384
0.00972016176134572,18.6532975473661
0.0104060433284614,18.6579127001092
0.0111723146263529,18.6625585257729
0.0120337154966726,18.6672318621242
0.013011472879295,18.6719475862661
0.0141347696813299,18.6767342009726
0.0154499851998702,18.6816580876615
0.0170488445535307,18.6868901384051
0.0192170140937814,18.6930529235999
0.0209526938040228,18.6974827510698
0.022786258712244,18.7019125785398
0.0243321880979514,18.705632393551
0.025620300125258,18.7088977548103
0.0266983615247516,18.711960322453
0.0275563902382459,18.7149324273265
0.028145455664474,18.7177681493164
0.0284659451058856,18.7205878366588
0.0284907235408429,18.7235424438546
0.028121133764384,18.7269363295888
0.027340196124297,18.7303863583516
0.026214495425099,18.7338363871144
0.0251150792203039,18.7366083978695
0.0240388646286504,18.7390551199556
0.0229647043672529,18.7413535661082
0.0218903066159394,18.7435732612565
0.0208183777293641,18.745749928812
0.0197525704475877,18.7479060689457
0.0186965669989255,18.7500576002598
0.0176538409890436,18.7522166971768
0.0166275976511357,18.7543932363404
0.0156207640440709,18.7565956311803
0.0146359939137628,18.7588313584107
0.0136756817214224,18.7611073029116
0.0127419691653524,18.7634300216588
0.0118367577274542,18.7658059338821
0.0109617199756596,18.7682414757694
0.0101183012797636,18.7707432606198
0.00930773531417043,18.7733181920498
0.00853092096917101,18.7759740595984
0.00776617672080568,18.7788057190765
0.00701735437522592,18.7818326667207
0.0062881970500826,18.7850786268645
0.00558273456907941,18.7885709419988
0.00490509484274144,18.7923412628744
0.00425949583620043,18.7964264159615
0.00365015277573492,18.8008696535472
0.00308110698008137,18.8057226830024
0.00255597636089923,18.8110493653493
0.00207768262734281,18.8169321791654
0.00164833567698307,18.8234814088794
0.00127913529396535,18.8306308878236
0.00097120511925952,18.8383668451063
0.000717923539588137,18.8468155607282
0.000518012456308538,18.8561445491131
0.000374571528884038,18.8661445491131
0.00027980529421922,18.8757775443418
0.000210575902634195,18.8857775443418
0.000162353430021492,18.8957775443418
0.000129196252721698,18.9057775443418
0.000106810079835823,18.9157775443418
9.20148802284607e-05,18.9257775443418
8.25169056567084e-05,18.9357775443418
7.6718203473833e-05,18.9457775443418
7.35302525982569e-05,18.9557775443418
7.22164770756751e-05,18.9657775443418
7.2277264847747e-05,18.9757775443418
7.33732527190781e-05,18.9857775443418
7.52756674120195e-05,18.9957775443418
7.7833662866566e-05,19.0057775443418
8.0952128844566e-05,19.0157775443418
8.45763068705811e-05,19.0257775443418
8.86811567919582e-05,19.0357775443418
9.32641786077964e-05,19.0457775443418
9.83407738291636e-05,19.0557775443418
0.0001039414795033,19.0657775443418
0.000110110609174247,19.0757775443418
0.000116906001742248,19.0857775443418
0.000124399712772754,19.0957775443418
0.000132679590139289,19.1057775443418
0.000141851768667945,19.1157775443418
0.000152044209811682,19.1257775443418
0.00016341151582342,19.1357775443418
0.000176141378754833,19.1457775443418
0.000190463203186651,19.1557775443418
0.000206659697931623,19.1657775443418
0.000225082613325215,19.1757775443418
0.000246174384461419,19.1857775443418
0.000270498357182296,19.1957775443418
0.000298781748806889,19.2057775443418
0.000331977933013917,19.2157775443418
0.00037135878129482,19.2257775443418
0.000418655058924443,19.2357775443418
0.000475288886255398,19.2456197556102
0.000539504288499508,19.2547283140223
0.000612091666776581,19.2631368243781
0.00069411498718713,19.2708987505355
0.000786812078751229,19.2780645387639
0.000891593327963942,19.2846810097155
0.00101005745629909,19.2907916336515
0.00114401466460387,19.2964368007707
0.00129551543030161,19.3016540285255
0.00146688263680894,19.3064781401258
0.00166074780541886,19.3109414679633
0.00188009622855478,19.3150740665959
0.00212831949968915,19.3189038977555
0.0024092753302068,19.3224569773731
0.00272736591938685,19.3257575500814
0.00308763299187295,19.3288282855582
0.00349588200212892,19.3316904518696
0.00395884241436063,19.3343641060009
0.00448438678429187,19.3368683342836
0.00508183917745886,19.3392215263121
0.00576242173617,19.3414417316119
0.00651948625036156,19.3434964972955
0.00735456074910305,19.3453965653802
0.00827924186853849,19.347174520069
0.00931080169038556,19.3488630266923
0.0104770085350507,19.3504988781711
0.0118324351974227,19.3521371148051
0.0135793127650255,19.3539565812473
0.0156010674840765,19.3557891612342
0.0172910004377838,19.3571788099224
0.0190749196183392,19.3585684586106
0.0206723985994063,19.3597929614781
0.0220992744326565,19.3609136620367
0.0233811508282006,19.3619895421114
0.0245156330463788,19.3630607061065
0.0254823145777438,19.3641658570276
0.0262402983278583,19.3653585356513
0.0267044591875035,19.3667479010463
0.026566673130677,19.3687776019862
0.0259087709049737,19.3702719218886
0.024882186212442,19.371766241791
0.0236949739605926,19.3731453555252
0.0223537610637044,19.3745255616374
0.0208676166764677,19.375958559712
0.0192456280125326,19.3774821601502
0.0181488787737684,19.3785132910244
0.017078050993563,19.3795444218986
0.015857576888362,19.3807817764311
0.0145168132199071,19.3822340530258
0.0132797103869058,19.3836784199759
0.0120828471776438,19.3851923201835
0.0108491003407429,19.3869010177787
0.00941212022768581,19.3891338010704
0.00803192025737018,19.3916075753717
0.00684137938684545,19.3941028844065
0.00584147388905797,19.3965656397433
0.00494309789371581,19.3991897687354
0.00416725812606071,19.4019174662865
0.00350324238534157,19.4047703379205
0.00294236796133504,19.4077744623004
0.00247876372290636,19.4109597249744
0.00211001603530935,19.4143614760663
0.00183862002228827,19.4180227863064
0.00167501305963182,19.4219976436791
0.00164145460714801,19.4260428122427
0.00172914829444196,19.429650051806
0.00191523025938638,19.4328973302521
0.00218754297815237,19.4358297100873
0.00254078943266815,19.4384955885231
0.00297535357116439,19.4409446415023
0.0034966149418606,19.4432243224544
0.00411780718567179,19.4453888200432
0.00486339872293309,19.4474991304929
0.00578044235586515,19.4496381749659
0.00696323889380213,19.4519336880577
0.00861575557719451,19.4546086907851
0.01064427421454,19.457367298668
0.0122128627858136,19.4592195443805
0.0139836002630144,19.461071790093
0.015787496445735,19.4627317559876
0.0176703708913128,19.4642518244765
0.0197084889500971,19.4656886392005
0.0219354710521881,19.4670525408012
0.0244043984262643,19.4683606793565
0.027155207753481,19.4696173873624
0.0302338503778451,19.4708274208771
0.0336852026711272,19.4719929207479
0.0375632923129038,19.4731174104835
0.041922945336918,19.4742027056951
0.0468324686107436,19.4752522340115
0.0523672001401154,19.4762686941078
0.0586163926050784,19.477255188116
0.0656858466242636,19.478215018039
0.0737009004965817,19.4791515428302
0.0828132240169659,19.4800684134373
0.0932080578704502,19.480969587959
0.105114187265561,19.4818594014966
0.118818700500883,19.4827427392409
0.134689286318356,19.4836253182793
0.1532068076447,19.4845140228041
0.175021725706125,19.4854176606165
0.200824381123357,19.486340658801
0.230679341410732,19.4872660991874
0.265334099091272,19.4882030532493
0.305818276856426,19.4891661495335
0.353845673193589,19.4901853957734
0.390846337496714,19.4909134924831
0.429110220892988,19.4916415891927
0.46309523779061,19.4922906480683
0.492913441720454,19.4928865288213
0.519076642976901,19.4934599674444
0.541525187701785,19.4940345616183
0.559701465240563,19.494635278617
0.572293449632897,19.4953002044877
0.576053560826608,19.4960506869289
0.568111799105033,19.496823801597
0.547207350526686,19.4976409210332
0.511543816024087,19.4985168502159
0.462472846689389,19.499404642743
0.39873202120724,19.5003271386313
0.349912686869304,19.5009400715719
0.296873568306238,19.5015530045125
0.250434278127318,19.5020644174956
0.211052879115365,19.50249172234
0.1766767841298,19.5028682326524
0.146012080641932,19.5032136793632
0.118290481592479,19.503540157832
0.0929872329664649,19.5038565191875
0.0696706611909653,19.5041708925509
0.0478725230615351,19.5044934373017
0.0267818703966847,19.5048439191115
0.00792910825061078,19.5052048280989
-0.00165076201918169,19.5054129767921
-0.0103249397824465,19.5056211254854
-0.0170102232923377,19.505797843148
-0.0231282419080588,19.5059753036937
-0.0293111206042059,19.5061739954558
-0.0352977966665497,19.5063903760221
-0.0409199029768749,19.5066222538166
-0.0460832040098531,19.506868820925
-0.0507381381374503,19.5071301923465
-0.0548621896855273,19.5074071457621
-0.0584494804617729,19.5077009959552
-0.0615044010841957,19.5080135523801
-0.0640294432593931,19.5083471340527
-0.0660171487163034,19.5087017514265
-0.0675034000650624,19.5090828933576
-0.0685067455172105,19.509495487125
-0.0690399056843304,19.5099449785862
-0.0691117867147925,19.5104382697746
-0.0687253248977904,19.5109843088932
-0.0678724074977498,19.5115962003878
-0.0665288340443064,19.5122915632081
-0.0646441697193335,19.5130966979159
-0.062112816443096,19.5140567916194
-0.0586675359166252,19.5152727800376
-0.0545049439267887,19.5166909575137
-0.0504486992309049,19.5180633029059
-0.0465566452069079,19.5193957398281
-0.0428587741640914,19.520690607729
-0.0393713856763136,19.5219487006141
-0.0361030177139006,19.523170037019
-0.0330569940127003,19.5243542671513
-0.030232727702327,19.5255008880165
-0.0276265429820198,19.5266093553603
-0.0252322992037781,19.5276791379842
-0.0230419257718225,19.52870973801
-0.0210459049420727,19.5297006896848
-0.0192337116541369,19.5306515436767
-0.0175942101136258,19.5315618407058
-0.0160226731291215,19.5324877208935
-0.0145108917117249,19.5334375072032
-0.0130629902527689,19.5344130399165
-0.0116828195981837,19.5354165367827
-0.0103740096028822,19.5364506100282
-0.00913991547666025,19.5375183656071
-0.00798356192035415,19.5386235344133
-0.00690758401000724,19.5397706502739
-0.00591416413005587,19.5409652973419
-0.00500496344304704,19.5422144639453
-0.00418104498759221,19.543527066318
-0.00344278288470598,19.5449147566669
-0.0027897468839419,19.5463932360659
-0.00222053998886951,19.5479845335643
-0.0017557219736164,19.5496277280959
-0.00138340362312409,19.5513244282692
-0.00108782445340325,19.5530931882984
-0.000854370998063242,19.554957481581
-0.000669030822571254,19.5569492836312
-0.000517811214722006,19.559115180097
-0.000385738958973782,19.5615297202585
-0.000254555397246309,19.5643310576816
-9.4455056332367e-05,19.5678588383354
8.91288532433436e-05,19.5716376391024
0.000313582064658393,19.5758280097612
0.000600065470160136,19.580773050239
0.000890331444162627,19.5855948268114
0.0011593028964159,19.590039703804
0.00141724752110501,19.594353397022
0.00167828487039005,19.5988003631216
0.00196775336817271,19.6038318696497
0.00224694391801873,19.6087537008693
0.00252636573687348,19.6137151549157
0.002779125357654,19.6181953924552
0.00300829014860795,19.6222281028256
0.00322958112920881,19.6260785425032
0.00345049106440051,19.629864130793
0.0036757698543938,19.6336516475281
0.00390919963170389,19.6374876051636
0.00415426905471476,19.6414090558094
0.00441449298391545,19.6454480947088
0.0046936715859771,19.6496350107862
0.00499609494007439,19.6540000081909
0.00532678217802389,19.6585744925686
0.00569183914353674,19.663392337575
0.00609903769927519,19.6684910936551
0.00652869592573546,19.6735655347803
0.00698095288674132,19.678581548508
0.00745879277434657,19.6835322249957
0.00796591644441719,19.6884109221564
0.00850756590409215,19.6932194202334
0.00908995186721732,19.6979608949114
0.00972016175386059,19.7026384175399
0.0104060433203052,19.7072535702836
0.0111723146171976,19.7118993959469
0.0120337154863393,19.7165727322977
0.0130114728674998,19.721288456439
0.0141347696676694,19.7260750711445
0.0154499851836499,19.7309989578311
0.0170488445331783,19.7362310085693
0.0192170140626344,19.7423937937436
0.0209526937787158,19.7468236212339
0.0227862586946245,19.7512534487243
0.0243321880839623,19.7549732637433
0.0256203001135301,19.7582386250057
0.026698361515059,19.7613011926495
0.0275563902312494,19.7642732975251
0.0281454556600613,19.7671090195157
0.0284659451041516,19.7699287068576
0.0284907235422664,19.7728833140511
0.0281211337707422,19.776277199778
0.0273401961312901,19.7797272285533
0.026214495429699,19.7831772573285
0.0251150792243011,19.7859492680867
0.0240388646325794,19.7883959901736
0.0229647043711809,19.7906944363266
0.0218903066198647,19.7929141314751
0.0208183777332743,19.7950907990307
0.0197525704514692,19.7972469391644
0.0186965670027655,19.7993984704785
0.0176538409928298,19.8015575673954
0.0166275976548571,19.803734106559
0.0156207640477184,19.8059365013988
0.0146359939173267,19.808172228629
0.0136756817248957,19.8104481731297
0.0127419691687272,19.8127708918767
0.0118367577307249,19.8151468040998
0.0109617199788214,19.8175823459869
0.0101183012828122,19.8200841308371
0.00930773531710127,19.8226590622667
0.0085309209720631,19.8253149298147
0.00776617672364512,19.8281465892921
0.00701735437799909,19.8311735369355
0.00628819705277365,19.8344194970785
0.0055827345716724,19.8379118122118
0.00490509484522105,19.8416821330863
0.00425949583855112,19.8457672861722
0.00365015277794183,19.8502105237564
0.00308110698213024,19.8550635532099
0.00255597636277826,19.8603902355549
0.00207768262904298,19.8662730493688
0.00164833567849797,19.87282227908
0.00127913529523906,19.8799717580222
0.000971205120317386,19.8877077153025
0.000717923540454533,19.8961564309214
0.000518012456935296,19.9054854193026
0.000374571529284943,19.9154854193026
0.000279805294564029,19.925118414522
0.000210575902857915,19.935118414522
0.000162353430160558,19.945118414522
0.000129196252800539,19.955118414522
0.000106810079871888,19.965118414522
9.20148802343389e-05,19.975118414522
8.25169056412908e-05,19.985118414522
7.80283564921157e-05,19.992559207261
7.50435123507962e-05,20
