ecg,time
0.000688380134655554,15.0040407481791
0.000781787838648654,15.0117942400576
0.000890830929865063,15.0189177367286
0.00101691168867031,15.0254671418065
0.0011618944759017,15.0314934707033
0.00132806076318561,15.037043425444
0.00151810640079952,15.0421598643579
0.00173516547726099,15.0468822041523
0.00198285460288184,15.051246784008
0.00226533922783896,15.0552872048684
0.00258742359150121,15.0590346487138
0.0029546716318587,15.0625181964123
0.00337357348207277,15.0657651690409
0.00385177701554495,15.0688015157574
0.0043984240796771,15.0716522850735
0.00502466042487239,15.074342260372
0.00573727120310407,15.0768736527192
0.00653222521519701,15.079225745195
0.00742535103966118,15.0814464120592
0.00844356022195195,15.0835911072714
0.00963967091819819,15.085740062076
0.0111585092459501,15.0880765606982
0.012634151900145,15.0900701152853
0.0142491332913844,15.0920636698723
0.0156437366860625,15.0937088496537
0.0168438238071856,15.0951269774848
0.0179085123159137,15.096441507902
0.0188491863947912,15.0977131544522
0.0196566540507646,15.0989848414065
0.0203074708428265,15.1003011739772
0.0207580357740083,15.1017275501497
0.020914066146035,15.1034070735059
0.020401819584175,15.1059142233135
0.0196456140627363,15.1075428936855
0.0186333687008697,15.1091715640575
0.0175160052984422,15.1106970308815
0.016296773564856,15.1122164130097
0.0149843892919294,15.1137766477719
0.0139005476852457,15.1150458945273
0.0128391752854855,15.1163151412827
0.0119081186583506,15.1174920039009
0.00998491345315856,15.1201663807827
0.00832938384035747,15.1228141330161
0.00696551304242643,15.1253289581102
0.00576928522962289,15.127875520586
0.0047234282967691,15.130457874343
0.00387284179754144,15.1328891622808
0.00317318824521065,15.1351851552473
0.0025889896878393,15.1373684744485
0.00209305961386331,15.139463974123
0.00166397377374902,15.1415012487094
0.00128366495899554,15.1435209737047
0.000934346711660506,15.1455917016635
0.000589741739498967,15.1478792065551
0.000309176707077627,15.1499561710138
5.50037888311975e-05,15.1520331354724
-0.000135576430378953,15.1537294274299
-0.000292169401750225,15.1552221296957
-0.000434504759552551,15.1566627722359
-0.0005725868648705,15.158141843714
-0.000715576727715133,15.1597629849551
-0.000879601681360992,15.1617405187189
-0.00115490566474048,15.1653556876789
-0.00140209045807376,15.1689284454367
-0.00160219512054671,15.1720482136702
-0.00180053943101688,15.1753379020632
-0.00203890125606486,15.179547342814
-0.00233837113261435,15.1852670253591
-0.00258290416316142,15.1905512425755
-0.00275997890771498,15.1953374536243
-0.00285844152978601,15.199667701748
-0.00286794021237369,15.2035899630086
-0.00278317189144988,15.2070957190995
-0.00260425833665809,15.2102511822696
-0.00233210234087357,15.2131201657189
-0.00196433532165194,15.2157753130538
-0.00149059707620384,15.2182996434425
-0.000880502317606971,15.2208152369354
-7.47652210815805e-05,15.2234773198749
0.000985956635925465,15.2263977694479
0.00200425216967347,15.228897350472
0.00291319296672351,15.2310184568665
0.00391760990628176,15.2333165474032
0.00498267445771406,15.2357189734799
0.00608083012314063,15.2381213995566
0.00703626643467718,15.2400907440686
0.00798926193658696,15.2418995158656
0.00901706465596339,15.24365768233
0.0101397599884062,15.2453578748495
0.01140660344977,15.2470338228291
0.0128249327240578,15.2486575953348
0.0144296250747331,15.2502389529531
0.0162331639828268,15.2517641220803
0.01825589335208,15.25323054152
0.0205244875267711,15.2546405248128
0.0230640596488881,15.2559943815177
0.0259015120305898,15.2572929161574
0.0290727578027463,15.2585399051265
0.0326198112300833,15.2597393077368
0.0365902064335413,15.2608946505507
0.041039315125175,15.2620094871308
0.0460319875989952,15.2630873934491
0.0516453946545488,15.2641321183653
0.0579707049816846,15.2651473714012
0.065117125725272,15.2661369855787
0.0732167742883327,15.2671049896396
0.0824321942355997,15.2680557909978
0.0929660810044375,15.2689942937722
0.105076516889629,15.2699261760612
0.119100495178237,15.2708582947224
0.135492659012943,15.2717993620537
0.154894777388281,15.2727612092962
0.177715034837942,15.273739099251
0.204166899134799,15.2747231274184
0.234971712128986,15.2757247631218
0.271122636354714,15.2767610794203
0.314204320727011,15.2778633071689
0.350155506600564,15.2787119080089
0.387666718003756,15.2795605088489
0.42093452756996,15.2803084287693
0.449973926735091,15.2809840505423
0.475344872741761,15.2816225626176
0.497080082539956,15.2822488176362
0.514783714173623,15.2828851607504
0.527537084558237,15.2835584696558
0.533398201271902,15.2843127288514
0.529084403705519,15.285115148747
0.513028329861102,15.2859427543483
0.483763070990337,15.286811504212
0.439414094059947,15.2877327370142
0.37794558104787,15.2887147984509
0.333890236313101,15.2893150465832
0.285833528670523,15.2899152947155
0.243024253614339,15.290423146933
0.206132607239514,15.2908530261094
0.173607350121193,15.2912345667584
0.144416473171839,15.2915859440019
0.117921634670874,15.2919186561235
0.0936735247423016,15.2922412742203
0.0712947652723989,15.2925617058862
0.050372990189207,15.2928897125507
0.0302098099069841,15.2932435895023
0.00808576953778664,15.2936971307697
-0.000358838158943759,15.2938967868145
-0.00804913732995334,15.2940964428593
-0.0144439612232025,15.2942788281224
-0.0204518278123588,15.294467279025
-0.0264538359876827,15.2946766259927
-0.0322163940467708,15.2949034987631
-0.0375938160740968,15.2951459666139
-0.0425059112512102,15.2954034208615
-0.0469116326334343,15.2956761364249
-0.0507935570843079,15.2959650321851
-0.0541704435973446,15.2962746477453
-0.0569539342096773,15.2965980241465
-0.0592228956240337,15.2969431359657
-0.0609917993661607,15.2973130829817
-0.062275159909651,15.2977115951758
-0.0630866606880417,15.2981432871989
-0.063437617218153,15.2986139274741
-0.0633352554734624,15.2991308420977
-0.0627802341321068,15.2997037498822
-0.0617609625789525,15.3003468260735
-0.0602497162935685,15.3010788529158
-0.0581901239913339,15.3019286483531
-0.055463083926848,15.3029472038995
-0.0517485324265314,15.304256738218
-0.0477029781505544,15.3056494455611
-0.0437962278930918,15.3069974154381
-0.0400741516878507,15.3083048829761
-0.0365591176931556,15.3095739429959
-0.0332624846526277,15.3108053330744
-0.0301890147105733,15.3119991054899
-0.0273389063846878,15.3131549857526
-0.0247089280895217,15.3142725611794
-0.022293184534834,15.3153513774828
-0.0200837201719137,15.3163909832795
-0.018071037649909,15.3173909433841
-0.0162445584737221,15.3183508321571
-0.0145930333951405,15.3192702131082
-0.0130347719025257,15.320191342212
-0.0115365407265181,15.3211361138145
-0.0101027373173414,15.322106191618
-0.00873722551612837,15.3231037237432
-0.00744366141777769,15.3241312337692
-0.00622552862581123,15.3251917155491
-0.00508600980633493,15.3262887566341
-0.00402793098198453,15.3274267049046
-0.00305370589829951,15.3286108988803
-0.00216527794371818,15.3298479949904
-0.00136405861131922,15.3311464481945
-0.000650860417645153,15.3325172464973
-2.58201683303822e-05,15.333975090146
0.000511695694435647,15.3355404071215
0.000947497983066187,15.3371749261951
0.00128582041928956,15.3388589008909
0.00154249526199173,15.3406106945438
0.00173181281832624,15.342452429055
0.00186718745979322,15.344413894638
0.0019615690637129,15.3465377965693
0.00202806095844615,15.3488909071029
0.00208114105704322,15.3515923162088
0.00214033667751913,15.3549118766314
0.00222063753258361,15.3586608502192
0.0023329569880389,15.3627272066213
0.0024836701329172,15.3671933782185
0.00267440698312795,15.3721710514518
0.00287415416254547,15.3770333550728
0.00308671009506254,15.382005665245
0.00326793223763628,15.3861352558014
0.00343879565708756,15.3899581907476
0.00360752768123839,15.3936598275494
0.00377862204917135,15.3973270225057
0.00395541270123625,15.4010139921747
0.00414082911065365,15.4047609500675
0.00433770211804384,15.4086010071356
0.00454897290515396,15.4125641192144
0.00477785073690855,15.4166793613216
0.00502795856498946,15.420976344304
0.00530351801399552,15.4254863990418
0.00560964200672977,15.4302437973211
0.00595284229016919,15.4352872326359
0.00633308551589245,15.4405422883988
0.00672870988560423,15.445657888598
0.0071493882738694,15.4507279920453
0.00759574550807994,15.4557138226777
0.00807311779878298,15.4606276189065
0.00858681221585915,15.46547226839
0.00914313234053899,15.470252886108
0.00974893373968618,15.4749717192851
0.0104117355611908,15.4796290413526
0.0111517377959431,15.4842952127856
0.0119865529000674,15.4889903270635
0.012935783125237,15.4937228777162
0.0140276178077808,15.498518692162
0.0153051171721337,15.5034371762516
0.0168508516851984,15.5086295536517
0.01890309669018,15.5146112748906
0.0206889590460398,15.5192573944102
0.0225936470175546,15.5239035139299
0.0241693711066666,15.52770377857
0.0254743192805989,15.5309990241878
0.0265682230778272,15.534071475504
0.0274503928102789,15.5370614317587
0.0280639345145641,15.5399018348319
0.0284114645366006,15.5427120797962
0.0284701979143077,15.5456363370806
0.0281558999643151,15.5489441711214
0.0271587751111011,15.5533394992942
0.0262688892230225,15.5560388567243
0.0252149377454126,15.5587382141545
0.0241475748075047,15.5611950735951
0.023080007925832,15.5634997718861
0.0220122799387792,15.5657199236848
0.0209469818404648,15.5678931183239
0.0198876542524325,15.5700428901854
0.0188379165044748,15.5721857060449
0.0178011974878282,15.5743340477513
0.0167806635292504,15.5764979687929
0.0157792037416558,15.5786859839263
0.0147994348437839,15.5809056222048
0.0138437139603421,15.5831637916917
0.0129141468109167,15.5854670518063
0.0120126001282162,15.5878218133469
0.0111407130662674,15.5902345018076
0.010299901443867,15.5927117191339
0.00949137301305292,15.595260366241
0.00871534489301089,15.5978905666948
0.00795083231657991,15.6006942027451
0.00720164697387079,15.6036906461041
0.00647151092871425,15.6069034325001
0.0057643767301238,15.6103597309611
0.00508439214504132,15.6140910570902
0.00443584738821142,15.6181341496155
0.00382307999615442,15.622532218188
0.00325031884104957,15.6273369580745
0.00272146787299642,15.632612016715
0.0022398152898132,15.638439642236
0.00180792070876671,15.6449302967216
0.0014379781415936,15.6520120147873
0.0011317499960245,15.6596651379337
0.000894286643961668,15.6680112425578
0.000745285329050972,15.6756943289802
0.000622245367294471,15.6847772239037
0.000538129154428382,15.6943301010714
0.000487756633639428,15.7043301010714
0.000467665796603613,15.7143301010714
0.000472295162338731,15.7243301010714
0.000498570241150482,15.7343301010714
0.00054580014106443,15.7443301010714
0.000609467530899284,15.7535351409632
0.000688010529234021,15.7619820950754
0.000781367416914966,15.7697374337438
0.000890351515606454,15.7768626243316
0.00101636416554853,15.7834135813655
0.00116126864251509,15.7894413299766
0.00132734514408774,15.7949925808331
0.00151728801987001,15.8001101999996
0.00173422959541973,15.8048336110671
0.00198178439499688,15.8091991592608
0.00226411538863305,15.8132404507086
0.00258602382248587,15.8169886716644
0.00295306997289008,15.8204729062048
0.00337173938956402,15.823720477287
0.00384967405118213,15.8267573342081
0.00439600796924808,15.8296085231655
0.00502187600527566,15.8322988214914
0.00573415674844711,15.8348307668747
0.00652871941431511,15.837183212379
0.00742135174160939,15.8394039978819
0.00843888320963584,15.841548495906
0.00963390582939216,15.8436966759254
0.0111502221298964,15.8460305884922
0.0126292781928345,15.8480293821574
0.0142486414673853,15.8500281758227
0.0156443588351369,15.8516742137222
0.0168449150828269,15.8530924033529
0.0179099834633884,15.8544068612043
0.0188510241782044,15.8556783775509
0.0196588671530768,15.8569498828404
0.0203100868430722,15.8582659667565
0.0207611157595765,15.8596919753938
0.0209177818759802,15.8613708092279
0.0204068734785788,15.8638765958851
0.0196511153687396,15.8655054530139
0.0186390315549538,15.8671343101426
0.017521777585044,15.8686597340952
0.0163026092549827,15.8701789770172
0.0149902392322736,15.871739018413
0.0138986904511308,15.8730170867946
0.0128301798512569,15.8742951551763
0.0118882819954902,15.8754867425688
0.00996786430193711,15.878160666353
0.00831557089142979,15.8808067097524
0.00695344508056736,15.8833216482383
0.00575865365724994,15.8858686687648
0.00471471308016604,15.8884498735577
0.00386563396240707,15.8908801026702
0.00316715628971235,15.8931751818094
0.00258387951757658,15.8953577426859
0.00208867371982399,15.8974526613645
0.00166015405663105,15.899489577163
0.00128027646224564,15.9015092642191
0.000931249472711756,15.9035805582178
0.000586682443169304,15.9058704491759
0.000307103295263734,15.9079423003882
5.37542979370899e-05,15.9100141516005
-0.000136546238588473,15.9117089888436
-0.000293011588092654,15.9132013052113
-0.000435263869951937,15.9146418776103
-0.000573289669152292,15.9161211218662
-0.000716251463685505,15.9177427935285
-0.000880312516230043,15.919721830001
-0.00115655552529155,15.9233519973937
-0.00140476069276425,15.9269433426625
-0.00160592579904387,15.9300839166279
-0.00180540459571644,15.9333977857807
-0.00204591041837827,15.937653594535
-0.00234415224612054,15.9433641281714
-0.0025872542231533,15.9486370340227
-0.00276270193928619,15.953412798258
-0.00285931547477979,15.9577335930841
-0.0028668021634043,15.9616459368565
-0.00278001016408917,15.9651435285285
-0.00259911749310255,15.9682918352593
-0.00232496834305551,15.9711553891861
-0.00195510257304152,15.9738066235224
-0.00147892673951832,15.9763289312449
-0.000865398864472314,15.9788457912155
-5.53811421839591e-05,15.9815104755184
0.00101234493775404,15.9844403433835
0.00202535012326642,15.9869223437388
0.00293437971645192,15.9890420950114
0.00394382598623203,15.9913507863851
0.00499839063498983,15.9937284263963
0.00608579612854429,15.9961060664075
0.00704013627352745,15.9980722609238
0.00799415171805115,15.9998820117371
0.00902207447065083,16.0016392831712
0.0101450866558204,16.0033388472531
0.0114122998081383,16.0050141800073
0.0128309127558597,16.0066372311286
0.0144360591742087,16.0082180374042
0.0162416402967634,16.0097439238429
0.0182652332939367,16.011209942452
0.0205347483475475,16.0126195268979
0.0230753687528703,16.0139730219925
0.0259146760174759,16.0152715173608
0.0290875175623313,16.0165182699991
0.0326363505717691,16.0177174470561
0.0366087584706908,16.0188725818033
0.0410602347868712,16.0199872474853
0.046055535484122,16.0210649836051
0.051671944161302,16.0221095542154
0.0580007021711076,16.023124669508
0.0651511053565453,16.0241141630272
0.0732554025784378,16.0250820664673
0.0824762587370836,16.0260327852205
0.093016582263496,16.0269712272391
0.105134734577332,16.0279030742011
0.119168123917643,16.0288351893501
0.135571973823659,16.0297762921125
0.15498904589806,16.0307382297477
0.177824097532353,16.0317161023968
0.204293473487162,16.0327001510047
0.235119354756744,16.0337018594788
0.271296398017648,16.0347383320192
0.314413059205941,16.0358408921625
0.35034777425235,16.0366887854893
0.387835070790565,16.0375366788162
0.421083144743361,16.0382841392056
0.450107113122958,16.0389595056804
0.475463771923401,16.0395978879424
0.497183874599278,16.040224111796
0.514869736270503,16.0408605269728
0.527599767463062,16.0415340517666
0.533425005387718,16.0422888047416
0.529062058981919,16.0430912779172
0.512951090699706,16.0439190209211
0.483622936002245,16.0447879760431
0.439201510932526,16.0457094623948
0.37765042099287,16.046691829226
0.333621204316852,16.047291287462
0.285607332727947,16.0478907456979
0.242833713531353,16.0483980711736
0.20596631934658,16.0488276425862
0.173458710472961,16.0492089942932
0.144281737889045,16.0495602515324
0.117798364313989,16.0498928908027
0.0935598455340616,16.0502154750185
0.0711888949562023,16.0505359138009
0.0502725678565903,16.0508639877375
0.0301095321954168,16.0512180748662
0.00795042872926231,16.0516727827202
-0.00044651817749466,16.0518715427688
-0.00809620931947968,16.0520703028175
-0.0144834030888013,16.0522525763382
-0.0204922836912639,16.0524411752412
-0.026493480193445,16.0526506441395
-0.0322539712518856,16.0528776201802
-0.0376286184616902,16.0531201833815
-0.0425375588212495,16.0533777320736
-0.0469399414248774,16.0536505460115
-0.0508184627205827,16.0539395478241
-0.054196699863943,16.0542497831092
-0.0569760200130658,16.054573330251
-0.0592408502324253,16.0549186286446
-0.0610057358676847,16.0552887895658
-0.062285191841642,16.0556875495179
-0.0630928888248405,16.0561195314075
-0.0634401164153389,16.056590514604
-0.0633340588764822,16.0571078402689
-0.0627752955483982,16.0576812603715
-0.061752125882045,16.0583249769305
-0.0602366547457921,16.0590578316422
-0.0581721806019935,16.0599087584563
-0.0554387861130907,16.0609290372328
-0.0517130932492381,16.062242059384
-0.0476684327717261,16.0636343270069
-0.0437631364538862,16.0649819210087
-0.0400427878705956,16.0662890422041
-0.0365296228612411,16.0675577681574
-0.0332349269845127,16.0687888276449
-0.0301634147452132,16.0699822685869
-0.0273152500585573,16.0711378144787
-0.0246871747858145,16.0722550518511
-0.0222732730024448,16.0733335262418
-0.020065573425357,16.0743727863449
-0.0180545672650749,16.0753723970825
-0.0162296684139882,16.0763319328061
-0.0145796233980753,16.0772509567938
-0.0130218563744864,16.0781722864442
-0.0115241642139972,16.0791172685383
-0.0100909345254286,16.0800875740577
-0.00872602969924816,16.0810853540067
-0.00743310377247123,16.0821131355956
-0.00621563792998295,16.0831739172316
-0.00507681198565189,16.0842712922542
-0.00401944863761132,16.0854096160142
-0.00304595781539678,16.0865942368573
-0.00215827857530735,16.0878318244341
-0.00135781752496864,16.0891308520003
-0.000645381679602296,16.0905023337782
-2.11016159917742e-05,16.0919610092894
0.000515663393711414,16.0935273688743
0.000950539877517393,16.0951622362714
0.0012880869659107,16.0968467220641
0.00154411578378798,16.0985991952282
0.00173290759189088,16.1004418305804
0.00186787073237365,16.1024045030127
0.00196195329349519,16.1045300665436
0.00202826385860995,16.1068855867612
0.00208130186456343,16.1095908528286
0.00214067743137185,16.1129181213966
0.00222118105426036,16.1166680075601
0.00233386578335504,16.1207389536301
0.00248490798649206,16.1252083414024
0.00267572620760558,16.1301842524866
0.0028755468632621,16.1350464834128
0.00308778056846614,16.1400103150432
0.00326891090601808,16.1441375271194
0.00343974611542288,16.1479595660789
0.00360847825338238,16.1516608674302
0.00377959197491648,16.1553280402374
0.00395641807592125,16.1590152061698
0.00414188488277605,16.1627625324211
0.00433882314052112,16.1666031052217
0.00455017497758649,16.1705668728474
0.00477915129697315,16.174682909605
0.00502937752912069,16.1789808317468
0.00530507892117607,16.1834919808097
0.00561137399202132,16.1882506462124
0.00595478327391673,16.193295545225
0.00633509771858715,16.1985497683361
0.00673085398065882,16.2036652234705
0.00715165906937902,16.2087348759044
0.0075981692885416,16.2137203274135
0.00807571929734103,16.2186337492425
0.00858962229361656,16.2234780539315
0.00914618479566732,16.2282583423276
0.00975226582524169,16.2329768515048
0.0104153882543561,16.2376338458233
0.0111558532054096,16.2423002182075
0.0119912079483963,16.2469954793572
0.0129411025536456,16.2517282770417
0.0140337770657196,16.2565245334862
0.0153124100690485,16.2614439293124
0.0168599201676911,16.2666384997067
0.018916375035006,16.2726278951181
0.0206993193754088,16.2772638001643
0.0226001854773311,16.2818997052106
0.0241744138695985,16.2856966092124
0.0254785380874954,16.288990640588
0.0265717252325881,16.2920626184132
0.0274529423656006,16.2950518227265
0.0280655791201873,16.2978919071341
0.0284121812293628,16.3007022700364
0.0284698404212169,16.3036272453442
0.028153946882707,16.3069372923319
0.0271553665065159,16.3113315775713
0.0262651707059831,16.3140296074398
0.0252112258750018,16.3167276373084
0.0241438794416588,16.3191837607477
0.0230763113625461,16.3214880706006
0.0220085864264093,16.3237080057647
0.0209433027640164,16.3258810836982
0.0198840022775939,16.3280308055752
0.0188343039212936,16.3301736203269
0.0177976357568487,16.3323219992153
0.0167771631445304,16.3344859891431
0.0157757742631818,16.3366741005749
0.014796084900981,16.3388938598631
0.0138404512942138,16.3411521734283
0.0129109783313702,16.3434555997912
0.012009531906028,16.3458105495864
0.0111377504310237,16.348223448508
0.0102970489619161,16.350700899326
0.00948863454104448,16.3532498041864
0.00871264095881121,16.355880580153
0.00794817589199737,16.3586848550317
0.00719905070177269,16.361682014081
0.00646898830602329,16.364895604664
0.00576194197852736,16.368352809857
0.00508206011251037,16.3720851618326
0.00443363328843602,16.3761294195019
0.00382099896973178,16.3805288181415
0.00324838527939517,16.3853350878856
0.00271969454777739,16.3906119273524
0.00223821245760033,16.3964416650586
0.00180649615044285,16.4029348825357
0.00143678954921324,16.410018443626
0.00113077504525648,16.4176737761351
0.000893556442674029,16.4260225845383
0.000745168039015506,16.4336818750209
0.000622008245763865,16.4427783584799
0.000538007384301983,16.4523274516828
0.000487691265719318,16.4623274516828
0.000467644568605737,16.4723274516828
0.000472310568838887,16.4823274516828
0.000498618720836052,16.4923274516828
0.000545881944734115,16.5023274516828
0.000609574627691024,16.511531332153
0.000688141429020865,16.5199771828641
0.000781522667398048,16.5277315137881
0.000890532848852614,16.534855785342
0.00101657416605815,16.5414059043605
0.00116151060929204,16.5474328891669
0.00132762304985047,16.5529834443894
0.00151760652742298,16.5581004306891
0.00173459411032881,16.5628232668224
0.00198220115573298,16.5671882937057
0.00226459158927879,16.5712291136548
0.00258656778404687,16.5749769095907
0.0029536913705976,16.5784607627633
0.00337244957053379,16.581707993871
0.00385048648678521,16.5847445506248
0.00439693892025409,16.5875954785084
0.0050229455625293,16.5902855553893
0.00573534889366379,16.5928171931922
0.00653005444653422,16.5951694058571
0.00742286297828396,16.5973900408375
0.00844062957182077,16.5995344916506
0.00963601610370357,16.6016828023629
0.0111531379724126,16.6040173865666
0.0126312196047567,16.6060145236812
0.0142493212418235,16.6080116607958
0.01564476252543,16.6096573856651
0.0168452309453243,16.6110755111835
0.0179102342254342,16.6123899495926
0.018851210435379,16.6136614663889
0.0196589828372994,16.614932989252
0.0203101195653325,16.616249111981
0.0207610415563108,16.6176751962113
0.0209175391926344,16.6193542058588
0.0204062185900204,16.621860378411
0.0196503094417486,16.623489137728
0.0186381563747904,16.6251178970451
0.0175208417866006,16.6266433034507
0.016301619292637,16.6281625653028
0.0149892028370675,16.6297226479478
0.0138997229993668,16.6309983017108
0.0128331272543231,16.6322739554738
0.0118941751457635,16.6334614938002
0.00997289546268028,16.6361355832336
0.00831963852167929,16.6387821305991
0.0069569962923227,16.6412970292883
0.00576178152005655,16.643843908024
0.00471722417575605,16.6464255874026
0.00386767022883985,16.6488562452439
0.00316883206514862,16.6511516846193
0.00258528182692815,16.6533345314809
0.00208987037550616,16.6554296500921
0.00166120061752962,16.6574666550785
0.00128122359587037,16.6594862654683
0.00093215737073122,16.6615571619903
0.000587681039022318,16.6638456748779
0.000307660259849163,16.6659201822602
5.39455525166498e-05,16.6679946896426
-0.000136450255213598,16.6696902408235
-0.000292940384887456,16.6711827055529
-0.000435198421796659,16.6726232565483
-0.00057321772497146,16.6741023458012
-0.00071615726553899,16.6757236584798
-0.00088015657734833,16.6777017828742
-0.00115581152151163,16.6813234685427
-0.00140338909933094,16.684904252502
-0.0016039145960563,16.6880329829773
-0.00180271470359617,16.6913330881719
-0.00204196618032016,16.69556253193
-0.00234087111371152,16.7012783453829
-0.00258476426723634,16.7065577428957
-0.00276112567285429,16.7113394808038
-0.00285878899151074,16.715665663312
-0.00286742623320466,16.7195836263276
-0.00278179846857508,16.7230858184197
-0.00260204919750973,16.7262381498151
-0.0023290550560839,16.729104732566
-0.00196040690369244,16.731758125165
-0.00148564449168848,16.7342815042529
-0.000874105281718553,16.7367975327531
-6.65577006340074e-05,16.7394606245565
0.000997126661042613,16.7423849384037
0.0020131637468703,16.7448769046972
0.00292213091700259,16.7469973043771
0.00392863576933463,16.749299669096
0.00498933609328704,16.7516916565003
0.00608302241589772,16.7540836439047
0.00703801260942544,16.7560515966683
0.00799147808872414,16.7578607743791
0.00901934956917837,16.7596185180396
0.0101421880799173,16.7613183914045
0.0114092105765413,16.7629940470086
0.0128276662339366,16.764617464472
0.0144325736843147,16.7661985583303
0.0162370310072026,16.7677240253075
0.0182601624058311,16.7691902505043
0.020529188730459,16.7706000420045
0.0230692540877013,16.7719537244669
0.0259075604798406,16.7732522279105
0.0290795508612404,16.774499099143
0.0326274355301872,16.7756983892024
0.0365987707056725,16.7768536275064
0.0410489846681184,16.7779683767916
0.0460428820034342,16.7790461957072
0.0516576856623318,16.7800908402783
0.057984596748436,16.7811060202385
0.0651328615811766,16.7820955687153
0.0732346545193875,16.7830635155198
0.0824525725527186,16.7840142670942
0.0929894015596241,16.7849527288633
0.105103340773503,16.7858845800403
0.119131554791804,16.7868166796303
0.135528916162337,16.7877577418182
0.154937578865178,16.7887196028959
0.177764499824167,16.7896974665946
0.204224201261706,16.7906814814694
0.235038348761481,16.7916831212129
0.271200667032202,16.7927194690199
0.314297232693497,16.7938217884278
0.350243025194241,16.7946700827013
0.387746024835162,16.7955183769749
0.421007040944541,16.7962660883769
0.450041169381011,16.7969415831596
0.475407237764328,16.797580019916
0.497137227698112,16.7982062411233
0.514834570940049,16.7988425944194
0.527579394471024,16.7995159755566
0.533426762524337,16.8002704289537
0.529093467312926,16.8010728553706
0.513015301556605,16.801900505809
0.483724353525667,16.8027693335949
0.439345281237521,16.8036906705942
0.377841822372938,16.8046728630908
0.333794692830821,16.8052728110406
0.285752546955378,16.8058727589904
0.24295552665992,16.8063804094944
0.206072169109076,16.8068101690314
0.173552911554624,16.8071916347898
0.144366748626242,16.807542963268
0.11787578969416,16.807875644603
0.0936309122404902,16.8081982468546
0.0712547516317204,16.808518678474
0.0503346979352437,16.8088467083806
0.0301711918255396,16.8092006640961
0.00803307040829381,16.8096546559932
-0.000392977011575789,16.8098539580411
-0.00806747474181546,16.810053260089
-0.0144593907336905,16.8102355983931
-0.0204677115226988,16.8104241031828
-0.026469477993029,16.8106334938304
-0.0322313131700016,16.810860402934
-0.0376077390806955,16.8111029039185
-0.042518689275404,16.8113603907964
-0.04692319116114,16.8116331403355
-0.0508038670145836,16.8119220728412
-0.0541807779417963,16.8122318644627
-0.0569628144312928,16.8125552974226
-0.0592303367483991,16.8129004718473
-0.0609978377063991,16.8132704910575
-0.0622798322183618,16.8136690873499
-0.0630899994737664,16.8141008783208
-0.0634396460021728,16.8145716363072
-0.0633359830640411,16.8150886928048
-0.0627796411320025,16.81566177845
-0.0617589901535743,16.8163050781605
-0.0602462439945163,16.8170373955891
-0.0581849117542466,16.8178875905021
-0.0554555961624619,16.8189067584202
-0.05173703543307,16.8202175406689
-0.0476917553269671,16.8216100962016
-0.0437854754743622,16.8229579379731
-0.0400639651215351,16.8242652886249
-0.0365495461236624,16.8255342366779
-0.0332535518689944,16.8267655164669
-0.0301807281854102,16.8279591786372
-0.0273312618585767,16.8291149479178
-0.0247019123673521,16.8302324112943
-0.0222867775124242,16.8313111143758
-0.0200778964933217,16.8323506057749
-0.0180657681480051,16.8333504503215
-0.0162398114463886,16.8343102223595
-0.0145887757312572,16.8352294853125
-0.0130306780817464,16.8361506805149
-0.0115326254910007,16.8370955215057
-0.0100990121558071,16.8380656743895
-0.00873370135351497,16.8390632882371
-0.00744034852134848,16.8400908878245
-0.00622243648369705,16.8411514685064
-0.00508314696694842,16.8422486197428
-0.00402530489878456,16.8433866918779
-0.00305132276824287,16.8445710266722
-0.00216314253768974,16.8458082849153
-0.00136217409251991,16.8471069276011
-0.000649228139680938,16.8484779513799
-2.44394371204217e-05,16.8499360694489
0.000512827928107143,16.8515017303473
0.000948323844769263,16.8531363641534
0.00128638958657745,16.854820507302
0.00154285040682087,16.856572524959
0.00173199360271847,16.8584145564661
0.00186723152454468,16.8603764199412
0.00196151341456913,16.8625008696645
0.00202794426315632,16.8648547744919
0.00208100894626096,16.8675574544893
0.00214026171868158,16.8708795522562
0.00222062668920599,16.8746288238396
0.00233306298836169,16.8786966906449
0.00248383494299299,16.8831626825215
0.00267461502059932,16.8881404769698
0.0028743713973249,16.8930027825935
0.00308694753635536,16.8979756683007
0.00326817047241491,16.9021054173312
0.00343903108708762,16.9059284097364
0.00360776032625855,16.9096300658286
0.00377885289222844,16.9132972586748
0.00395564296376939,16.9169842112524
0.00414106001834383,16.9207311402184
0.00433793483817392,16.9245711581576
0.00454920854752911,16.9285342213669
0.00477809041854482,16.9326494048583
0.00502820348946639,16.9369463190273
0.00530376955605844,16.94145629393
0.00560990177883821,16.9462135999945
0.00595311217494529,16.9512569288656
0.00633337270386377,16.9565119364609
0.0067290157347075,16.9616274781903
0.00714971615205386,16.9666975340461
0.00759609809104374,16.9716833189673
0.00807349801974405,16.9765970703018
0.00858722331711026,16.9814416744439
0.00914357803665138,16.9862222455406
0.0097494183536338,16.9909410305221
0.0104122641316103,16.9955983028533
0.0111523298852602,17.0002644996985
0.0119872187824771,17.004959631506
0.0129365408142471,17.0096922138831
0.014028491986557,17.0144880873277
0.0153061478853406,17.0194066955821
0.0168521270974272,17.0245993740231
0.0189049513872629,17.0305821503244
0.0206904093903741,17.0352268557589
0.0225945678802737,17.0398715611935
0.0241700853497411,17.0436713621184
0.0254749198305309,17.0469664405201
0.0265687247364678,17.0500388266405
0.027450763004145,17.0530286791246
0.0280641798366608,17.0558690380934
0.0284115818542507,17.0586792990658
0.028470167120737,17.0616036549267
0.0281556493905935,17.0649117930287
0.0271583238687782,17.069306977109
0.0262683952173149,17.0720061513457
0.0252144446255953,17.0747053255823
0.0241470839524394,17.0771620833891
0.0230795169213401,17.0794667279284
0.0220117893976343,17.0816868496186
0.0209464933599006,17.0838600278812
0.0198871696072402,17.0860097925162
0.018837437419621,17.0881526078324
0.0178007255759656,17.0903009542106
0.0167802002724798,17.0924648842193
0.0157787504959995,17.0946529120092
0.0147989928399132,17.0968725662441
0.0138432843097351,17.0991307547384
0.0129137305133382,17.1014340367623
0.0120121980711042,17.1037888230596
0.0111403260379602,17.1062015391136
0.0102995301304767,17.1086787869374
0.00949101800552192,17.1112274675606
0.00871499487501951,17.1138577464198
0.00795048910916501,17.1166614694933
0.00720131235386348,17.119658010367
0.00647118679872868,17.1228709063627
0.00576406510278018,17.1263273284364
0.00508409513224058,17.1300587944714
0.00443556716908978,17.1341020459837
0.00382281876186622,17.1385002961818
0.0032500787094025,17.1433052451983
0.00272125077993244,17.1485805476514
0.00223962288495503,17.1544084629813
0.00180775438994156,17.1608994702006
0.00143784644243796,17.1679814395928
0.0011316503926422,17.1756348639535
0.000894222487868153,17.1839813371858
0.000745296477528668,17.191661865497
0.00062225317854083,17.2007462910308
0.000538160423906286,17.2102987803964
0.000487806448281086,17.2202987803965
0.000467734465511591,17.2302987803965
0.000472384612022904,17.2402987803965
0.000498684263998277,17.2502987803965
0.000545944973458245,17.2602987803965
0.000609638881259998,17.2695025123628
0.000688209946755638,17.2779482154396
0.000781597916772358,17.2857024061473
0.000890617028606579,17.2928265455342
0.00101666939972948,17.2993765407626
0.00116161907134767,17.3054034104227
0.00132774705833673,17.310953859372
0.00151774862164439,17.3160707484758
0.0017347571239014,17.3207934966904
0.00198238829378185,17.3251584451493
0.00226480651659573,17.3291991964318
0.00258681473402949,17.332946933802
0.00295397528575844,17.3364307389826
0.00337277629434543,17.3396779333491
0.0038508630369665,17.3427144656047
0.00439737389684892,17.34556538272
0.00502344979365733,17.348255464856
0.00573591622503716,17.350787064234
0.00653069825351633,17.3531392764937
0.00742360587397694,17.3553599591016
0.00844151309017986,17.3575045272614
0.00963713433958845,17.3596530900246
0.0111548247667314,17.3619883592016
0.012632055890312,17.3639842980328
0.0142490728020292,17.3659802368641
0.0156442098956052,17.3676257943787
0.0168445317586238,17.3690439359576
0.017909412405889,17.3703584193057
0.018850271393357,17.3716299928669
0.0196579268696997,17.3729015834753
0.0203089429555978,17.3742177889517
0.0207597337216504,17.3756439831632
0.0209160664574141,17.3773231761253
0.0204044378351,17.3798296851469
0.019648434524049,17.3814584286796
0.0186362573252341,17.3830871722123
0.0175189356018012,17.3846126092608
0.0162997217736551,17.3861319193221
0.0149873302890946,17.3876920588197
0.0138998494658918,17.3889654555189
0.0128351051176321,17.3902388522182
0.0118989770580387,17.3914225857242
0.00997704459078113,17.3940967623328
0.00832300389154732,17.3967437261562
0.00695993658362882,17.3992586010241
0.00576437059768625,17.4018053720978
0.00471936021879818,17.4043872927181
0.00386944657175273,17.4068181745404
0.00317032469763931,17.4091138088397
0.00258654928805422,17.4112968193321
0.0020909582492498,17.4133920658183
0.00166214521189687,17.4154291540456
0.00128205529160936,17.4174487839672
0.000932906145674958,17.4195195813746
0.000588396985497257,17.4218076401693
0.000308163460651031,17.4238831544021
5.42696530391252e-05,17.4259586686349
-0.000136194284325674,17.4276545100931
-0.000292720424247216,17.4291470559769
-0.000435004785638026,17.4305876269725
-0.000573044880473962,17.4320666894349
-0.000716000127516167,17.4336879076986
-0.000880004347425448,17.4356657535669
-0.00115549999408168,17.4392845956619
-0.00140290237351035,17.4428618792205
-0.00160324260307712,17.4459867052725
-0.00180184334434335,17.4492822746202
-0.00204070859328901,17.4535030263523
-0.00233986070558188,17.4592205254795
-0.00258403376892713,17.4645020198205
-0.00276070588560219,17.4692857006654
-0.00285871561350931,17.4736136465997
-0.00286772452551257,17.4775334895626
-0.0027824660044121,17.4810372320826
-0.00260307494862524,17.484190923744
-0.0023304405406619,17.4870585423551
-0.0019621719411321,17.4897126855979
-0.00148785319799443,17.4922364604966
-0.000876944359138649,17.4947522707508
-7.01907442746891e-05,17.4974148841685
0.000992189426028053,17.5003374541431
0.00200921824878739,17.5028327304569
0.00291816478652416,17.5049533941281
0.00392372117104277,17.5072537884002
0.00498639580059692,17.5096504772744
0.00608210014975766,17.5120471661487
0.00703728282335949,17.5140157251336
0.00799053486154201,17.5158247176141
0.00901836748633879,17.5175826413819
0.0101411312358483,17.5192826479115
0.0114080675743291,17.5209584338004
0.0128264552469904,17.5225820045793
0.0144312567113222,17.524163214446
0.0162353026718919,17.5256885546356
0.0182582451350183,17.5271548660057
0.0205270683151058,17.5285647426052
0.023066902538628,17.5299185024167
0.0259048178217674,17.5312170202551
0.0290764637346834,17.5324639438771
0.0326239636867267,17.5336632838308
0.0365948637121785,17.5348185682663
0.0410445670628235,17.5359333559733
0.0460378970641288,17.5370112130303
0.0516520531346418,17.5380558923694
0.0579782209965876,17.5390711036053
0.0651256282200087,17.5400606797779
0.0732264219468614,17.541028650159
0.0824431729231391,17.541979421555
0.0929786228999242,17.5429178986816
0.105090913234305,17.5438497600786
0.119117123086964,17.5447818635307
0.135512006824608,17.5457229219216
0.154917518180699,17.5466847685236
0.177741287941092,17.547662639196
0.204197268376822,17.5486466537213
0.235006956046209,17.5496482830789
0.271163777173156,17.5506846045237
0.314253048884801,17.5517868634734
0.350201989305378,17.5526353062947
0.387709627547292,17.5534837491159
0.420974474424189,17.554231558668
0.450011590254952,17.5549071099537
0.475380423915273,17.5555455773482
0.497113348750694,17.5561718087062
0.51481417048629,17.5568081506175
0.527563613666532,17.5574814902339
0.533418191378864,17.5582358435187
0.52909489145743,17.5590382616972
0.513027945258169,17.5598658859091
0.483749919090551,17.5607346725709
0.439385820919586,17.5616559573596
0.377899543871878,17.5626380859892
0.333847481291114,17.5632381922828
0.285797053207472,17.5638382985765
0.242993115455309,17.5643460549383
0.20610506141759,17.5647758766376
0.173582392149072,17.5651573808126
0.144393543609368,17.5655087339033
0.117900371566783,17.5658414303905
0.0936536449827775,17.5661640399619
0.0712759846031032,17.5664844706485
0.050354900572727,17.5668124874967
0.0301914317481259,17.5671664013226
0.00806045697768039,17.5676201585276
-0.000375229412868186,17.5678196427199
-0.00805793667500531,17.5680191269121
-0.0144513799225379,17.5682014883824
-0.020459485772328,17.5683899640325
-0.0264614023753008,17.5685993308012
-0.0322236392222435,17.5688262197996
-0.0376006089834037,17.5690687022956
-0.0425121797566077,17.5693261708952
-0.0469173398123852,17.5695989013981
-0.0507986875445874,17.5698878133614
-0.054175417407497,17.5701974920121
-0.0569582634297647,17.5705208923786
-0.0592265874334966,17.5708660310431
-0.0609948687112988,17.5712360091804
-0.0622776220386944,17.5716345578149
-0.0630885290456679,17.5720662929296
-0.0634389012834114,17.5725369847206
-0.0633359581376175,17.5730539617356
-0.0627803455699075,17.5736269481326
-0.0617604550601817,17.574270123578
-0.0602485339510948,17.5750022800745
-0.0581881561877506,17.5758522546531
-0.0554600845920655,17.5768710863334
-0.0517437068511488,17.5781811868922
-0.0476982612553281,17.5795738274792
-0.0437917070555178,17.5809217416246
-0.0400698691868981,17.5822291587533
-0.0365550952176247,17.5834981707862
-0.0332587327100744,17.5847295137968
-0.030185536683764,17.5859232392968
-0.0273357005788918,17.5870790724199
-0.0247059889689034,17.5881966003147
-0.0222905036075065,17.589275368632
-0.0200812867059522,17.5903149259746
-0.0180688392909404,17.5913148371557
-0.0162425817893143,17.5922746765232
-0.0145912643536414,17.5931940075466
-0.0130330729039982,17.5941151645399
-0.0115349180198418,17.5950599654253
-0.0101011957755947,17.5960300749197
-0.0087357693903305,17.5970276415447
-0.0074422949636061,17.5980551893847
-0.00622425588440673,17.5991157129268
-0.00508483442261096,17.6002128005282
-0.00402685613958709,17.60135080111
-0.00305273425199349,17.6025350545607
-0.00216441154855146,17.6037722191514
-0.00136329884695649,17.6050707523906
-0.000650207904516783,17.606441645935
-2.52746691603743e-05,17.6078996055019
0.00051213540126482,17.6094650677557
0.000947807378635638,17.6110996352455
0.0012860204633866,17.6127836810571
0.00154260394213272,17.6145355692934
0.00173184683680985,17.6163774292206
0.00186716264627901,17.6183390628358
0.001961500951959,17.6204631961083
0.00202796573968575,17.6228166420797
0.00208103778113018,17.6255185878541
0.00214025557418216,17.628839219463
0.00222058118940233,17.6325883184934
0.00233294728776841,17.6366553124309
0.0024836614386266,17.6411208403348
0.00267442308560229,17.6460988890093
0.00287416566352979,17.650961206639
0.00308678707493971,17.6559353149176
0.00326802305465094,17.6600654060146
0.00343888779087497,17.6638885275412
0.00360761706917847,17.6675902324613
0.00377870681577906,17.6712574293322
0.00395549163995079,17.674944354746
0.00414090118683112,17.6786912320036
0.00433776626401198,17.6825311772593
0.00454902787069745,17.6864941479184
0.00477789504975744,17.6906092191273
0.00502799048284479,17.6949060005507
0.00530353543777612,17.699415820771
0.00560964225678487,17.7041729477642
0.00595282167536971,17.7092160698635
0.00633307079646299,17.7144711999738
0.00672869360025343,17.7195867653748
0.00714937439502757,17.7246568888108
0.00759573278827597,17.7296427308889
0.00807310545277098,17.7345565386794
0.00858679886151455,17.7394011950158
0.00914311661716148,17.7441818161256
0.0097489143636269,17.748900650426
0.0104117113892463,17.7535579726985
0.0111517068362028,17.7582241391357
0.0119865137788526,17.7629192487895
0.0129357351469736,17.7676517938191
0.0140275591738992,17.7724476003628
0.0153050432918481,17.7773660705344
0.016850753412325,17.7825584168641
0.018902940573812,17.7885400326058
0.0206888425837647,17.7931862918636
0.0225935824907392,17.7978325511214
0.0241693265189967,17.8016328613857
0.0254742854536712,17.8049281234011
0.0265681985307626,17.8080005811322
0.027450380590152,17.8109905472513
0.0280639340040335,17.8138309544412
0.0284114760472947,17.8166411977532
0.0284702233743203,17.819565445473
0.0281559462172764,17.822873250286
0.0271588402944,17.8272685920389
0.0262689584047267,17.8299679667452
0.0252150067869896,17.8326673414515
0.0241476436147427,17.8351242103833
0.0230800767640211,17.8374289135827
0.022012348781855,17.8396490680146
0.0209470505682096,17.8418222639519
0.0198877227283897,17.8439720362075
0.0188379845986533,17.8461148517843
0.0178012650827909,17.8482631926627
0.0167807305225414,17.8504271124075
0.0157792700453603,17.8526151258204
0.0147995003848186,17.8548347619765
0.0138437786801714,17.8570929289435
0.0129142106645207,17.859396186133
0.0120126630847593,17.8617509443212
0.0111407751074472,17.8641636289706
0.0102999625644304,17.8666408419811
0.00949143321974782,17.8691894842105
0.008715404950315,17.8718196765166
0.00795089209911756,17.8746233035241
0.00720170636429505,17.8776197367787
0.00647156980840298,17.880832511856
0.00576443498331779,17.8842887976046
0.00508444966344978,17.8880201094239
0.00443590407894044,17.8920631858067
0.00382313579367691,17.8964612361258
0.00325037372518225,17.9012659552983
0.00272152189385273,17.9065409902904
0.00223986860178554,17.9123685885274
0.0018079736051804,17.9188592111914
0.00143803061419087,17.92594090352
0.00113180298590797,17.933593995673
0.000894339923198403,17.9419400622717
0.000745329146008728,17.9496238041135
0.000622301559511712,17.9587063273716
0.000538192818902823,17.9682592866082
0.00048783131923124,17.9782592866082
0.000467754417759277,17.9882592866082
0.000472401618200231,17.9982592866082
0.000498699886105746,18.0082592866082
0.00054596052872362,18.0182592866082
0.000609654925681163,18.0274629491255
0.000688227059997075,18.0359085853835
0.000781616592163931,18.0436627144568
0.000890637716528851,18.0507867971567
0.00101669254078418,18.0573367403367
0.00116164511928315,18.0633635623086
0.00132777649759864,18.0689139676817
0.00151778198251481,18.0740308170988
0.00173479499680578,18.0787535293187
0.00198243134457283,18.0831184453038
0.00226485550384023,18.0871591674901
0.00258687053043341,18.0909068790303
0.00295403890544144,18.0943906615737
0.00337284892997872,18.097637836472
0.00385094611230645,18.100674352472
0.00439746914444035,18.103525256685
0.0050235593770572,18.1062153295633
0.00573603871586372,18.108746910757
0.00653083612197459,18.1110991126103
0.00742376325263147,18.1133197940999
0.00844169747048073,18.1154643739073
0.00963736249052393,18.1176129720273
0.0111551555527659,18.1199483514614
0.0126322440438146,18.1219440765934
0.0142490781947055,18.1239398017254
0.0156441674043882,18.1255853256252
0.0168444681934968,18.1270034661584
0.0179093315845542,18.128317953865
0.0188501739731944,18.1295895340781
0.0196578126073595,18.1308611334071
0.0203088108506407,18.1321773503318
0.0207595814428621,18.133603560863
0.0209158872548207,18.1352827833186
0.0204042038316539,18.1377893493784
0.0196481826658476,18.1394180865805
0.018635999549057,18.1410468237826
0.0175186742893518,18.1425722636055
0.0162994590709701,18.1440915801687
0.0149870684623916,18.145651728204
0.0138999139121803,18.1469247530639
0.012835471791554,18.1481977779239
0.0118998018971628,18.149380890808
0.00997775530727635,18.1520550851138
0.00832358085423424,18.1547021197954
0.00696044139664108,18.1572169901596
0.00576481600597481,18.1597637424475
0.00471973522232275,18.1623456871048
0.00386976454317843,18.1647765928971
0.00317059654622797,18.1670722500604
0.00258678344045491,18.1692552824986
0.00209116117611268,18.1713505503058
0.00166232179963825,18.1733876598268
0.00128220902316202,18.175407312412
0.000933039044083112,18.1774781370047
0.000588508358519305,18.1797662393639
0.000308266421714325,18.1818417299009
5.43651124461061e-05,18.1839172204378
-0.000136106866462167,18.1856130660542
-0.000292640128830269,18.1871056232456
-0.000434930972891569,18.1885462080698
-0.000572977285027779,18.1900252870243
-0.00071593898540072,18.1916465272674
-0.000879950948128237,18.1936244096833
-0.00115546854915793,18.1972434587932
-0.00140289122632534,18.200820986762
-0.00160324951128407,18.2039460750608
-0.00180186832978822,18.2072419454714
-0.00204076296329235,18.2114632517969
-0.00233990293250041,18.2171806243754
-0.00258406003865528,18.2224619694657
-0.00276071298161902,18.2272455157372
-0.00285870030695313,18.2315733425654
-0.00286768449847853,18.2354930588755
-0.0027824009156645,18.2389967027966
-0.00260298507738938,18.2421503103236
-0.00233032512321194,18.2450178705744
-0.00196202899878831,18.2476719766906
-0.00148767757468231,18.2501957410984
-0.000876721687205467,18.2527115884412
-6.99089297970646e-05,18.255374260058
0.000992569169129227,18.2582969891712
0.0020095195365262,18.2607920333733
0.00291846889078549,18.2629127035206
0.00392410637366749,18.2652132928828
0.00498660350273027,18.2676095856965
0.00608212739506138,18.2700058785102
0.00703729197246349,18.2719743999378
0.00799055596733365,18.2737834115457
0.00901838933716349,18.275541329807
0.0101411563729724,18.2772413335253
0.0114080963931116,18.2789171161332
0.0128264860665654,18.2805406815364
0.0144312913274566,18.2821218880098
0.0162353599865314,18.2836472400807
0.0182583099984912,18.2851135493451
0.020527140702887,18.286523423682
0.023066983273565,18.2878771815649
0.0259049159865406,18.2891757013156
0.029076575487316,18.290422624416
0.0326240905095614,18.2916219639412
0.0365950076578971,18.2927772481343
0.0410447316706878,18.2938920360432
0.0460380846474161,18.2949698932998
0.0516522674266336,18.2960145730474
0.0579784666710187,18.2970297849295
0.0651259111644361,18.2980193620188
0.073226749893003,18.2989873336551
0.0824435556461232,18.2999381066747
0.092979073700586,18.3008765859066
0.105091450558349,18.3018084500363
0.119117773692366,18.3027405570842
0.135512810786582,18.3036816202774
0.154918540398172,18.3046434735369
0.177742486875165,18.3056213478307
0.204198686892096,18.306605367267
0.235008658254545,18.3076070034553
0.271165867926688,18.308643334827
0.314255737610362,18.3097456097754
0.350204060776515,18.3105940416053
0.387710881624143,18.3114424734351
0.420975057544872,18.3121902778005
0.450011640803643,18.3128658285216
0.47537998118444,18.3135042978589
0.49711239759754,18.3141305329419
0.514812652344363,18.3147668803234
0.527561410916919,18.3154402276787
0.533415063769103,18.3161945926403
0.52909063316515,18.31699701507
0.513022489750407,18.3178246444442
0.483743170314718,18.3186934365525
0.439377687191257,18.3196147264233
0.377889965059352,18.3205968600146
0.333838949885095,18.3211969453542
0.285790013565144,18.3217970306938
0.242987289551933,18.3223047734094
0.206100070256563,18.3227345875115
0.173578014805907,18.3231160873242
0.144389652404791,18.3234674378934
0.117896882706984,18.3238001330942
0.0936504954347404,18.3241227423814
0.0712731182529395,18.3244431738198
0.0503522511682586,18.3247711929138
0.0301888668438603,18.3251251124798
0.00805714252464126,18.3255788984507
-0.000377364101303859,18.3257783614536
-0.00805906499709489,18.3259778244564
-0.0144523132817773,18.3261601839407
-0.0204604310732576,18.3263486638419
-0.0264623135574966,18.32655803426
-0.0322244851112565,18.3267849264841
-0.0376013723910937,18.327027412042
-0.0425128518974242,18.3272848837121
-0.0469179169293515,18.3275576174151
-0.0507991689353414,18.3278465328031
-0.0541760330213624,18.3281562393062
-0.0569587462502097,18.3284796457101
-0.0592269384274393,18.3288247908071
-0.060995092109185,18.3291947762326
-0.0622777220292479,18.3295933332093
-0.0630885093711724,18.3300250779682
-0.0634387648535188,18.330495781033
-0.0633357065730523,18.3310127713986
-0.0627799780888791,18.3315857742204
-0.0617599676171277,18.3322289699425
-0.060247917534098,18.3329611523092
-0.0581873922619513,18.3338111617329
-0.0554591312098705,18.3348300456029
-0.0517424270498555,18.3361402495661
-0.0476970169265027,18.3375328758543
-0.0437905157814832,18.3388807774768
-0.0400687397014356,18.3401881828345
-0.0365540320731351,18.3414571833564
-0.0332577380965998,18.3426885148717
-0.030184611216486,18.3438822287764
-0.0273348437052132,18.3450380501564
-0.0247051992263737,18.3461555661469
-0.0222897788193336,18.3472343224017
-0.0200806241469313,18.3482738675327
-0.0180682358354587,18.349273766361
-0.0162420340445795,18.350233593237
-0.0145907687784068,18.3511529116241
-0.0130325945186748,18.3520740757577
-0.0115344583971776,18.3530188841345
-0.0101007561392869,18.35398900173
-0.00873535107613561,18.3549865771685
-0.00744189911555659,18.3560141346633
-0.00622388351212216,18.3570746688634
-0.00508448643407803,18.3581717683317
-0.00402653332414197,18.3593097822542
-0.00305243726257017,18.3604940508684
-0.00216414088298443,18.3617312329145
-0.00136305482785402,18.3630297865501
-0.000649990656734069,18.3644007043619
-2.50840930248401e-05,18.3658586934601
0.000512299664818007,18.3674241927202
0.000947939131712734,18.3690587725869
0.00128612506401791,18.3707428365513
0.00154268600225998,18.3724947489152
0.00173191065322389,18.3743366408217
0.00186721231001044,18.3762983172707
0.00196154050279427,18.3784225095041
0.00202799942366137,18.3807760409564
0.00208107064375697,18.3834781234854
0.00214029567555898,18.3867990280888
0.00222062953100465,18.3905481592564
0.00233300983404411,18.3946153157657
0.00248374754433356,18.3990812429297
0.00267450869520807,18.4040590655348
0.00287425800444055,18.4089213736674
0.00308683915225762,18.4138943971943
0.00326806500897931,18.418024185699
0.00343892744203962,18.4218471938133
0.00360765748626035,18.425548856679
0.00377874984618314,18.4292160513508
0.00395553873211106,18.4329030023426
0.00414095366245754,18.4366499270602
0.00433782544569168,18.440489938511
0.00454909519492943,18.4444529931421
0.0047779721256639,18.44856816601
0.00502807916362888,18.452865067471
0.00530363792367272,18.4573750274677
0.00560976129270309,18.4621323162304
0.00595296088896896,18.467175625141
0.00633321335539944,18.472430677453
0.00672884573268264,18.4775462424006
0.00714953465142925,18.4826163292133
0.00759590332335903,18.487602141957
0.00807328818884743,18.4925159207013
0.00858699630840981,18.4973605513255
0.00914333148226553,18.5021411487412
0.00974914957218293,18.5068599603374
0.0104119700854893,18.5115172598982
0.0111519993847128,18.5161834415971
0.0119868458695378,18.5208785626625
0.0129361155520439,18.5256111262902
0.0140280004818504,18.5304069655065
0.0153055670591767,18.5353255024023
0.016851406433016,18.5405180084896
0.0189038995397878,18.546500181501
0.0206895884654889,18.5511456947777
0.0225940493370244,18.5557912080544
0.0241696847591546,18.5595912739215
0.0254745841033958,18.5628864478696
0.0265684454105953,18.5659588712525
0.0274505586558746,18.5689487829589
0.0280640467068943,18.571789167082
0.0284115217352135,18.5745994188905
0.0284701914926549,18.5775237184503
0.0281557991671718,18.58083168294
0.0271585881287636,18.5852269492178
0.0262686838649983,18.5879262279708
0.0252147327555483,18.5906255067239
0.0241473707863938,18.5930823224988
0.0230798038454194,18.5953869976754
0.0220120760698934,18.597607136505
0.0209467788765118,18.5997803240647
0.0198874529632177,18.6019300927688
0.0188377176388407,18.6040729083325
0.0178010017468583,18.6062212519731
0.0167804715586151,18.608385176782
0.0157790161335309,18.6105731972534
0.0147992521372589,18.6127928422706
0.0138435366441475,18.6150510197868
0.0129139753265684,18.6173542891532
0.0120124348699166,18.6197090611399
0.0111405543865146,18.6221217612306
0.0102997496521896,18.6245989913929
0.00949122837898842,18.6271476525831
0.00871520250743224,18.6297778865711
0.00795069297668925,18.6325815598444
0.00720151145974843,18.6355780449231
0.00647138007780953,18.6387908782215
0.00576425143131275,18.6422472295994
0.00508427333514312,18.6459786156463
0.00443573603975895,18.6500217763008
0.00382297709580579,18.6544199227651
0.00325022535603079,18.6592247524367
0.00272138470912179,18.6644999159104
0.00223974325407041,18.6703276662988
0.00180786053601088,18.6768184731931
0.00143793375882682,18.6839002988682
0.00113172053695018,18.6915535509216
0.000894273922897451,18.6998998132399
0.000745306882238091,18.7075817853396
0.000622267856403771,18.7166653265097
0.000538164712266539,18.7262180169142
0.0004878038323147,18.7362180169142
0.000467725792574672,18.7462180169142
0.000472370132752567,18.7562180169142
0.00049866365351733,18.7662180169142
0.000545917259514564,18.7762180169142
0.000609605211022537,18.7854220204663
0.000688170151984045,18.7938679833522
0.000781551464349884,18.8016224124999
0.000890563159718191,18.8087467702627
0.00101660717223346,18.8152969653246
0.00116154736987466,18.8213240176267
0.00132766458801068,18.826874633226
0.00151765389127379,18.8319916740611
0.0017346484215201,18.8367145600446
0.00198226365285689,18.8410796331542
0.00226466367273213,18.8451204967009
0.00258665106691516,18.8488683345647
0.00295378774259156,18.852352228952
0.00337256128352042,18.8555995015611
0.00385061627643566,18.8586361012118
0.00439709018965997,18.8614870747056
0.00502312267507404,18.8641772016042
0.00573555032467398,18.8667088728761
0.00653028651943286,18.8690611334597
0.00742313659078117,18.87128183712
0.00844096520822278,18.873426390091
0.00963646113037523,18.8755748721158
0.0111538634708812,18.8779098560899
0.0126314767289627,18.8799063920607
0.0142489848933674,18.8819029280314
0.0156442440150111,18.8835485862089
0.0168446154270055,18.8849667378425
0.0179095358050351,18.8862812157613
0.01885043325316,18.8875527771979
0.019658128406884,18.8888243497465
0.0203091875703765,18.8901405295079
0.0207600287105584,18.8915666844812
0.0209164319401022,18.8932458015359
0.0204049555431009,18.895752157901
0.0196490040594645,18.8973809253723
0.0186368466243162,18.8990096928436
0.0175195392386262,18.9005351270913
0.0163003350403988,18.9020544229443
0.0149879481050132,18.9036145416978
0.013899612297876,18.9048889202239
0.0128340761483814,18.90616329875
0.0118967445908932,18.9073486701492
0.00997512902986818,18.9100227934558
0.00832145366608424,18.9126695647739
0.00695858323027865,18.9151844528103
0.00576317923726302,18.917731275897
0.00471839781776483,18.9203130329469
0.00386866185644872,18.9227437666163
0.0031696762152888,18.9250392761322
0.00258600536549012,18.9272221872718
0.00209049415926481,18.9293173639894
0.00166174074796854,18.9313544205738
0.00128169222862008,18.9333740758798
0.00093256332553349,18.9354450087407
0.000588029948334624,18.9377335384005
0.000307953701608228,18.9398081398181
5.41906257361522e-05,18.9418827412356
-0.000136236888418148,18.9435783386884
-0.000292751385408121,18.9450708342621
-0.000435030826670625,18.9465114126551
-0.000573070213614736,18.947990527899
-0.000716029935702372,18.9496118679665
-0.000880051475367175,18.9515900227375
-0.0011557390345077,18.9552117217272
-0.0014033438630243,18.9587925129634
-0.00160388949428153,18.9619212377114
-0.00180270811227317,18.9652213300858
-0.00204197777740392,18.9694507106792
-0.00234090453273288,18.9751664761895
-0.0025848125194316,18.9804458392876
-0.0027611816806086,18.9852275560547
-0.00285884608160197,18.9895537281406
-0.00286747857994799,18.993471709263
-0.00278184106411427,18.9969739264805
-0.00260207886047133,19.0001262849681
-0.00232906982994403,19.0029928998132
-0.00196040598901409,19.0056463261274
-0.00148562747784616,19.0081697417663
-0.000874070461049043,19.0106858160528
-6.65081149668881e-05,19.0133489496191
0.000997195990801992,19.0162733353375
0.00201321052003534,19.0187652843538
0.0029221724720372,19.0208857188727
0.00392868857009586,19.0231881695467
0.00498933431392511,19.0255801023325
0.00608296269222637,19.0279720351183
0.00703793149816757,19.0299400054905
0.00799137211492938,19.0317491931782
0.00901922313614541,19.0335069575555
0.0101420397544255,19.035206851234
0.0114090383606871,19.0368825274936
0.0128274679025367,19.0385059652699
0.0144323454684922,19.0400870783168
0.0162367649138141,19.0416125602237
0.0182598571252961,19.0430788022981
0.0205288389608988,19.0444886097029
0.0230688537531899,19.0458423070774
0.0259071005044944,19.0471408234985
0.029079025541993,19.0483877078244
0.0326268364731336,19.0495870103038
0.0365980883446414,19.0507422603833
0.0410482077115856,19.0518570207468
0.0460419983673149,19.0529348502776
0.0516566811368015,19.0539795049642
0.0579834549321756,19.0549946945785
0.0651315634632376,19.0559842522904
0.0732331778477822,19.0569522079458
0.082450891486174,19.0579029680665
0.0929874856978904,19.0588414381453
0.105101154450321,19.059773297505
0.11912905632131,19.0607054053143
0.135526058118896,19.0616464760543
0.154934309815423,19.0626083465163
0.177760737188996,19.0635862193112
0.204219877595073,19.0645702438861
0.235033393667003,19.0655718944632
0.271195011215627,19.0666082549884
0.314290811589381,19.0677105900708
0.350236217796969,19.0685589022857
0.387738832180856,19.0694072145005
0.420999538149625,19.0701549418917
0.450033405910763,19.0708304507024
0.475399232311619,19.0714688995457
0.497128995547896,19.0720951308974
0.514826141115358,19.0727314920404
0.527570838525736,19.073404877465
0.533418296082721,19.0741593272845
0.529085427279375,19.074961759963
0.513007883583837,19.0757894136548
0.483717822636487,19.0766582412652
0.439340005020387,19.0775795743901
0.377838272937737,19.0785617596481
0.333791906986789,19.0791617083097
0.285750511871658,19.0797616569713
0.242954054524043,19.0802693086713
0.206071100504351,19.0806990697389
0.173552150886136,19.081080537106
0.144366236234786,19.0814318671593
0.117875485333445,19.0817645499938
0.0936307879154217,19.0820871536421
0.0712547891967839,19.0824075865102
0.0503348912063251,19.0827356173924
0.0301715629834155,19.0830895733201
0.00803386141990206,19.0835435596779
-0.000392421116401666,19.0837428683709
-0.00806711585766666,19.083942177064
-0.0144590524211783,19.0841245176176
-0.0204673395963583,19.0843130230826
-0.0264690783710595,19.0845224146143
-0.0322308910578656,19.0847493247672
-0.037607298289241,19.0849918269076
-0.0425182328438401,19.085249315015
-0.0469227216762962,19.085522065839
-0.0508033867600601,19.0858109996747
-0.054180517739421,19.0861208166714
-0.0569625063015176,19.0864442529515
-0.05922998053157,19.0867894306367
-0.0609974361406334,19.0871594533923
-0.0622793879240498,19.0875580535702
-0.0630895148368299,19.0879898488304
-0.0634391230953848,19.0884606115894
-0.0633354235684189,19.088977673447
-0.0627790460868263,19.0895507652954
-0.0617583598598203,19.0901940721991
-0.060245577815616,19.0909263981677
-0.0581842074228972,19.0917766036322
-0.0554548475539591,19.0927957856999
-0.0517362205388695,19.0941065919167
-0.0476909679676229,19.0954991416931
-0.0437847215436284,19.0968469778496
-0.0400632477598037,19.0981543228077
-0.0365488670172718,19.0994232650174
-0.0332529117880415,19.1006545387911
-0.0301801272200902,19.1018481947758
-0.0273306995518305,19.103003957713
-0.0247013878117427,19.1041214146055
-0.0222862894345912,19.1052001110796
-0.0200774433330772,19.1062395957631
-0.018065348133302,19.1072394334973
-0.0162394226632385,19.1081991986322
-0.0145884161873217,19.1091184545916
-0.0130303282815715,19.1100396538138
-0.0115322863049039,19.1109844990174
-0.0100986842607457,19.1119546564518
-0.00873338529149972,19.1129522752454
-0.00744004489766272,19.1139798802466
-0.00622214589148258,19.1150404669009
-0.00508286994222732,19.1161376247834
-0.00402504191091583,19.1172757043864
-0.00305107421001278,19.1184600476655
-0.00216290871491853,19.1196973156725
-0.0013619552129059,19.1209959697639
-0.000649024300364263,19.1223670071096
-2.42506099299717e-05,19.1238251416848
0.000513001915825662,19.1253908232638
0.000948479520750802,19.1270254640237
0.00128652992362968,19.1287096173485
0.00154297796623423,19.1304616485182
0.00173211077424503,19.1323036979244
0.00186734058799809,19.1342655853643
0.00196161662763416,19.1363900680664
0.00202804400870053,19.1387440206987
0.00208110807207297,19.1414467771752
0.00214036480056362,19.1447690276654
0.00222073445048897,19.1485183173867
0.00233317903391451,19.1525862752204
0.00248397854928617,19.1570528666144
0.00267475269703091,19.1620303207369
0.00287451635090289,19.1668926128281
0.00308703056753624,19.1718638656268
0.00326823788515259,19.1759931590337
0.00343909491846867,19.1798159809665
0.00360782525555761,19.1835175742426
0.00377892168647223,19.1871847644473
0.0039557177677676,19.1908717563564
0.00414114278629432,19.1946187577472
0.00433802753472588,19.1984588764808
0.00454931332003717,19.2024220674328
0.00477820968442455,19.2065374055095
0.0050283400418825,19.2108345021893
0.00530392671733796,19.2153446896271
0.00561008369772461,19.220102241717
0.00595332433841611,19.2251458547853
0.00633358950163346,19.2304007445516
0.00672924662622196,19.2355162860365
0.00714995892074605,19.2405862868133
0.00759635598830132,19.2455720277591
0.00807377393466292,19.2504857355646
0.00858752102305038,19.2553303012409
0.00914390159920593,19.2601108369436
0.00974977216098351,19.2648295880503
0.0104126528953939,19.2694868265172
0.0111527690880283,19.2741530461636
0.0119877169316323,19.2788481950448
0.0129371112593108,19.2835808052324
0.0140291536756853,19.2883767275146
0.0153069329009978,19.2932954354768
0.016853105269951,19.2984883526363
0.0189063868456102,19.304471962048
0.0206915270727622,19.3091155548488
0.0225952693821766,19.3137591476496
0.0241706245886804,19.3175585835444
0.0254753699363705,19.3208535303037
0.0265690973848365,19.3239258650934
0.0274510326979163,19.3269156362284
0.0280643517347242,19.3297559607396
0.0284116534793891,19.3325662344818
0.0284701226704894,19.335490667987
0.0281554325614205,19.3387990452104
0.0271579497529886,19.3431941164595
0.0262679876235755,19.3458931471905
0.0252140377877523,19.3485921779216
0.0241466789140889,19.3510488562365
0.0230791117492178,19.3533534588888
0.0220113845362154,19.3555735572814
0.0209460900263481,19.3577467230645
0.0198867691571551,19.3598964824504
0.0188370411674156,19.3620392978227
0.0178003347456919,19.3641876484226
0.0167798159827391,19.3663515861127
0.0157783737634734,19.3685396245867
0.0147986245795855,19.3707592922249
0.0138429253393822,19.3730174966748
0.0129133815598565,19.3753207971217
0.0120118597694113,19.3776756043071
0.0111399989418796,19.3800883437539
0.0102992147102352,19.3825656175866
0.0094907146538473,19.3851143269942
0.00871469518915696,19.3877446684176
0.00795019448061336,19.3905484609447
0.00720102413926233,19.393545079622
0.00647090644456104,19.3967580630339
0.00576379413078764,19.4002145836604
0.00508383512795456,19.4039461611802
0.00443531975254684,19.4079895392929
0.00382258553864902,19.4123879339736
0.0032498611953032,19.4171930491104
0.00272105030353165,19.4224685448192
0.0022394404849259,19.4282966891642
0.00180759081026986,19.4347879739383
0.00143770775927185,19.4418701435682
0.00113153402328838,19.4495238079617
0.000894132607794211,19.4578705749043
0.000745279951223478,19.4655480773576
0.000622217388868216,19.4746341719582
0.000538134703415025,19.4841861584651
0.000487783019675828,19.4941861584651
0.000467711562726853,19.5041861584651
0.000472360640714691,19.5141861584651
0.000498657618243785,19.5241861584651
0.00054591385314413,19.5341861584651
0.000609603383334543,19.5433901073629
0.000688169383752908,19.5518360190108
0.000781551454480441,19.5595904020223
0.000890563726062771,19.5667147182355
0.0010166082024042,19.5732648758104
0.00116154879451244,19.5792918942273
0.00132766636530918,19.5848424791354
0.00151765599750834,19.5899594921088
0.0017346508447657,19.5946823527318
0.00198226638876179,19.5990474026847
0.00226466672111905,19.6030882450067
0.00258665442896347,19.6068360633259
0.00295379141771642,19.6103199396131
0.00337256526564715,19.613567195341
0.00385062054874814,19.6166037791078
0.00439709471616169,19.6194547374869
0.00502312738652529,19.6221448497911
0.00573555496989902,19.624676506427
0.0065302907289511,19.6270287523961
0.00742313967692861,19.629249440707
0.00844096576530009,19.631393976245
0.00963645568084129,19.6335424354493
0.011153838743856,19.6358773773863
0.0126314955772697,19.6378739568998
0.0142490581347128,19.6398705364132
0.0156443373240659,19.6415161954543
0.0168447212240224,19.6429343410304
0.0179096525778056,19.6442488121647
0.0188505603716177,19.6455203666249
0.019658265447352,19.6467919319334
0.0203093342012309,19.6481081039574
0.020760184709082,19.6495342501772
0.0209165975350952,19.6512133558189
0.020405132848496,19.6537196952678
0.0196491833433473,19.6553484584566
0.0186370244550999,19.6569772216454
0.0175197140704411,19.6585026509943
0.0163005053344727,19.6600219421054
0.0149881123409294,19.6615820564733
0.0138996608581384,19.6628565606142
0.012834017535051,19.6641310647551
0.0118965222597051,19.6653166517092
0.00997493287491992,19.6679907748062
0.00832129351500458,19.6706375264897
0.00695844298826007,19.6731524149815
0.00576305564768771,19.675699242447
0.00471828963960077,19.678281003927
0.00386856716018625,19.680711740584
0.00316959334075224,19.6830072514437
0.00258593295475722,19.6851901620769
0.00209043117394629,19.6872853360149
0.0016616865158337,19.6893223866201
0.00128164658631732,19.69134203059
0.000932527073991561,19.693412940967
0.000588007186855882,19.6957014129288
0.000307923119011465,19.6977761024243
5.41539660453681e-05,19.6998507919198
-0.000136271831100402,19.701546408998
-0.000292783114249783,19.7030389046451
-0.000435059116558185,19.7044794770639
-0.000573094822788499,19.7059585813319
-0.000716050243885959,19.7075799021535
-0.000880065607698506,19.7095580154085
-0.00115572475806892,19.7131793800612
-0.00140330088081595,19.7167597613141
-0.00160381874732786,19.7198880321157
-0.00180260843939924,19.7231875988146
-0.00204182741531179,19.7274159829104
-0.00234077634462141,19.7331319595517
-0.00258471246855987,19.738411577736
-0.00276111552280993,19.7431935275681
-0.00285882001931886,19.7475199084942
-0.00286749733629577,19.7514381033713
-0.00278190588500668,19.7549404937517
-0.00260218942688488,19.7580930026737
-0.0023292269144026,19.7609597285979
-0.00196061215062042,19.7636132322008
-0.00148589033228403,19.7661366828371
-0.000874412353131169,19.768652717562
-6.69472094437857e-05,19.7713157824677
0.000996598556260335,19.7742399425068
0.00201273522199884,19.7767322818001
0.00292169613762588,19.7788527360496
0.00392809771728046,19.7811549297365
0.00498899044556648,19.7835474277752
0.00608287191662531,19.7859399258138
0.00703786955876256,19.787907961448
0.00799129279814171,19.7897171246288
0.00901914536315126,19.7914749037215
0.0101419595973541,19.7931748065728
0.0114089551857327,19.7948504917877
0.0128273842424427,19.7964739410771
0.014432258202805,19.7980550618942
0.0162366409420235,19.7995805246588
0.0182597226404332,19.8010467717355
0.0205286938778248,19.8024565843138
0.0230686966089681,19.8038102862591
0.0259069152641259,19.8051088004599
0.029078819397296,19.8063556869961
0.0326266072123026,19.8075549915955
0.0365978329087171,19.8087102435462
0.0410479206492083,19.8098250050919
0.0460416766059299,19.8109028359032
0.0516563194975302,19.8119474916227
0.0579830470824637,19.8129626819967
0.0651311016434859,19.8139522401716
0.0732326520567938,19.8149201959186
0.0824502897140512,19.8158709557792
0.0929867920892274,19.8168094251407
0.105100347893244,19.8177412832125
0.119128107425974,19.8186733889697
0.135524925199416,19.8196144566465
0.154932928670602,19.8205763225245
0.177759133070236,19.8215541933674
0.204218003520489,19.8225382149372
0.23503118350698,19.8235398609726
0.271192363092964,19.8245762144852
0.314287532068225,19.8256785376065
0.350233429645964,19.8265268619574
0.387736711874223,19.8273751863083
0.420997966933099,19.8281229204549
0.450032268676317,19.8287984316812
0.475398497023282,19.8294368804654
0.49712867767177,19.8300631099213
0.5148262962844,19.8306994673157
0.527571580279904,19.8313728465037
0.533419865878505,19.8321272855371
0.529088052587219,19.8329297153247
0.513011649885902,19.8337573649107
0.483722850929215,19.8346261876956
0.439346426470343,19.8355475158101
0.377846205222933,19.8365296957022
0.333799020725066,19.8371296629286
0.285756413747092,19.8377296301551
0.242958963800318,19.8382372940468
0.20607532932441,19.838667062021
0.173555880854559,19.839048533454
0.144369571715675,19.8393998659459
0.117878494679168,19.8397325501198
0.0936335228643003,19.8400551542095
0.0712572967478652,19.8403755865849
0.0503372289625431,19.8407036156188
0.0301738509107167,19.8410575665086
0.00803687028753706,19.8415115266777
-0.000390483228341298,19.8417108549318
-0.00806609120311278,19.8419101831858
-0.014458203011104,19.8420925258029
-0.0204664749209461,19.8422810275947
-0.0264682400504478,19.842490416015
-0.0322301074201508,19.842717323455
-0.0376065850808486,19.842959823042
-0.0425175982614411,19.8432173085985
-0.046922169399541,19.8434900567644
-0.0508029177203974,19.843778987749
-0.0541799598058566,19.8440887835339
-0.0569620593589787,19.8444122149194
-0.059229643695025,19.8447573873515
-0.0609972060297306,19.8451274041344
-0.0622792611782756,19.8455259974519
-0.0630894884580084,19.8459577847523
-0.0634391947789206,19.8464285381733
-0.0633355920967353,19.8469455889315
-0.0627793122825657,19.8475186670701
-0.0617587273343368,19.8481619569833
-0.0602460544524781,19.8488942611847
-0.0581848093254423,19.8497444371948
-0.0554556110718706,19.8507635749065
-0.0517372642743923,19.8520742926086
-0.0476919835658862,19.8534668542672
-0.0437856942440192,19.8548147007563
-0.0400641702758265,19.8561220553695
-0.0365497355666423,19.857391006983
-0.0332537245554304,19.8586222901229
-0.030180883692033,19.8598159555389
-0.0273314001742689,19.8609717280167
-0.0247020337747262,19.8620891945732
-0.022286882510588,19.8631679008346
-0.0200779857407282,19.8642073954226
-0.0180658424165276,19.8652072431732
-0.0162398715827376,19.866167018435
-0.0145888226240968,19.8670862846371
-0.0130307205679826,19.8680074780811
-0.0115326631637168,19.8689523172218
-0.0100990446973647,19.8699224680989
-0.00873372834779517,19.8709200797578
-0.00744036967334375,19.8719476769427
-0.00622245155654228,19.8730082549677
-0.00508315574883334,19.8741054032415
-0.0040253072070671,19.8752434720417
-0.00305131845374912,19.8764278030414
-0.00216313148925104,19.8776650569122
-0.00136215624183836,19.8789636944846
-0.000649203466747275,19.8803347121751
-2.44079765879899e-05,19.8817928228302
0.000512866078712838,19.8833584744321
0.000948370244432289,19.8849931051678
0.00128644288067777,19.8866772437895
0.0015429094350569,19.8884292554153
0.00173205729101391,19.8902712789158
0.00186729885921802,19.8922331316545
0.00196158340691768,19.8943575665862
0.00202801589170218,19.8967114499521
0.00208108102331922,19.8994140955883
0.00214033237814188,19.9027361246885
0.00222069591494675,19.9064853882603
0.00233312961011972,19.9105532142546
0.00248391383032072,19.9150195672948
0.00267468759458684,19.9199971554299
0.00287444739129768,19.9248594529943
0.00308698588678983,19.9298313492429
0.00326819952767448,19.9339608224063
0.00343905814752587,19.9377837117421
0.00360778815525718,19.9414853299996
0.00377888307036653,19.9451525214797
0.00395567669065708,19.948839498135
0.00414109838115701,19.9525864712446
0.00433797893429358,19.9564265505361
0.00454925958626367,19.9603896914507
0.00477814976933689,19.9645049689427
0.00502827274006784,19.9688019940722
0.00530385059858756,19.9733120981776
0.00560999698153426,19.9780695538018
0.00595322468230635,19.9831130554467
0.00633348706036215,19.9883679958585
0.00672913745683485,19.9934835402832
0.00699662853935159,19.9967417701416
0.00727688929173182,20
