ecg,time
7.46468351327239e-05,15.0020576580965
7.32911890217108e-05,15.0120576580965
7.33418814985047e-05,15.0220576580965
7.44520576901266e-05,15.0320576580965
7.63879833360828e-05,15.0420576580965
7.89956344992905e-05,15.0520576580965
8.21780161413912e-05,15.0620576580965
8.5879451270359e-05,15.0720576580965
9.00747306743547e-05,15.0820576580965
9.47617976464814e-05,15.0920576580965
9.99570332932973e-05,15.1020576580965
0.00010569246343191,15.1120576580965
0.000112014414074709,15.1220576580965
0.000118983313536469,15.1320576580965
0.000126674476982148,15.1420576580965
0.00013517982090732,15.1520576580965
0.000144610552790825,15.1620576580965
0.000155100978825131,15.1720576580965
0.000166813684747808,15.1820576580965
0.000179946488238062,15.1920576580965
0.000194741758811914,15.2020576580965
0.000211498986604115,15.2120576580965
0.000230591908738687,15.2220576580965
0.000252492159877073,15.2320576580965
0.000277802452514106,15.2420576580965
0.000307303975470041,15.2520576580965
0.00034202549844532,15.2620576580965
0.00038334646405522,15.2720576580965
0.000433154824055764,15.2820576580965
0.000492058176347492,15.2917503639501
0.000558843598567548,15.3007115999298
0.000634383453377027,15.3089808037098
0.00071980813095949,15.3166115157931
0.000816425019284756,15.3236540034819
0.000925721529008568,15.3301548862286
0.00104938355626642,15.3361574218205
0.00118932032680134,15.3417017746672
0.00134769530008079,15.3468252206166
0.00152695924955606,15.3515623443858
0.00172989094896754,15.3559452507636
0.00195964382632929,15.3600037788977
0.00221980420504413,15.3637656810097
0.00251445608801246,15.3672567844857
0.00284826824005622,15.3705011786701
0.00322660151039048,15.3735214145924
0.00365564702690029,15.3763386889737
0.00414261274830552,15.3789730606457
0.00469597988643433,15.3814437180619
0.00532586867036023,15.3837692963517
0.00604054917182374,15.3859570429163
0.00682889050656664,15.3879698674469
0.00770034153456892,15.3898412941922
0.00866919826515247,15.3916049117002
0.00975741695345226,15.3932959488144
0.0110030195025829,15.3949586580324
0.0125181039140152,15.3967016896976
0.0146599105888342,15.3988150849219
0.0163151320689416,15.4002666216525
0.0180869387063292,15.4017181583832
0.0197330190475684,15.4030248822756
0.0211914977307674,15.4041935981715
0.0225009757738141,15.4052969064279
0.0236678412606889,15.4063803409247
0.0246781804513,15.4074817788429
0.0255003417372981,15.4086467846767
0.0260724737246874,15.4099540390384
0.0262323793156997,15.4116297080353
0.0257996043667663,15.4132636902917
0.0248799993662208,15.4148976725481
0.0237750047165957,15.4163234607217
0.0225176320561909,15.4177052376664
0.0211147138874886,15.4191162574575
0.0195763799298712,15.4205976109306
0.0179096816497187,15.422187383293
0.0161431375675493,15.4239345951479
0.0147304428332482,15.4254407855718
0.0132266826086556,15.4271817092166
0.0120133105761766,15.4287149170531
0.0109608817595454,15.4301596916662
0.00998659659536595,15.4316133386047
0.00903282305289494,15.4331685512893
0.00802804826189667,15.4349827654965
0.00682847196925823,15.4374565795471
0.00577606467027329,15.4400048171221
0.00491276892675424,15.4424696715129
0.00416843958208003,15.444983176371
0.00347222649238276,15.4478113904568
0.00287650717157423,15.450791114767
0.00237519257423797,15.4539469297328
0.00196344167273176,15.4573130699822
0.00163978901093618,15.4609311838751
0.00140813082329759,15.4648532344904
0.00128172500117753,15.4691459700878
0.00128113295336534,15.4732108294279
0.0013860318993249,15.4768516198213
0.00157939373436098,15.4801266766877
0.00185234480575049,15.4830824346709
0.00220157414365117,15.4857673420063
0.00262839501026122,15.4882301759253
0.00313905082877064,15.4905205800044
0.00374657256418108,15.4926916238354
0.00447414189751221,15.4948022598059
0.00536609800740749,15.4969329711825
0.00651395330471603,15.4992126658907
0.00811395107947478,15.5018615145108
0.0100997667957961,15.5046217112688
0.0116543531872054,15.5064970119522
0.0134100108436748,15.5083723126355
0.0151985235321312,15.5100524470096
0.0170698742360199,15.5115939048506
0.0190715680634444,15.513033361815
0.0212673068320401,15.514405258322
0.0236984463016481,15.5157190383659
0.0264065837285882,15.5169806079664
0.0294388476403109,15.5181955210074
0.0328410814753799,15.5193662888333
0.0366619962034262,15.5204948639833
0.0409611810267751,15.5215847108982
0.0458011360214763,15.5226379798964
0.0512584862160092,15.5236579845628
0.0574208037423418,15.5246477551595
0.0643903668549336,15.5256103483302
0.0722909721652559,15.52654926656
0.0812709241448972,15.5274681170159
0.0915107646396064,15.5283707790134
0.103233108014566,15.5292615048673
0.11671782786493,15.53014514914
0.132321433130205,15.5310272909861
0.150508975245794,15.5319146353875
0.171905991806755,15.5328156698334
0.197294276157877,15.5337386375254
0.226661022895936,15.5346631503917
0.260730839087803,15.5355978714732
0.300488878330886,15.5365564792688
0.347524600894888,15.5375661033286
0.385095610472158,15.5383107042747
0.424163729147996,15.5390553052209
0.458811958500768,15.5397144911602
0.489149127931388,15.5403150640366
0.515798536120366,15.5408897928236
0.538768740855942,15.5414627489767
0.557571844286242,15.5420582266958
0.571029692254441,15.5427115292126
0.576195897284305,15.5434605950242
0.5697679676685,15.5442296008948
0.550569077954933,15.5450401349464
0.516705197319634,15.5459113288095
0.469512316780875,15.5467936977135
0.407338411905197,15.5477160073494
0.357545490366699,15.5483517599643
0.303041185841553,15.5489875125791
0.255472538364463,15.5495133801093
0.215370211051135,15.5499486711015
0.180494134880966,15.5503298661403
0.149447516046746,15.5506781922994
0.121417522821112,15.5510063663487
0.0958601811672156,15.551323472228
0.0723390302248649,15.5516376075618
0.0503991648559634,15.5519584817881
0.0293049288855705,15.5523038545402
0.00632284901185473,15.5527430581121
-0.00271842955179221,15.5529423854423
-0.01093341836507,15.5531417127726
-0.0175074816719855,15.5533170638072
-0.0236431671500241,15.5534967620739
-0.0298132363284365,15.5536972790931
-0.035766155878525,15.5539151934657
-0.0413424728417071,15.5541484749082
-0.0464533228708543,15.5543964209318
-0.0510523619615427,15.5546592188333
-0.0551190324115139,15.5549377016764
-0.0586486551174282,15.5552332324698
-0.0616463409956047,15.5555476680629
-0.064158077622761,15.5558904126864
-0.0660768235233397,15.5562474746059
-0.0674985072737405,15.5566319828283
-0.0684383906684665,15.5570485156909
-0.0689087602618505,15.5575026610306
-0.068917876557737,15.5580015229837
-0.0684677089121458,15.5585543396173
-0.0675482616983193,15.5591748427089
-0.0661328878524938,15.5598813004013
-0.0641665556290286,15.5607014914299
-0.0615328927596782,15.5616841561153
-0.057924846660402,15.56294360673
-0.0537523689890523,15.5643555970028
-0.0496966946062682,15.565723145964
-0.0458119888219463,15.5670511835719
-0.0421258957060598,15.5683418076228
-0.0386533869160527,15.5695956911049
-0.0354021002989334,15.5708127932844
-0.032374669778363,15.5719927377476
-0.0295699461134652,15.5731350120641
-0.0269837852096582,15.5742390712592
-0.0246096576314597,15.5753043872466
-0.022439175855608,15.5763304660998
-0.0204625710338891,15.5773168448951
-0.0186691271119275,15.5782630746221
-0.0170475712364338,15.5791686927345
-0.0154816351544727,15.5800971983802
-0.0139763951448484,15.5810497456479
-0.0125358526569159,15.5820282692238
-0.0111638404551771,15.5830350261305
-0.00986396510133676,15.5840726780768
-0.00863955429063819,15.5851443932625
-0.00749360124673061,15.5862539819684
-0.00642870602281581,15.5874060809466
-0.00544701302146965,15.5886064104618
-0.00455014326685792,15.5898621432309
-0.00373911857738211,15.5911824527945
-0.00301427218972589,15.5925793639969
-0.00237513515372961,15.5940691438487
-0.0018202762580752,15.5956747366849
-0.00137250383722718,15.5973229510337
-0.00101573357606211,15.5990268608476
-0.000734486909515955,15.6008051837029
-0.000514307846993681,15.6026821706266
-0.00034132470275447,15.6046910705087
-0.000201660969970208,15.6068807650551
-8.04067812207147e-05,15.6093305215026
4.08280036958168e-05,15.6121905894869
0.000193281078104461,15.6158497656564
0.000365592468169809,15.6196520320705
0.000580933608776915,15.6239210751183
0.000851147907487712,15.6288579421405
0.00111772373635476,15.6335421025623
0.0013680895134602,15.6379149696023
0.00161213075385322,15.6422214022308
0.00186425145856344,15.6467448349692
0.00214048865742815,15.6517868807302
0.00240576277370725,15.6566792877416
0.00267592938379054,15.6616790205769
0.00290978444511651,15.6659809632127
0.00312669797945232,15.6699319604844
0.00333877775694807,15.6737413867849
0.00355219514834453,15.6775070575924
0.00377116665776038,15.6812882293755
0.00399922491336806,15.6851279622533
0.00423972787717682,15.6890614047198
0.00449613580721402,15.693119712142
0.00477224479539212,15.6973328319269
0.00507237819700695,15.7017309767217
0.00540163283481233,15.7063458609687
0.00576626493143374,15.7112120003242
0.00617431405522282,15.7163678317855
0.00659960824578869,15.7214262657222
0.00704961197375321,15.7264450715742
0.00752502630790603,15.7313894929065
0.00803052480004146,15.7362631594367
0.00857126215052537,15.7410664473576
0.00915358917855034,15.7458034626406
0.00978461312288393,15.7504770782251
0.0104722003998119,15.7550886948143
0.0112422614911662,15.7597374891947
0.0121086976286977,15.7644133809445
0.0130932993415549,15.7691330469241
0.0142259316338053,15.7739263216431
0.0155546483490006,15.7788634645455
0.0171763674276846,15.7841275372532
0.019408192771011,15.7904147889216
0.0211104059719832,15.7947307637174
0.0229001422367403,15.7990467385132
0.0244241448968033,15.8027209438133
0.0256981006445228,15.805967806294
0.0267633269944176,15.8090233174953
0.0276045534204673,15.8119835033898
0.0281775040173161,15.8148146433841
0.0284812751980279,15.8176374944392
0.0284863155746678,15.8206066956668
0.0280855817542231,15.8240471258201
0.0273000868899076,15.8274232265822
0.0261876967296469,15.8307993273443
0.0250916339593082,15.8335524778852
0.0240156731829138,15.8359934959953
0.0229413807945507,15.8382892609084
0.0218668890511942,15.8405074581833
0.0207949627869495,15.8426833029273
0.0197292601234271,15.8448390730441
0.0186734579008469,15.8469905670695
0.0176310224664479,15.8491498862507
0.0166051506813501,15.8513268619045
0.0155987620763798,15.8535298766947
0.0146145027107384,15.8557663879902
0.0136547596174469,15.8580432687946
0.012721667962652,15.8603670681996
0.011817122258982,15.8627442035417
0.0109427884867682,15.8651811125555
0.0101001058490907,15.8676844130172
0.00929030193359658,15.8702610167945
0.00851364085757018,15.8729209645101
0.00774914101750937,15.8757571470004
0.00700065066279355,15.8787891589401
0.00627191174866866,15.8820408039755
0.00556696191333194,15.8855395220074
0.00488994296068368,15.8893170756569
0.0042450747751862,15.8934104261085
0.00363657110151288,15.8978629960269
0.00306846627790279,15.9027267284422
0.00254436492932957,15.9080658318256
0.00206717007410783,15.9139633159189
0.00163897394222722,15.9205302179502
0.00127128422292519,15.9276929070888
0.000964713060934925,15.9354447326065
0.000712646144473834,15.9439129099223
0.000514350030922448,15.9532660982336
0.000372400278448099,15.9632660982336
0.000277922648492647,15.9729700045517
0.000209511940856819,15.9829700045517
0.000161869480545714,15.9929700045517
0.000129135069164089,16.0029700045517
0.000107060491504259,16.0129700045517
9.24976481454856e-05,16.0229700045517
8.31773421072067e-05,16.0329700045517
7.75202964059589e-05,16.0429700045517
7.44515492291834e-05,16.0529700045517
7.32440502716985e-05,16.0629700045517
7.34048658422763e-05,16.0729700045517
7.45994478289607e-05,16.0829700045517
7.66026645600087e-05,16.0929700045517
7.92665875238505e-05,16.1029700045517
8.24985965542738e-05,16.1129700045517
8.62462064100471e-05,16.1229700045517
9.04865969218764e-05,16.1329700045517
9.52195723332033e-05,16.1429700045517
0.000100463047189252,16.1529700045517
0.00010625040252326,16.1629700045517
0.000112629256874181,16.1729700045517
0.000119661363901255,16.1829700045517
0.000127423483353208,16.1929700045517
0.000136009182147606,16.2029700045517
0.000145531619575203,16.2129700045517
0.000156127469051368,16.2229700045518
0.000167962243076568,16.2329700045518
0.000181237435406307,16.2429700045518
0.000196200098360239,16.2529700045518
0.000213155769082831,16.2629700045518
0.00023248610273455,16.2729700045518
0.000254673256074984,16.2829700045518
0.00028033414996526,16.2929700045518
0.000310269501033211,16.3029700045518
0.000345535450821472,16.3129700045518
0.00038755066589399,16.3229700045518
0.000438260730512058,16.3329700045518
0.000497856020742616,16.3425941718757
0.000565402723749489,16.3514895079272
0.000641800476328157,16.3596978589322
0.00072819606302191,16.3672724959575
0.000825912863664897,16.3742633393808
0.000936455566984481,16.380716687407
0.00106152944972827,16.3866755030847
0.00120306568523897,16.3921796780226
0.00136325279459498,16.3972662321639
0.00154456971813369,16.401969513503
0.00174982776738638,16.4063214098625
0.00198221741299402,16.410351562166
0.00224536783936464,16.4140875385989
0.00254341290458358,16.4175549987334
0.00288107987187196,16.4207778824997
0.00326379978313338,16.4237786087479
0.00369784840214461,16.4265782599322
0.00419053853597974,16.4291968030594
0.00475048484734378,16.4316533614036
0.00538798194993242,16.4339665387488
0.00610902548030237,16.4361368894313
0.00690445199984474,16.4381354451129
0.0077840792232126,16.4399956973742
0.00876271612264077,16.4417512026553
0.00986330817718484,16.443437609082
0.0111261543723923,16.4451006673452
0.0126774045988675,16.4468613282133
0.0149264769801485,16.4490476584176
0.0165789097354834,16.4504782352919
0.0183377355124341,16.4519088121662
0.019951995357205,16.4531888038695
0.0213875343254835,16.4543444717885
0.0226767979930311,16.4554425112616
0.0238225033757182,16.4565261834016
0.0248083373187783,16.4576335373355
0.0255995689844609,16.4588127239386
0.0261272248946817,16.4601517609931
0.0261923202142481,16.4619347438475
0.0256807549608987,16.4635185638968
0.0247293913281138,16.4651023839462
0.0236029881478869,16.4665132547809
0.022324175807854,16.4678959166295
0.0209011612948354,16.4693147748254
0.0193440400479796,16.4708092836906
0.0176590451695151,16.4724182686574
0.0158819945854251,16.4741936462793
0.0143544110989792,16.4758504917995
0.012951471311045,16.4775073373196
0.0117829621708632,16.4790101800173
0.0107523201204809,16.4804496920922
0.00978703638855417,16.4819160392772
0.00883000169325164,16.4835079656768
0.00779926187551949,16.4854149779962
0.00662802007180654,16.487899868433
0.005601686041118,16.4904605076233
0.00476748609171531,16.4929170059926
0.00403563756445447,16.4954705984516
0.00335816265746808,16.4983237119515
0.00277986221960493,16.5013327938182
0.00229489554610314,16.5045236921756
0.00189893627202467,16.5079317878093
0.00159129748959371,16.5116003277535
0.00137717197533701,16.5155835463222
0.00127222434614974,16.5199514937071
0.00129366109566736,16.5239242165155
0.00141643156897464,16.527492534437
0.00162545442232609,16.5307032186505
0.00191308705062778,16.5336040320571
0.00227680526339345,16.5362424845568
0.00271893777079506,16.538668608144
0.00324681765674105,16.5409322044009
0.00387494844903776,16.5430867149041
0.00462938495977861,16.5451937969207
0.00556056050976787,16.5473402221797
0.00677407701054058,16.549668633284
0.00845998540316733,16.5523682388819
0.0105122782156394,16.5551315679225
0.0120608252388434,16.556943382823
0.013807317487087,16.5587551977235
0.0156048662254907,16.5603955325905
0.017500827642975,16.5619114998227
0.019540005023752,16.5633334559287
0.0217854731466468,16.5646924389165
0.024274146149061,16.5659940152142
0.0270516752904572,16.5672454885301
0.0301613870472755,16.5684500895524
0.0336531909471763,16.5696115813301
0.0375747824039011,16.5707311588199
0.0419882733726366,16.5718126087428
0.046959207198496,16.5728583335866
0.0525651024111549,16.5738713023652
0.0588974328440676,16.5748547384288
0.066063066119353,16.5758118132666
0.0741898876618171,16.5767459336293
0.0834331356417555,16.5776608252509
0.0939818539640932,16.5785604489452
0.106069808032683,16.5794491602117
0.119991829920146,16.5803319511995
0.136125394790292,16.581214617688
0.154965777802735,16.5821041906435
0.177185436559503,16.5830097197336
0.203395711060116,16.5839324133111
0.233728801389573,16.5848583099766
0.26895356349514,16.5857968495223
0.310142688278838,16.5867635652768
0.359135562182109,16.5877913189474
0.395677076202817,16.5885048618974
0.433281229728578,16.5892184048474
0.466724581299912,16.5898584792085
0.496112232067897,16.5904500338308
0.521865402555379,16.59102220751
0.54386505964118,16.5915983000034
0.561487033698374,16.592204066449
0.57328070778412,16.5928806811412
0.575746571546609,16.5936324928153
0.566397268959502,16.5944095246482
0.543891278693461,16.5952329545302
0.506936881235413,16.5961054614924
0.456228673691688,16.5969981557202
0.391331484025584,16.5979184893499
0.343335413891988,16.5985129288721
0.291508954030868,16.5991073683942
0.246021643527543,16.5996068175757
0.20726326977755,16.6000273713462
0.173329070317395,16.600399855499
0.143007202584215,16.6007428064411
0.115565530852154,16.6010678177904
0.0904948759870804,16.6013835604792
0.0673665192515885,16.6016982225787
0.0456974085014026,16.602022442843
0.0245938829782419,16.6023781843924
0.00739316166988325,16.6027112964169
-0.00194817412263574,16.6029153183105
-0.0104206306244475,16.6031193402042
-0.0170715749002537,16.6032955952702
-0.0231912676781706,16.6034735832734
-0.0293681096811937,16.6036727024994
-0.0353433105029867,16.6038894373502
-0.0409507269876507,16.6041216359822
-0.0460974573555352,16.6043685163562
-0.050734731794223,16.6046302111178
-0.0548405083996769,16.6049075113602
-0.0584091903297446,16.6052017434577
-0.0614453271113448,16.6055147281895
-0.0639549959096559,16.6058493776458
-0.0659199994082366,16.6062040085623
-0.0673869952708669,16.6065857922447
-0.0683709199541066,16.606999145817
-0.068884333973279,16.6074495381701
-0.0689359547650385,16.6079439113624
-0.0685284521224043,16.6084912710572
-0.0676532310485684,16.6091048455239
-0.066285470541812,16.6098023815371
-0.0643736423924382,16.610610469015
-0.0618097366709788,16.6115749815084
-0.0583182794625073,16.6127993605065
-0.054138275400154,16.614216319046
-0.0500687765554461,16.6155877494305
-0.0461666604628651,16.6169193563909
-0.042461239031313,16.6182134295701
-0.0389683664345506,16.6194707378562
-0.0356962397777816,16.6206912872964
-0.0326478982712045,16.6218747223003
-0.0298225084041407,16.6230205376149
-0.0272161780997661,16.6241281885463
-0.0248225774878435,16.6251971442883
-0.0226334716249721,16.6262269075866
-0.0206392016275373,16.6272170131531
-0.018829122659169,16.6281670116906
-0.0171919985690073,16.6290764433131
-0.015620859890822,16.6300028086756
-0.0141099599519433,16.6309531050657
-0.0126634019953771,16.631929190244
-0.0112850360618624,16.6329332891691
-0.00997849130997949,16.6339680231505
-0.00874712291567937,16.6350365095637
-0.00759395673641728,16.6361424938608
-0.00652163091101755,16.6372905287295
-0.00553233377080922,16.6384862232413
-0.00462773667783563,16.6397365994416
-0.00380891909986989,16.6410506205455
-0.00307628079169481,16.6424400066722
-0.00242943106007457,16.6439205617829
-0.00186703435365252,16.6455144807756
-0.00140991381007933,16.6471585880897
-0.00104537549007538,16.6488566038352
-0.000757745469838172,16.6506271095048
-0.000532492076299868,16.6524937193266
-0.000355710501501562,16.6544886384967
-0.000213557767872867,16.6566588648134
-9.12872067988495e-05,16.6590797879579
2.89735111387861e-05,16.6618916862438
0.000176245237470131,16.6654425516486
0.000345764893192097,16.6692252851713
0.000555601763007128,16.6734294778383
0.000824442577959397,16.6783720597469
0.00109298586380314,16.6831004683859
0.00134455978865594,16.6874929114482
0.00158867983073545,16.6917948364932
0.0018391564771346,16.6962811186344
0.00211745135725402,16.7013543928382
0.00238318647443801,16.7062519227581
0.00265224229480528,16.7112311061154
0.00288866254754766,16.7155837900075
0.00310649735767686,16.7195561140027
0.00331871879197706,16.7233738265201
0.0035318101470298,16.7271407352487
0.00375009830992052,16.7309184312024
0.00397715208068552,16.7347510349449
0.00421633223485741,16.7386742416242
0.00447107834357415,16.7427194427948
0.00474514682485701,16.7469166311246
0.00504280183359029,16.7512959390304
0.00536905346906431,16.7558888862435
0.00573002554790684,16.7607296625924
0.00613355354830713,16.7658563039414
0.0065575583547123,16.7709301103091
0.00700494883316633,16.7759520446807
0.00747779571639711,16.7809044138338
0.00798016158330395,16.7857848329171
0.00851723062157363,16.7905948013679
0.00909523335302202,16.7953380709661
0.00972121415977175,16.8000177398589
0.0104029621964873,16.8046353301688
0.0111644304875096,16.8092802858433
0.0120207869732973,16.8139531112087
0.0129929270188073,16.8186676384943
0.0141096704956337,16.8234517193519
0.0154165708429355,16.8283699214726
0.0170029361506867,16.8335876403001
0.0191408289147031,16.8396959716471
0.0208919286214689,16.8441824191753
0.0227461368631571,16.8486688667036
0.0243013801333533,16.8524100241779
0.0255951188699666,16.8556837217513
0.0266782526202197,16.8587494402893
0.027543193880834,16.8617268712222
0.0281389089042708,16.8645646614205
0.0284663243242147,16.8673830155802
0.0284993165444113,16.8703313654968
0.0281426388695475,16.8737057000081
0.0271155103352337,16.878043623037
0.0262143005312477,16.8807183073736
0.0251550311360816,16.8833929917101
0.0240821667165516,16.8858383553244
0.0230081621650309,16.8881400643452
0.0219336465516081,16.890361785293
0.0208614680593222,16.8925394785354
0.0197952785933514,16.894695949394
0.0187387646519535,16.8968472937562
0.017695408106368,16.8990057919287
0.0166684236923817,16.901181386393
0.0156607478259858,16.9033825327323
0.0146750434722362,16.9056167337532
0.0137137138436729,16.9078908896462
0.0127789090092685,16.9102115645254
0.0118725385766744,16.9125851779898
0.0109962826651,16.9150181617656
0.0101515940939835,16.9175171191845
0.0093397135882032,16.9200889394752
0.00856167277682563,16.9227409454526
0.00779629902293732,16.9255656285202
0.00704669911722466,16.9285848074726
0.00631660881347726,16.9318220433997
0.00561005259520108,16.9353045293983
0.00493116767843509,16.9390637382654
0.00428417005525442,16.9431362783914
0.00367327832365833,16.9475651232849
0.00310254125307851,16.952401633238
0.0025756078672045,16.9577090161456
0.00209542351138327,16.9635689314533
0.00166413002116868,16.9700903678156
0.00129239804860796,16.9772196282291
0.000982204121251456,16.9849313129234
0.000726917930502056,16.9933502554864
0.00052514177725413,17.0026422191258
0.000379695178676936,17.0126422191258
0.000284073997214763,17.0222246499604
0.000213768187067595,17.0322246499604
0.0001647987515637,17.0422246499604
0.000131126949123263,17.0522246499604
0.000108392432021562,17.0622246499604
9.33674193077308e-05,17.0722246499604
8.37235984695559e-05,17.0822246499604
7.78386464764724e-05,17.0922246499604
7.46073181014922e-05,17.1022246499604
7.32817529342912e-05,17.1122246499604
7.3354793617917e-05,17.1222246499604
7.44820869284122e-05,17.1322246499604
7.64316470318093e-05,17.1422246499604
7.90506887798967e-05,17.1522246499604
8.2243106123951e-05,17.1622246499604
8.59538704185654e-05,17.1722246499604
9.01582574373745e-05,17.1822246499604
9.4854587900846e-05,17.1922246499604
0.000100059553537466,17.2022246499604
0.000105805454291196,17.2122246499604
0.00011213887723345,17.2222246499604
0.000119120518002551,17.2322246499604
0.000126825982807583,17.2422246499604
0.000135347520362155,17.2522246499604
0.000144796730756559,17.2622246499604
0.000155308396086027,17.2722246499604
0.000167045690191255,17.2822246499604
0.000180207169083499,17.2922246499604
0.000195036142382724,17.3022246499604
0.000211833313628612,17.3122246499604
0.000230974007992765,17.3222246499604
0.000252931969296951,17.3322246499604
0.00027831275638313,17.3422246499604
0.000307901467413403,17.3522246499604
0.000342732347598863,17.3622246499604
0.000384192679250471,17.3722246499604
0.000434181921881562,17.3822246499604
0.000493224415237927,17.3919034675454
0.000560162934999099,17.4008513496973
0.000635875310266665,17.4091082221973
0.0007214952356164,17.4167275709589
0.000818333318513569,17.4237595929773
0.000927880444219764,17.4302508425927
0.00105182640704999,17.436244517866
0.0011920848466269,17.4417807279635
0.00135082426477657,17.4468966968928
0.00153050109893573,17.4516269614056
0.00173390066761482,17.4560035823134
0.00196418384195432,17.4600563585964
0.00222494556655458,17.4638130051872
0.00252027985471394,17.4672993154455
0.00285486722122715,17.4705393483891
0.00323408260815563,17.473555628229
0.00366413411562765,17.476369328456
0.00415225071708851,17.479000489167
0.00470694034550063,17.4814682854417
0.00533835809406073,17.4837913457851
0.00605431757647369,17.4859755565661
0.00684408190624892,17.487985478562
0.00771717335227538,17.4898546286141
0.00868798923610608,17.4916165863975
0.00977868019291572,17.493306660729
0.0110277119989481,17.4949693936791
0.0125499214290697,17.4967158482826
0.0147120243528982,17.4988428976509
0.0163676304260289,17.5002910016409
0.0181379188594651,17.5017391056308
0.0197774679413096,17.5030402535565
0.0212312534551043,17.5042062192269
0.0225366493854308,17.5053083947639
0.0236992728226052,17.5063918167506
0.0247047235074016,17.5074943739239
0.0255207482977138,17.5086621140133
0.0260841509423551,17.509975453327
0.0262262947171854,17.5116706259639
0.0257781128842972,17.5132937680894
0.024852966603141,17.5149169102149
0.0237442954703083,17.516339506397
0.0224830912154588,17.5177213150062
0.0210765563938368,17.5191336791102
0.0195348440267494,17.5206173351381
0.017864867721729,17.522210479935
0.0160964749273189,17.5239626226069
0.0146053657857164,17.5255597667412
0.0131250735489169,17.5272853217567
0.011928197828739,17.5288074962736
0.0108841039200075,17.5302499082742
0.00991338756482495,17.5317077495168
0.00895877135370511,17.5332756205835
0.00794540142842681,17.5351214416022
0.00675607350660936,17.5375990897479
0.00571307412330739,17.5401516754567
0.00486087750830271,17.5426116522743
0.00412129538914329,17.5451380124328
0.00343170997391076,17.5479748519335
0.00284214051078493,17.5509647803873
0.00234659025625792,17.5541327924175
0.00194039559118623,17.5575135167177
0.00162235725282077,17.5611491520555
0.0013968121871313,17.5650924427472
0.00127783054793706,17.5694112708801
0.0012850086866919,17.5734437720263
0.00139616710831531,17.5770592434632
0.00159499227982021,17.580311799866
0.00187304125099368,17.58324828539
0.00222728324208889,17.5859168714566
0.00265938407961176,17.5883667843241
0.00317596204283007,17.5906477158362
0.00379052277468212,17.5928127628671
0.00452719172348495,17.5949217635169
0.00543235321127974,17.5970573796325
0.00660211648463812,17.5993529853643
0.00824248801908853,17.6020360245242
0.0102536473222871,17.6047981365713
0.0118055076762437,17.6066488686151
0.0135570647480565,17.6084996006589
0.0153481500029247,17.6101642064097
0.0172283155717994,17.611696032397
0.0192436140107496,17.613128909961
0.0214574289029713,17.6144959387669
0.0239096221031924,17.6158051854559
0.0266430778421098,17.6170629687656
0.0297037147715724,17.6182740578857
0.0331388562980301,17.6194414135684
0.036996678785456,17.6205666494906
0.0413377588735704,17.6216533766019
0.0462256349828684,17.6227038255902
0.0517373942699576,17.6237212115686
0.057961966740967,17.6247086221256
0.0650032607656957,17.6256691512534
0.0729866299871145,17.6266062752724
0.082062865070511,17.6275236401335
0.092415618197047,17.6284251568244
0.104271467104949,17.6293151086566
0.117915766377815,17.6301984055673
0.133712570016687,17.6310807029895
0.152137805788911,17.631968822942
0.173833701673533,17.6328714491252
0.19952181959524,17.6337942783767
0.229240800762127,17.6347192520588
0.263730961575617,17.6356553045484
0.304007831691467,17.6366167507739
0.351745164294212,17.637632651062
0.388936921920428,17.6383655571904
0.427464474940638,17.6390984633187
0.4616685212409,17.6397503989906
0.491662281699487,17.6403475268506
0.517991843878272,17.6409211802893
0.540619004998226,17.6414950867806
0.559008693689041,17.642093989112
0.571892859767693,17.6427550715568
0.57611311599614,17.6435049493491
0.568665603873035,17.6442766367813
0.54831624523043,17.6450915841797
0.513132736389925,17.6459681363643
0.464663294236203,17.6468537914152
0.401390377096664,17.6477764044207
0.352273201597372,17.6483962256738
0.298789437342073,17.649016046927
0.252006988120493,17.6495318423368
0.212406637155649,17.6499615715723
0.177879020834375,17.6503395013385
0.14709909192624,17.6506858143973
0.119285045103902,17.6510127943017
0.0939063212390206,17.6513293618979
0.0705299332965693,17.6516436335
0.04869216947831,17.6519656209095
0.0276072738683292,17.6523144257447
0.00400634182358261,17.6527730954059
-0.00425419065115124,17.6529589008454
-0.0118022676856167,17.653144706285
-0.0182401339055899,17.6533183406024
-0.0243970184370695,17.6535008012424
-0.0305525605255574,17.6537036020151
-0.0364664692859223,17.6539234611476
-0.0419898903323147,17.6541585417237
-0.0470403606059152,17.6544082685775
-0.0515753900539818,17.654672917357
-0.0555767826838249,17.6549533898083
-0.059041319891238,17.6552511096397
-0.0619750033539711,17.655567994103
-0.064494512991071,17.6559257234202
-0.0663345576221247,17.6562870284618
-0.0676791016607038,17.6566762818112
-0.0685439724835539,17.657098358857
-0.0689409538148807,17.6575590585974
-0.0688774808940218,17.6580657741561
-0.0683541498627861,17.658628248922
-0.0673585622928348,17.6592609577511
-0.0658607138971878,17.6599832115477
-0.063798990764394,17.6608250266974
-0.0610406579581895,17.6618407576883
-0.0572107833235985,17.663168092802
-0.0530532163969236,17.6645716251402
-0.0490237471937091,17.6659321986167
-0.0451712630209293,17.6672537743671
-0.0415206293110146,17.6685381294072
-0.0380853135079616,17.6697857757455
-0.0348719810381383,17.6709965945877
-0.0318825528534895,17.6721701752935
-0.0291153215326162,17.673305994212
-0.0265656973829172,17.6744035066712
-0.0242267995019677,17.675462189734
-0.0220899731283746,17.6764815553357
-0.020145258964178,17.6774611443897
-0.0183818200160328,17.6784005077379
-0.0167697490101281,17.6793099714382
-0.0152141207559101,17.680242550779
-0.0137198989944046,17.6811994887594
-0.0122910586242712,17.6821827719324
-0.0109313965546219,17.683194721827
-0.00964447449488126,17.6842380804967
-0.00843356578456057,17.685316117401
-0.00730159927191715,17.6864327722463
-0.00625110002100287,17.6875928500239
-0.00528412604961405,17.6888022941905
-0.00440219944466818,17.690068580993
-0.00360622866079861,17.6914013095798
-0.00289641589383403,17.6928131249416
-0.00227213745466327,17.6943212434387
-0.00173550604448556,17.6959374544038
-0.00130467672029261,17.6975940294423
-0.000962047613077173,17.6993093563458
-0.000692379872292906,17.7011028197652
-0.000481351196600535,17.7029999270299
-0.000315138406175771,17.7050360220426
-0.000179779809820988,17.7072638226988
-6.00096386049426e-05,17.709770676346
6.37017838755953e-05,17.7127285154007
0.000220906159142983,17.7164669807732
0.000398828140599793,17.7203207371648
0.000623668259471538,17.7247045521079
0.000896972506335969,17.7296509182977
0.00116039892910508,17.7342667399439
0.00140891013881188,17.7386112956386
0.00165311807794977,17.7429314995577
0.00190870625620382,17.7475308654436
0.0021817927558442,17.7525258941573
0.00244660815198908,17.7574151262439
0.00271913899812222,17.7624577688557
0.00294889097039832,17.7666773056674
0.00316434919379223,17.7705929704599
0.00337630498118234,17.7743891075332
0.0035904306642296,17.778153844146
0.00381076305125196,17.7819425301974
0.00404077845288627,17.7857964225686
0.00428383661387697,17.7897497466367
0.00454344173101228,17.793833277041
0.00482346847182041,17.7980769096815
0.00512835656333544,17.8025110357052
0.00546337431796586,17.8071677675571
0.00583504013923384,17.8120822535183
0.00624955348730458,17.8172661535825
0.00667794738921236,17.8223044875618
0.007132608104298,17.8273145396578
0.00761293246523526,17.8322450399072
0.00812432194130272,17.8371060989611
0.00867199077431126,17.8418972232458
0.00926247110842711,17.8466227606695
0.00990299474528548,17.8512852426219
0.010604197477373,17.8559023388369
0.0113902759389019,17.8605554650729
0.0122761871634783,17.8652378866462
0.0132848342461462,17.8699678210345
0.0144483676810778,17.8747799699135
0.0158201727754274,17.879756750843
0.0175144411131955,17.8851213690069
0.0199261200997683,17.8917415353014
0.021549368105579,17.8957828546026
0.0232335966361153,17.8998241739038
0.0246960912957918,17.9033736797358
0.0259265652713025,17.9065669910726
0.0269509163774564,17.909603368057
0.0277382572255712,17.912528031749
0.0282588521445507,17.9153473910175
0.0285074114538356,17.918184736604
0.0284454749833138,17.9212100182754
0.0279303528367668,17.9248376995035
0.0271210043781143,17.9280132831254
0.0260339434398351,17.9311888667474
0.0249471105130225,17.9338715385415
0.0238722882908974,17.9362860226599
0.0227979289467546,17.9385685736011
0.021723587940965,17.9407794953246
0.0206522795734357,17.9429515763587
0.0195876926403805,17.9451059788439
0.0185334825872846,17.9472578914531
0.0174930822676429,17.949419046896
0.0164696508604416,17.9515990460617
0.0154660712563512,17.9538061223543
0.0144849540536811,17.9560476384077
0.0135286515711909,17.9583304123401
0.0125992676918759,17.9606609621031
0.0116986651469579,17.9630457009194
0.0108284780978175,17.9654910856812
0.00999011904016205,17.9680037602565
0.00918478592465356,17.9705906914832
0.00840957617899657,17.9732733128754
0.00764703428815796,17.9761346566813
0.00690099319242607,17.9791948513687
0.00617523302823432,17.9824781523063
0.00547381629420255,17.9860125457907
0.00480089550279033,17.9898304368815
0.00416069764490488,17.9939695709457
0.00355742419679693,17.9984743716495
0.00299506707811119,18.0033981698495
0.00247714983832536,18.0088072698472
0.00200646728282448,18.0147878744443
0.00158501034686063,18.0214555772384
0.00122604015253447,18.0286926109552
0.000927282579797075,18.0365337582274
0.000682156892125493,18.0451116189884
0.000491330188798312,18.0546014278355
0.000371026071515807,18.0634103386315
0.000274342176750887,18.0734103386315
0.00020695062414462,18.0834103386315
0.000160073801214806,18.0934103386315
0.000127912071495968,18.1034103386315
0.000106249645892831,18.1134103386315
9.19740532942817e-05,18.1234103386316
8.28518033017779e-05,18.1334103386316
7.73326347474416e-05,18.1434103386316
7.43619242707024e-05,18.1534103386316
7.32258729833082e-05,18.1634103386316
7.34401256806121e-05,18.1734103386316
7.46758974254295e-05,18.1834103386316
7.67121008005824e-05,18.1934103386316
7.9403721328405e-05,18.2034103386316
8.26602606681862e-05,18.2134103386316
8.64307919844322e-05,18.2234103386316
9.06936631108083e-05,18.2334103386316
9.54495887336113e-05,18.2434103386316
0.000100717236037435,18.2534103386316
0.000106530655165688,18.2634103386316
0.000112938107197801,18.2734103386316
0.000120002008666329,18.2834103386316
0.0001277998451896,18.2934103386316
0.000136426015720221,18.3034103386316
0.000145994665804035,18.3134103386316
0.000156643667024297,18.3234103386316
0.000168540015170694,18.3334103386316
0.000181887069049676,18.3434103386316
0.000196934259127257,18.3534103386316
0.000213990196461501,18.3634103386316
0.000233440565248216,18.3734103386316
0.000255772882047283,18.3834103386316
0.000281611313677002,18.3934103386316
0.000311766548361018,18.4034103386316
0.000347308724836111,18.4134103386316
0.000389676600317177,18.4234103386316
0.000440845333233352,18.4334103386316
0.000500790963785349,18.4430002907235
0.000568723062529517,18.4518627298442
0.000645555165431843,18.4600407043416
0.000732442325605581,18.4675873507249
0.000830716006648844,18.474552416216
0.000941889648803029,18.4809820387264
0.00106767834212884,18.4869190341798
0.0012100243768163,18.4924031578325
0.00137112895577292,18.4974713018145
0.00155348529067508,18.5021576959444
0.00175992116623098,18.506494119801
0.00199364584848707,18.5105101153632
0.00225831022322554,18.5142331589386
0.00255807347488342,18.5176888264391
0.00289769256891538,18.5209009834511
0.00328263420830914,18.5238919830113
0.00371921726022077,18.5266828509024
0.00421480797841887,18.5292935089115
0.00477808917449743,18.5317430485748
0.00541944477853879,18.5340500593445
0.00614371401932792,18.536211775709
0.00694273789707172,18.5382032604599
0.00782652469577212,18.5400579927053
0.00881015222664289,18.5418095242428
0.00991708941265244,18.5434937367843
0.0111888584648437,18.5451571980222
0.0127591667296104,18.5469273999614
0.0150694764914747,18.5491561601897
0.0167162598617709,18.550572651328
0.0184636381502484,18.5519891424663
0.0200622220205688,18.553256378033
0.0214863611473674,18.5544059412578
0.0227653360636289,18.5555016251696
0.0239001273883061,18.5565857090054
0.024873205658191,18.5576964400062
0.0256481682284571,18.5588834825868
0.0261519231525824,18.5602404005151
0.0261608146122039,18.562090570013
0.0256063109045564,18.563651985143
0.0246345793021943,18.5652134002731
0.0234940863102445,18.5666176239997
0.022201831076236,18.5680015963997
0.020766325532117,18.5694257747579
0.0191974996837731,18.5709289189402
0.0175010172308307,18.5725504571729
0.0160606762592865,18.5739876396048
0.0144942222736387,18.5756722598875
0.0130569547850173,18.5773568801701
0.0118719498678661,18.578870567304
0.0108332162389132,18.5803116792947
0.00986476562396797,18.5817725526456
0.00890947355573568,18.583349206236
0.00789002191597057,18.5852171709809
0.00670758807052126,18.5876975068974
0.00567092385254305,18.59025311617
0.00482579797260709,18.5927110551905
0.00408928777276705,18.5952469801244
0.00340424149154632,18.5980898708882
0.00281888814680838,18.6010869381946
0.00232729200590943,18.6042634804708
0.00192491396075028,18.6076544046016
0.00161074248169064,18.6113022974809
0.00138942708307747,18.615260454755
0.0012756174617648,18.6195975598692
0.00128811504905036,18.6236078766149
0.00140358364518049,18.6272058657859
0.00160618050551006,18.6304428739503
0.00188774624869792,18.6333659689369
0.00224545673797361,18.6360232845497
0.00268124797044988,18.6384644352782
0.00320191488558345,18.6407387200924
0.00382147176218001,18.6428999650949
0.00456497722032312,18.6450090934527
0.00547997091603577,18.6471491969463
0.00666554487958333,18.6494563110686
0.00832487510933979,18.6521486768976
0.0103518639608037,18.6549115619526
0.0119022705899195,18.6567471789704
0.0136516271704478,18.6585827959882
0.0154448695983599,18.6602379502121
0.0173308561664615,18.6617636923409
0.0193550364950811,18.6631923917046
0.0215806761247686,18.6645563560068
0.0240465361873167,18.6658626985467
0.0267965054882622,18.6671180918649
0.0298755472963148,18.6683267277234
0.0333320109551633,18.6694918877815
0.0372137653043338,18.6706149833308
0.0415820164566653,18.6716997127635
0.0465010294216811,18.6727483675999
0.0520480990217554,18.6737640797103
0.0583130846934362,18.6747499832048
0.0654009968420164,18.6757092008671
0.0734381395428786,18.6766451832449
0.0825769606584646,18.6775616059222
0.0930031225933324,18.6784623984473
0.10494586234052,18.6793518697133
0.118694095150829,18.6802349626648
0.134616847620169,18.6811173835961
0.153197220256242,18.6820060317106
0.175088577398267,18.6829097241528
0.200972051030555,18.6838324869615
0.230920683561135,18.6847577878964
0.265685286072387,18.6856947453449
0.30630211300588,18.6866581130861
0.354503908343696,18.6876783044921
0.391450690715502,18.6884038145662
0.429629978766086,18.6891293246403
0.463547765273715,18.6897767113096
0.493316119251528,18.6903716899298
0.519433090637574,18.6909447291544
0.541830196866553,18.6915193704996
0.559940166256913,18.6921206988221
0.57243090791514,18.692787274201
0.576011643442221,18.6935377937531
0.567872498642303,18.6943113744378
0.546740408010519,18.6951293702506
0.510921968128267,18.6960041436182
0.461646486898977,18.6968922995734
0.397750148458383,18.6978145068989
0.349041943684869,18.6984249213368
0.296167715943697,18.6990353357746
0.249858927465327,18.6995451163836
0.210564293721161,18.6999714911191
0.17625085461374,18.700347438313
0.145635693020951,18.7006925277786
0.117955383843191,18.7010187871557
0.0926873010128273,18.7013350429312
0.0694002508447379,18.7016494311658
0.0476242241211698,18.7019721723271
0.0265381909090616,18.7023233072233
0.00793125784740372,18.7026801148346
-0.00162014966134797,18.7028878194627
-0.0102696473739107,18.7030955240907
-0.016947752414336,18.7032721686511
-0.0230626098390364,18.7034496664597
-0.0292411185149895,18.7036483832893
-0.0352225162803861,18.7038647798745
-0.0408387103785719,18.7040966690568
-0.0459956217396507,18.7043432457247
-0.0506437730974205,18.7046046267163
-0.0547606900238285,18.7048815910539
-0.0583405082726147,18.7051754546378
-0.0613876136016161,18.7054880279874
-0.0639045080599358,18.7058216312596
-0.065884326222409,18.7061763995392
-0.0673615208502186,18.7065575861567
-0.0683553201911226,18.7069702343554
-0.0688783807424179,18.7074197945479
-0.0689395199533802,18.707913173293
-0.068541560694052,18.7084593253664
-0.0676762126553418,18.7090713688589
-0.066319052704063,18.7097669380797
-0.0644193050807942,18.7105723677614
-0.0618707247881967,18.7115329266277
-0.0584042507402713,18.7127498488619
-0.0542226714219486,18.7141679242945
-0.0501502130500596,18.7155402065344
-0.0462443262982649,18.716872594417
-0.0425347017695931,18.7181674208981
-0.0390373919256032,18.7194254765189
-0.0357607184419656,18.7206467779146
-0.0327078103060746,18.7218309742353
-0.029877903786127,18.7229775618923
-0.0272671625369033,18.7240859962965
-0.0248693008112603,18.725155746059
-0.022676117555746,18.7261863131893
-0.0206779783981098,18.7271772318596
-0.0188642545108024,18.7281280526757
-0.0172237181480645,18.729038316289
-0.015651443873123,18.7299642142487
-0.0141393077776661,18.7309140193085
-0.0126914355422937,18.7318895724037
-0.0113116809383757,18.7328930915478
-0.0100036780192802,18.7339271893034
-0.00877078792333583,18.7349949720489
-0.00761604359718895,18.7361001712213
-0.00654209146092995,18.7372473213525
-0.00555112940194594,18.738442007528
-0.00464483973369576,18.7396912193393
-0.00382431446446231,18.7410038747807
-0.0030899678116703,18.7423916286051
-0.00244142606912063,18.7438701857427
-0.0018773743917315,18.7454615814564
-0.00141819175303903,18.7471048096286
-0.00105193893704417,18.7488015586104
-0.000762898049645275,18.7505703835865
-0.000536520446987105,18.7524347632093
-0.000358893450900142,18.7544266815646
-0.000216180349339239,18.7565927396746
-9.36677898308929e-05,18.7590075181287
2.64109430505016e-05,18.7618092494391
0.00017264024371083,18.7653378876112
0.000341591523258884,18.7691168315886
0.000550284073091436,18.7733077145267
0.000818882640498809,18.7782526534008
0.00108784832494885,18.7829907139789
0.00133968528473547,18.7873875181549
0.0015838369823245,18.7916888121926
0.0018340023053272,18.7961679435971
0.00211274581350267,18.8012480692991
0.00237859359335172,18.8061469475826
0.00264744023168632,18.8111222210394
0.00288441082593742,18.8154857284669
0.00310244350361684,18.8194625525142
0.00331470003875022,18.823282031303
0.00352773063155272,18.8270492525741
0.00374588563142573,18.8308262983041
0.00397274163094753,18.8346575102748
0.00421166030010036,18.8385786979552
0.00446607731214115,18.8426213032113
0.0047397413274244,18.8468153292815
0.00503690488089086,18.851190893788
0.00536256108817632,18.8557794789281
0.00572280785899247,18.8606152103998
0.00612544080352105,18.8657360446287
0.00654918883582478,18.8708129007053
0.00699605983457833,18.875835433122
0.00746839864504093,18.8807893869856
0.00797014479192948,18.8856711542819
0.00850648851507971,18.8904824614815
0.00908363579164641,18.8952269832003
0.00970861843913575,18.8999078622988
0.0103892102890384,18.9045266456799
0.0111489789509023,18.9091708387309
0.0120033436238478,18.9138430659756
0.01297302433912,18.9185565957911
0.0140866410504835,18.9233389071887
0.0153892736685159,18.9282534926155
0.0169688219106805,18.9334624796123
0.0190895379649631,18.9395387366844
0.0208508221648353,18.9440606224158
0.022718397357314,18.9485825081471
0.0242795533459428,18.9523365808671
0.025576831233321,18.9556152462902
0.0266631153628805,18.9586828785841
0.0275322339067893,18.9616634495492
0.0281319412706671,18.9645025015168
0.0284634815051618,18.9673201758565
0.028501308832664,18.9702650709438
0.028152068908251,18.9736285903958
0.0271314817513373,18.9779706341463
0.026231754690255,18.9806508871571
0.0251725985365116,18.9833311401678
0.0240996953388939,18.9857797534641
0.0230257071546222,18.9880832019855
0.021951180615507,18.9903058910218
0.0208789351136221,18.9924840961364
0.0198126176975073,18.9946407713132
0.0187559170047015,18.9967920931002
0.0177123189241518,18.9989503899651
0.0166850427957255,19.0011256344013
0.0156770294634593,19.0033263015709
0.0146909463013403,19.0055599065667
0.0137292007216826,19.007833357041
0.0127939467595513,19.0101532210824
0.0118870979978371,19.0125259189595
0.0110103381245052,19.0149578812988
0.0101651236234546,19.0174557074888
0.00935269862724486,19.0200262810117
0.00857409809835832,19.0226769165514
0.00780850512594441,19.0254986247039
0.00705862218121813,19.028514495383
0.00632818710259221,19.0317480162777
0.00562121932277456,19.0352263173228
0.00494185567525329,19.0389807965383
0.00429431107184877,19.043047971341
0.00368280525096957,19.0474706996139
0.00311139144890874,19.0523001838665
0.00258372750285892,19.0575993984796
0.00210277148200811,19.0634496420086
0.00167067775547085,19.0699593820229
0.00129789592990543,19.0770800695144
0.000986761046721446,19.0847814619096
0.000730638618427991,19.0931877851544
0.00052795638774293,19.1024640654398
0.000381596972053724,19.1124640654398
0.000285686961947912,19.1220147688491
0.000214884703841979,19.1320147688491
0.000165567477989736,19.1420147688491
0.00013164987181708,19.1520147688491
0.000108742280390794,19.1620147688491
9.35960863700222e-05,19.1720147688491
8.38674768574487e-05,19.1820147688491
7.79228265529743e-05,19.1920147688491
7.46489384500751e-05,19.2020147688491
7.32924913476124e-05,19.2120147688491
7.33425982525878e-05,19.2220147688491
7.44523362539713e-05,19.2320147688491
7.63879237104312e-05,19.2420147688491
7.89953033367173e-05,19.2520147688491
8.21774564223512e-05,19.2620147688491
8.58786890033802e-05,19.2720147688491
9.00737794973749e-05,19.2820147688491
9.47606619255272e-05,19.2920147688491
9.99557101395116e-05,19.3020147688491
0.000105690943932647,19.3120147688491
0.000112012683939082,19.3220147688491
0.00011898135328298,19.3320147688491
0.00012667226174046,19.3420147688491
0.000135177319862158,19.3520147688491
0.000144607728257618,19.3620147688491
0.000155097784908947,19.3720147688491
0.000166810065493805,19.3820147688491
0.000179942375126571,19.3920147688491
0.000194737067375471,19.4020147688491
0.000211493611833703,19.4120147688491
0.00023058571878066,19.4220147688491
0.0002524849872647,19.4320147688491
0.000277794081767054,19.4420147688491
0.000307294125222563,19.4520147688491
0.000342013795131416,19.4620147688491
0.00038333240221309,19.4720147688491
0.000433137704784555,19.4820147688491
0.000492038697561209,19.4917077085814
0.000558821524786534,19.5006691694397
0.000634358457552265,19.5089385808732
0.000719779830804333,19.5165694843008
0.000816392978828512,19.5236121482077
0.000925685254445714,19.5301131931434
0.00104934248895151,19.5361158779021
0.00118927383471395,19.5416603678248
0.00134764266737619,19.5467839396336
0.0015268996662953,19.5515211788559
0.00172982349647353,19.5559041910239
0.00195956746230145,19.5599628159644
0.00221971774388161,19.5637248065292
0.00251435817783337,19.5672159906802
0.00284815733373918,19.5704604582757
0.00322647582659849,19.5734807607997
0.00365550450231325,19.576298095368
0.00414245097048736,19.578932521132
0.00469579599911021,19.5814032267752
0.00532565923845797,19.5837288475454
0.00604031835502943,19.5859166535663
0.00682863591995701,19.5879295269719
0.00770005957848063,19.5898009921501
0.00866888366833496,19.5915646378224
0.00975706124289889,19.593255691543
0.0110026069115327,19.5949184010844
0.0125175735635197,19.5966613770163
0.0146590486664234,19.5987745507097
0.0163143650782444,19.6002262304861
0.0180863087627983,19.6016779102626
0.0197324789947843,19.6029847112748
0.0211910141574145,19.6041534611722
0.0225005406021562,19.6052567834327
0.0236674563104571,19.6063402184772
0.0246778533856093,19.6074416434375
0.0255000873586824,19.608606617143
0.0260723226662016,19.6099137998592
0.0262324367244045,19.6115892414044
0.0257998431990414,19.6132233591847
0.0248802986287301,19.6148574769649
0.0237753446875682,19.6162833042787
0.022518015589201,19.6176650814784
0.021115138740054,19.6190760862223
0.0195768434253683,19.6205574136574
0.0179101826473646,19.6221471477756
0.0161436597827308,19.623894303671
0.0147317632383504,19.6253995684102
0.0132276440477988,19.6271407874355
0.0120140593273924,19.6286741728293
0.0109615409687675,19.6301189903589
0.00998723615572764,19.6315725832541
0.00903350793212204,19.6331276198109
0.00802889174776362,19.6349413910877
0.00682921087261959,19.6374151627058
0.00577670569616821,19.6399633560772
0.00491327919469975,19.6424283079091
0.00416891169822096,19.6449416468422
0.00347262956273164,19.6477697726808
0.00287684558923219,19.6507493935372
0.00237546993473863,19.6539050848516
0.00196365959805942,19.6572710772575
0.00163994608885042,19.6608890135625
0.00140822061453593,19.6648108489698
0.00128173189076725,19.6691033203187
0.00128105096063991,19.6731685770093
0.00138587761047733,19.676809681727
0.00157917565680448,19.6800850186603
0.00185206669973277,19.683041017869
0.00220123640462905,19.6857261288273
0.00262799407505177,19.6881891247987
0.00313857887080347,19.6904796492921
0.00374601533887978,19.6926507686576
0.00447347380016036,19.694761425491
0.00536526861439199,19.6968920766346
0.00651285431099238,19.6991715713642
0.00811233899814111,19.7018199665764
0.0100978348860579,19.7045801266365
0.011652466322633,19.7064557425183
0.0134081905295916,19.7083313584001
0.0151966785984623,19.7100116841361
0.0170679337222118,19.7115532640722
0.0190694734403017,19.7129928040929
0.0212649987571637,19.7143647586487
0.0236958920494155,19.7156785943542
0.0264037295578562,19.7169402091292
0.0294356589339126,19.7181551686394
0.0328375020503285,19.7193259772069
0.0366579801140065,19.7204545928197
0.0409566691536198,19.7215444775866
0.0457960567852545,19.7225977808136
0.0512527630461185,19.7236178173615
0.0574143440349548,19.7246076167872
0.0643830588856367,19.725570235293
0.0722826859896164,19.7265091756849
0.0812615007991597,19.7274280446869
0.0915000083159993,19.7283307212084
0.103220777854,19.7292214573148
0.116703619007549,19.730105106905
0.132304953575121,19.7309872482831
0.150489707500468,19.7318745851072
0.171883228823658,19.7327756027412
0.197267985882154,19.7336985734497
0.226630593128673,19.7346230825181
0.26069547812863,19.7355577899611
0.300447451711459,19.7365163671926
0.347475037067945,19.7375259223878
0.385050438841221,19.7382706633607
0.424124843940305,19.7390154043337
0.45877824158665,19.7396746779931
0.489119355416411,19.7402752932374
0.515772406394406,19.7408500365649
0.538746498778403,19.7414229838586
0.55755426941067,19.7420184245842
0.571018558317526,19.7426716414438
0.576195513979635,19.7434206998781
0.569779161008456,19.7441896767831
0.55059332455499,19.7450001617651
0.5167446847459,19.7458712896718
0.469566180068857,19.7467536253327
0.407405287608751,19.7476759261452
0.357604765352934,19.7483118628232
0.303088835938887,19.7489477995013
0.255511273500101,19.7494737826781
0.215403293329561,19.7499091372272
0.180523317248884,19.7502903694861
0.149473724187115,19.7506387186225
0.121441326850232,19.7509669064039
0.0958819976867766,19.7512840186721
0.0723592339342832,19.7515981529258
0.0504182215255729,19.7519190154241
0.0293238259133904,19.7522643517984
0.00634773719492787,19.7527033622434
-0.00270291988792086,19.7529028553072
-0.01092585151186,19.7531023483709
-0.0175012041180239,19.7532777173338
-0.0236366811103229,19.7534573916725
-0.0298068550439572,19.7536578889675
-0.0357600964647066,19.753875786659
-0.0413368587550709,19.7541090527581
-0.0464482209682589,19.7543569836559
-0.0510478050626176,19.7546197658768
-0.0551150324960568,19.7548982318888
-0.0586452112744512,19.7551937441789
-0.0616434444321455,19.7555081590804
-0.0641551600550572,19.7558507875579
-0.066074564128743,19.7562078146607
-0.0674968925772164,19.7565922838418
-0.0684374027207095,19.757008771107
-0.068908385118188,19.7574628625707
-0.068918106920125,19.7579616600175
-0.0684685476710144,19.7585143981343
-0.0675497322017653,19.7591348013732
-0.0661350401168747,19.7598411301988
-0.0641694914410117,19.7606611457694
-0.0615368392512744,19.7616435454221
-0.0579305192707261,19.7629024733174
-0.0537579280390827,19.7643145342007
-0.0497020490757174,19.7656821393489
-0.0458170881795975,19.767010228722
-0.0421307129320577,19.7683009028405
-0.0386579075204608,19.7695548360561
-0.03540631777801,19.7707719883001
-0.0323785834321825,19.7719519834539
-0.0295735597677975,19.7730943091881
-0.0269871063004489,19.7741984205312
-0.0246126964464731,19.7752637893578
-0.0224419448584754,19.7762899216941
-0.0204650842478422,19.7772763545839
-0.0186713995614483,19.7782226390147
-0.0170496184497443,19.7791283124814
-0.0154836067954244,19.7800567870892
-0.0139782846450927,19.781009301703
-0.0125376549134242,19.7819877898945
-0.0111655506179375,19.7829945082182
-0.00986557865030268,19.7840321177931
-0.00864106710662958,19.7851037860765
-0.00749500968627278,19.7862133224012
-0.0064300069974152,19.7873653622892
-0.00544820408262074,19.7885656243764
-0.0045512226994865,19.7898212791704
-0.00374008550684955,19.7911414971226
-0.00301512671215489,19.7925382985939
-0.00237587850924636,19.7940279437649
-0.00182091108935872,19.7956333658811
-0.00137300454484045,19.7972815197093
-0.00101612297032313,19.7989853429398
-0.000734785038561688,19.8007635509914
-0.000514533688766817,19.8026403854637
-0.00034149679503835,19.8046490797348
-0.000201798403765736,19.8068384873777
-8.05311586845481e-05,19.8092878172874
4.06871182770277e-05,19.8121471670101
0.000193059084403584,19.8158046899477
0.000365326843568242,19.8196066466
0.000580583970897878,19.8238747002273
0.000850774246118793,19.8288115894449
0.00111737512413082,19.8334963375863
0.00136775646087196,19.8378694593644
0.00161179790565418,19.8421758128332
0.00186389431572501,19.8466986999581
0.00214015897731583,19.8517411576624
0.00240543860989994,19.8566336197477
0.00267558862263948,19.8616330482894
0.00290947810230202,19.8659356772682
0.00312640385828215,19.8698869654578
0.0033384850859327,19.8736965037572
0.0035518973567471,19.8774621885731
0.00377085867024487,19.8812433083123
0.00399890213502948,19.8850829376938
0.00423938572860364,19.8890162327232
0.00449576939250021,19.8930743519648
0.00477184863226543,19.8972872433874
0.00507194593268168,19.9016851184284
0.00540115684119656,19.9062996886808
0.00576573563622612,19.9111654651158
0.00617371888790864,19.916320878967
0.00659899384910053,19.9213795361799
0.00704895918071789,19.926398390164
0.0075243355393052,19.9313429271657
0.0080297877761342,19.9362166920693
0.00857047099377427,19.9410200770447
0.00915273430166192,19.9457571833871
0.00978368401809719,19.9504308872934
0.0104711854211716,19.9550425911754
0.0112411200738286,19.9596913293695
0.0121074078021603,19.9643671755907
0.0130918258531599,19.9690867648925
0.0142242234284087,19.9738799013985
0.0155526162566983,19.9788167576322
0.0171738040856646,19.9840801207382
0.0194041527200248,19.990364516244
0.0213109213190767,19.995182258122
0.0227980732346476,19.9987632986616
0.0233155114037708,20
