ecg,time
0.0198993465332374,15.0017966365376
0.0188414877441704,15.0039488222586
0.0177963526788537,15.0061077755172
0.0167671611742957,15.0082836677699
0.0157568540680743,15.0104851568112
0.0147680978237777,15.012719942409
0.0138032975131953,15.0149951341113
0.0128646063715823,15.017317524783
0.0119539361929923,15.0196938010385
0.0110729706415831,15.0221307088813
0.0102231682984351,15.0246352270452
0.00940577921926279,15.0272146963154
0.00862184737823706,15.0298769918316
0.00785569502889201,15.032693994512
0.00710505369259718,15.0357050781689
0.00637372615313368,15.0389334885751
0.00566564653512168,15.0424063812119
0.00498492913655969,15.0461552010889
0.00433580846322942,15.0502165379082
0.00372253716650143,15.0546333327129
0.00314921861192163,15.0594568552257
0.00261958121036631,15.0647500744353
0.00213666884284768,15.0705941953423
0.00170272445389672,15.0770976533152
0.0013286657856049,15.0842050632816
0.0010761025061483,15.090268497976
0.00088620949679428,15.0963319326705
0.000689653951449936,15.1047722859005
0.000538856384406106,15.1137504126884
0.000424029425287007,15.1233752162463
0.000342325166615585,15.1333752162463
0.000288482553957097,15.1433752162463
0.000254654462355809,15.1533752162463
0.000235147185198231,15.1633752162463
0.000225977236843759,15.1733752162463
0.000224477917829115,15.1833752162463
0.000228942398297234,15.1933752162463
0.000238345636589879,15.2033752162463
0.000252157553624728,15.2133752162463
0.000270233483755006,15.2233752162463
0.000292762424333683,15.2333752162463
0.000320260427644516,15.2433752162463
0.000353606612610093,15.2533752162463
0.000394129696889585,15.2633752162463
0.000443765423066337,15.2733752162463
0.000502571008020661,15.2829650454858
0.000569782933279669,15.2918224216352
0.000646348212254888,15.2999917620637
0.000733496561390475,15.3075274923377
0.00083266111561022,15.3144803383681
0.000945477626818196,15.3208971972148
0.00107380266549891,15.326821479166
0.0012197405710379,15.3322934117962
0.00138567661420345,15.3373502983793
0.00157431470974972,15.3420267535283
0.00178872300714677,15.3463549248834
0.00203238753634739,15.3503647031936
0.00230927882067755,15.3540839186098
0.00262393291334568,15.3575385347257
0.00298155597420795,15.3607528507292
0.00338815956145106,15.3637497157542
0.00385074112086202,15.3665507641982
0.00437753424619026,15.3691766957698
0.00497836728866,15.3716476314063
0.00566520199325984,15.3739835996342
0.00642851844795651,15.3761421145665
0.00727500007319711,15.3781489929822
0.00821950960323182,15.3800417899522
0.0092855733339504,15.3818610435078
0.0105155397548891,15.3836599801604
0.0120208903747395,15.3855543651036
0.0142798755714283,15.3879846056574
0.0158062216388764,15.3894528708803
0.0174161319679697,15.3909211361032
0.0188822848359611,15.3922368159883
0.020188603169601,15.3934380336109
0.0213570435931433,15.3945869610976
0.0223852502564846,15.3957261525094
0.0232540150116732,15.3968953660996
0.0239253191360921,15.3981475125335
0.0243221896070895,15.3995850033705
0.0241932537240445,15.40158588116
0.023564815489854,15.4031901015631
0.0225608896948633,15.4047943219661
0.0214178064811685,15.4062386080697
0.0201406650269728,15.4076626300951
0.0187366421840232,15.4091249510502
0.0172152417797725,15.4106633912979
0.0162773352569348,15.4116092650387
0.0153602486054682,15.4125551387796
0.0139418326059082,15.4141043628161
0.0115657876828062,15.417001263051
0.00958550511597355,15.4198112094378
0.00801339996513452,15.4224084807393
0.00670955201615444,15.4249075546532
0.00556895042571718,15.4274481226215
0.00456576510194481,15.4300592932948
0.0036880292242703,15.4327438772277
0.00298175540685638,15.4352770173932
0.00240495626254417,15.4376802133479
0.00192460147324432,15.4399855450835
0.00151559150363409,15.4422312097586
0.00115750322990779,15.4444701263284
0.000831171923302519,15.446790932518
0.00050823304877373,15.4494199968708
0.000271383058258323,15.4516096146357
5.92474039941875e-05,15.4537992324006
-0.000103428352694238,15.4556499291163
-0.000237297247733228,15.4573004273803
-0.000358135818411715,15.4589003187148
-0.000474431308062384,15.4605482259285
-0.000593965933452322,15.4623624416273
-0.000730593140645571,15.4645986225074
-0.000968138572269508,15.468941230962
-0.00116830902993244,15.4731037503396
-0.00132330866202231,15.476683519016
-0.00147289460723,15.4804741132234
-0.00164687252293085,15.4853986555602
-0.00180996710215003,15.4908820829867
-0.00191350920181039,15.4956996509123
-0.00195517792327408,15.5000569522034
-0.00192575933363501,15.5039714725535
-0.00181775890377395,15.5074955733561
-0.00162539993417933,15.5106816536
-0.0013435837360276,15.5135887646226
-0.000965481036275668,15.5162806339168
-0.000479919604880217,15.5188220000457
0.000133651013121779,15.5212864498
0.000913951264924327,15.523766566121
0.00195611889735143,15.5264428704807
0.00336279484130084,15.5294140723447
0.00513024612412662,15.5325593049473
0.00655997780786182,15.5347919620532
0.00815579725341255,15.5370246191591
0.00970826978632286,15.5389602996064
0.0113178271465692,15.5407435338675
0.0129618459234186,15.5423529575678
0.0147593744299492,15.5438998151569
0.0167225608619773,15.5453751111478
0.0188909676058164,15.5467913687246
0.0213056629132545,15.548156996341
0.0239910705721285,15.5494687384389
0.0269927023477253,15.5507332785289
0.0303499088511403,15.551951944577
0.0341052928759701,15.5531261445042
0.0383155928880624,15.5542600558763
0.0430418642951868,15.5553565914666
0.0483556341018653,15.5564189259588
0.0543392445203691,15.5574500909654
0.0610959298374354,15.5584541695295
0.0687476586319858,15.5594350467369
0.0774434236769938,15.5603969460272
0.0873682033210357,15.5613445816454
0.0987556265592668,15.5622833422576
0.111908992340148,15.5632197218512
0.127233896547418,15.564161875107
0.145294717996101,15.5651206268835
0.166741139938336,15.5661037602323
0.191579599580651,15.5670902292471
0.220465374954672,15.5680905785833
0.254281581380078,15.5691199303632
0.294352724857481,15.570203635001
0.340749734967133,15.5713401279699
0.380843195957868,15.5722669317257
0.41429843167175,15.5730328716163
0.443328589398201,15.5737192252075
0.468685119204418,15.5743660468847
0.490423215986583,15.5749986068895
0.508170648885013,15.5756390112189
0.521057833163591,15.5763130821325
0.527281774416466,15.5770613207282
0.523645252989125,15.5778670738485
0.50842981431244,15.5786955165104
0.480227792567597,15.5795624990504
0.437237316883479,15.5804793720259
0.37748886637615,15.5814546476474
0.333684372068487,15.5820619849681
0.285728922839763,15.5826693222889
0.242965562074071,15.5831823312455
0.206118831868687,15.5836157104148
0.173635750911115,15.5839997938111
0.144482062217228,15.5843531128929
0.118020282785243,15.5846873251978
0.0938038055112922,15.5850110552285
0.0714604011807286,15.5853321682394
0.0505894822987158,15.5856601975098
0.0305325420945538,15.5860124946789
0.00891402544533854,15.5864540356883
-0.000107373243484651,15.5866661731528
-0.00828293056161918,15.5868783106174
-0.0147395424935975,15.5870629036183
-0.0207211045349446,15.5872509695402
-0.0267100073471184,15.5874601986121
-0.0324692489663078,15.5876871578427
-0.0378492672932201,15.5879298206047
-0.042767603363816,15.5881875194097
-0.0471818682053959,15.5884604917892
-0.0510730043118687,15.5887496301218
-0.054672235641936,15.58908185879
-0.0574280377391453,15.589407210844
-0.0596678784742093,15.5897541338263
-0.0614089373658232,15.5901260374222
-0.0626656257561965,15.5905266802112
-0.0634514474105901,15.5909607072392
-0.0637774918095814,15.5914339246091
-0.0636507113783483,15.5919537066025
-0.063071350328127,15.5925298952755
-0.0620273341120705,15.5931767279399
-0.0604903475670363,15.5939131447578
-0.0584030663412789,15.5947682526367
-0.0556443396440731,15.5957937220832
-0.0518864639673421,15.5971144029173
-0.0478422813679773,15.5985040286764
-0.0439406193024258,15.5998489304369
-0.0402258851880697,15.601153251924
-0.0367196588368408,15.6024190622544
-0.0334327902584661,15.6036470942652
-0.0303696577556629,15.6048374056014
-0.0275301470420656,15.6059897315793
-0.0249107663927354,15.6071036706801
-0.0225054066570913,15.6081787793448
-0.0203059422717524,15.6092146153298
-0.0183027476031572,15.6102107501774
-0.0164851551351538,15.6111667619123
-0.0148418626188913,15.6120822140712
-0.0132809601029932,15.6130056049757
-0.0117804682601651,15.6139527474909
-0.0103446686016739,15.6149253865417
-0.00897746409048219,15.6159257029508
-0.00768255014313713,15.6169562613241
-0.00646336286373595,15.618020106879
-0.00532302661174731,15.6191208923726
-0.00426429925906737,15.6202630498158
-0.00328951497715362,15.6214520283917
-0.00240052390737779,15.6226946335199
-0.00159862727263188,15.6239995265389
-0.000884505054781481,15.625377991617
-0.000258130627824817,15.6268451735655
0.000281339043705104,15.6284222082377
0.000717395568280203,15.6300607049423
0.00105778284568425,15.6317504765258
0.00131823789351321,15.6335099635172
0.00151310998707397,15.6353618897012
0.00165595499250707,15.6373370117105
0.00175999765406971,15.6394797390361
0.00183886084477952,15.6418602262613
0.00190809814094123,15.6446057171329
0.00199014885906259,15.6480148112698
0.00209596787551226,15.6517755576378
0.00223840916104169,15.6558953829823
0.00240716724582654,15.6600536533606
0.00258208087644218,15.6639590527833
0.00276175390775204,15.667756728267
0.00294586415018227,15.6715301291665
0.0031349615680539,15.6753331141274
0.00333039061477518,15.6792062359304
0.00353414535488891,15.6831836518676
0.00374874080726618,15.6872966322113
0.00397713084811214,15.6915757757739
0.00422268249141747,15.6960525213021
0.00448925015383086,15.7007605174257
0.00478141116097964,15.70573706515
0.00510492771311631,15.711024324217
0.00545019837296115,15.7164038822055
0.0058067739152968,15.7216697781769
0.00618003123302266,15.7268656752764
0.00657162833883875,15.7319706794329
0.00698589866359789,15.7369967602947
0.00742720309661354,15.7419500785449
0.00790047398359004,15.7468378021176
0.00841097116409145,15.7516643116866
0.00896441327881082,15.7564319394921
0.00956705176092177,15.7611409942259
0.0102258042224165,15.7657903761367
0.0109569234744973,15.7704297336554
0.0117802969724406,15.7751010405167
0.0127135995606853,15.7798070412564
0.0137826409683084,15.7845706827374
0.0150263178767474,15.7894419813291
0.0165155731772103,15.7945442922871
0.0184324570482003,15.8002591282184
0.0208516509863064,15.8065810286082
0.0223842253747484,15.81030162209
0.0239380418452969,15.8140222155717
0.0252887328205891,15.8173731820218
0.0264270315290369,15.8204749783858
0.0273593256875166,15.8234863513211
0.0280273467111162,15.8263488572619
0.0284290112346343,15.8291585377508
0.0285474143175939,15.8320516987181
0.0283153936570162,15.8352581153323
0.0274111949020181,15.8396539531596
0.0265364791253152,15.842438070178
0.0254771500095762,15.8452221871965
0.0244031982697202,15.8477277043665
0.0233295581308734,15.8500608139892
0.0222549635019491,15.8523000592218
0.0211816452663555,15.8544874002843
0.0201131350570794,15.8566484066814
0.0190531345793092,15.8588006843618
0.0180051785359577,15.8609574414882
0.0169725424526576,15.8631292451967
0.0159582225156655,15.8653250065245
0.0149649392242505,15.8675525846058
0.01399514942989,15.8698191838656
0.0130510550982485,15.8721316461132
0.0121346162802393,15.8744966648504
0.0112475615769766,15.8769209638134
0.0103913925681906,15.8794114700341
0.00956740152746957,15.8819754406741
0.00877667250232312,15.8846206376143
0.00800791993179912,15.8874013354669
0.00725389686825109,15.8903720413685
0.00651842964309684,15.8935551164925
0.00580541218931783,15.8969769460887
0.00511892464442589,15.9006680734258
0.0044631854875394,15.9046639814754
0.00384245484060357,15.9090062306154
0.00326088288988456,15.9137442300929
0.0027222978274745,15.9189382266238
0.0022298962958398,15.9246652031224
0.00178608195578634,15.9310273856279
0.00139892479285015,15.9380320010745
0.00115668012749343,15.9434940673794
0.00096498196159266,15.9489561336844
0.000767921743515735,15.9564460813887
0.000606060534817711,15.9648013966804
0.000475317999944597,15.9741192149439
0.000377842872761285,15.9841192149439
0.000312777170831784,15.9941192149439
0.000271033985149117,16.0041192149439
0.000245999570081641,16.0141192149439
0.000232974359532899,16.0241192149439
0.000228757387104325,16.0341192149439
0.000231263494508429,16.0441192149439
0.000239206721177244,16.0541192149439
0.000251875326945741,16.0641192149439
0.000268992681014842,16.0741192149439
0.000290645036468357,16.0841192149439
0.000317260465333146,16.0941192149439
0.000349632988494463,16.1041192149439
0.00038899688173089,16.1141192149439
0.000437168590269904,16.1241192149439
0.000494993501331495,16.1338423730723
0.000561165796963556,16.1428267987803
0.000636571542221653,16.1511124289282
0.00072240860178331,16.1587544774831
0.000820083986499962,16.165804551874
0.000931207772467342,16.1723103387136
0.00105760879672663,16.1783159563023
0.00120136056118127,16.1838622726856
0.0013648136548591,16.1889871744623
0.0015506331019694,16.1937258081618
0.00176184275292804,16.1981108067945
0.00200187825200884,16.2021725046544
0.00227465203585536,16.2059391378689
0.00258463257985916,16.2094370400965
0.00293694652726335,16.2126908456731
0.00333751008121084,16.2157237052751
0.00379320455628975,16.2185575208106
0.00431211844919381,16.221213222727
0.00490389326348658,16.2237111208428
0.00558024121994664,16.2260713800906
0.00633476612265618,16.2282591755045
0.00717140555251099,16.2302910576728
0.00810447001026627,16.2322047593635
0.00915656737227364,16.234040786973
0.0103679113133177,16.2358513057385
0.0118350035944973,16.2377378273178
0.0140036202344083,16.2401234475933
0.0155319524217786,16.2416231986362
0.0171516166269194,16.2431229496791
0.0186304892152133,16.2444640980795
0.0199448507339409,16.2456801396735
0.0211207045282133,16.2468377904495
0.0221579671645061,16.2479811237243
0.0230392368107459,16.2491495910941
0.0237292119946948,16.250393620719
0.0241579187703931,16.2518061778454
0.0241190634296901,16.2536927417787
0.023539664322973,16.2553667937429
0.0225411008678666,16.257040845707
0.021412321843138,16.2585024586521
0.0201533477644012,16.2599290062824
0.0187680738931758,16.2613879593841
0.017265861948756,16.2629183384842
0.0163272038204365,16.2638696831154
0.0154050309134459,16.2648210277467
0.0144249295750618,16.2658779831967
0.0121062818712869,16.2686202554363
0.0100208373466085,16.2714744942254
0.00836319275259284,16.27411732562
0.00701421468087796,16.2766123347617
0.0058364245460826,16.2791403170234
0.00480111075645776,16.2817330262475
0.00388902697071997,16.2844141130337
0.00314851375983725,16.2869676123084
0.00254440776586457,16.2893906515845
0.00204213044925018,16.2917144916131
0.00161518357765006,16.2939775973442
0.00124197196892124,16.296233807581
0.000902000440500953,16.2985755647665
0.000564081710037287,16.301246718838
0.000323395888622689,16.3034101689055
0.000107741966481775,16.3055736189731
-5.93674970347992e-05,16.3074219647301
-0.000197495020467522,16.3090794630399
-0.000322348591565887,16.3106905213511
-0.000442608026657968,16.312353873948
-0.000566386306646835,16.3141909547595
-0.000708489746199851,16.3164709748271
-0.00095093417587856,16.3208288156593
-0.00115038326277966,16.324914292822
-0.00130431033631965,16.3284178343494
-0.0014537361981095,16.332152616653
-0.00162629325745201,16.3369738625555
-0.00179214713899135,16.3424782985376
-0.00189733784744709,16.347301123871
-0.00194055477073475,16.351668852759
-0.00191258171022803,16.3555960701693
-0.00180587830864111,16.3591341030547
-0.00161459432308385,16.362334427277
-0.00133368838891287,16.3652544550604
-0.000956473833122263,16.3679573484663
-0.000471918744128775,16.370508045457
0.000140366483612933,16.3729804943929
0.000918633069945168,16.3754668801654
0.00195698719776069,16.378146919336
0.0033596074158228,16.3811236174125
0.00511911670658786,16.3842673080268
0.00654814624165814,16.3865055846972
0.00814480415115469,16.3887438613675
0.00969114011170291,16.3906744600129
0.0112957645995555,16.3924544149613
0.0129391265548794,16.3940651999807
0.0147347492998378,16.3956122505259
0.0166999577564251,16.3970907394987
0.0188679921041088,16.3985082604182
0.0212817778020447,16.3998748846193
0.0239662802045421,16.4011877123064
0.0269665625064577,16.4024532266679
0.0303217815656631,16.4036727306818
0.0340751374745542,16.4048478630321
0.0382830215106771,16.4059826848286
0.0430064916769403,16.4070801211076
0.0483170372158465,16.4081433457641
0.0542972093517512,16.4091754329316
0.061050243126685,16.4101804629376
0.0686982106458551,16.4111623327337
0.0773903033825014,16.412125283845
0.0873118540279535,16.4130740561739
0.0986969118945655,16.4140140592983
0.111850250922254,16.4149518730495
0.127179493717026,16.4158957332306
0.145253301693945,16.4168566247681
0.166698569230801,16.4178412556356
0.191539186262182,16.4188295338033
0.220434257970003,16.4198321715325
0.254274430484936,16.4208645729233
0.294402309405808,16.4219526897524
0.34069642515719,16.4230905930558
0.380485962004798,16.4240146560655
0.413750316723581,16.424780549898
0.442635639920321,16.4254679606168
0.467859340501533,16.4261162642322
0.489463270528506,16.4267505391572
0.507066707738234,16.4273928386724
0.519791132842767,16.4280689762856
0.525820590046147,16.4288194208438
0.521971739548927,16.4296266465253
0.506547694812809,16.4304564963602
0.478140360928212,16.4313246497851
0.434957322691469,16.4322423006219
0.375044295409735,16.4332180484587
0.331536855675051,16.4338207787083
0.283977474945842,16.4344235089579
0.241533769290312,16.4349335828218
0.20490896304879,16.4353654092378
0.172590335328389,16.435748669871
0.143567426284491,16.436101573686
0.117214219524729,16.4364356383414
0.0930898414243621,16.4367594328249
0.0708245670414013,16.4370808233836
0.0500169015499551,16.4374094270037
0.0299975181324443,16.4377629616566
0.00827862717967125,16.4382096581027
-0.000480096711486554,16.4384171592872
-0.00843370072646331,16.4386246604717
-0.0148568574360825,16.438809080827
-0.020836550809994,16.4389979154557
-0.0268168663386857,16.4392078419239
-0.0325630312713418,16.4394354478815
-0.0379276063360821,16.439678742373
-0.0428294158226001,16.4399370822517
-0.0472268383248966,16.4402107226027
-0.0511007573469066,16.4405005700055
-0.0546854708773859,16.4408340729718
-0.0574240500676386,16.4411602961567
-0.05964734141038,16.4415081716811
-0.0613725646577785,16.4418811326061
-0.0626141017175787,16.4422829591793
-0.0633853872198599,16.442718323609
-0.063697402714828,16.4431930672559
-0.0635569487761752,16.4437146118398
-0.0629639974805024,16.444292909401
-0.0619061330868108,16.4449422746224
-0.0603545431065516,16.4456818261318
-0.0582509710989682,16.4465410147601
-0.0554719771768395,16.4475723605675
-0.0516803373473312,16.4489041903464
-0.0476428659264205,16.4502919335063
-0.0437500546022802,16.4516350753036
-0.0400452393967299,16.4529376773258
-0.0365494942753009,16.454201763917
-0.0332733667626223,16.4554280474582
-0.0302210220217933,16.4566165777681
-0.0273921810921155,16.4577670887296
-0.0247832206135755,16.45887918044
-0.0223879266642748,16.4599524121274
-0.0201980928464934,16.4609863443785
-0.0182040346614602,16.461980550875
-0.0163950457999469,16.4629346105744
-0.0147598032551383,16.4638480863325
-0.0132015083079116,16.4647726025518
-0.0117038646514949,16.4657209261093
-0.010271099875924,16.4666948424109
-0.00890710833218716,16.4676965487287
-0.00761557400378429,16.4687286303446
-0.00639991899224574,16.4697941584102
-0.00526325095837609,16.4708968186623
-0.00420830824687669,16.4720410857358
-0.00323740250888255,16.4732324649838
-0.00235235814280245,16.4744778376056
-0.00155444704924956,16.4757859701634
-0.000844315713442378,16.4771682982755
-0.000221898784016991,16.4786401949498
0.000313692731441158,16.4802231612096
0.000744943770307477,16.4818636933155
0.00108136359871809,16.4835564172988
0.00133858225163753,16.4853198221588
0.00153090704428135,16.4871769420013
0.00167187224630993,16.4891590349729
0.00177471124805561,16.4913114012342
0.00185310958250873,16.4937059824358
0.00192281583890189,16.4964744130341
0.00200699765095323,16.4999314389071
0.00211485960543456,16.5036993415732
0.00226056329736152,16.5078478449584
0.0024266041860675,16.5118950591904
0.00260055020664912,16.5157516827201
0.00278058072700584,16.5195344597716
0.00296603073693121,16.5233136866735
0.0031572653394959,16.5271375014319
0.00335553876519929,16.5310437279437
0.00356282114046655,16.5350652423602
0.00378165417628138,16.5392329005417
0.00401505755087151,16.5435774579799
0.00426650475041401,16.5481309719983
0.00454002327927484,16.5529282141634
0.0048404797689334,16.5580080619651
0.005174130878608,16.5634147064065
0.00551961799355818,16.5687438836477
0.00587989706853554,16.5740072019733
0.00625610706268487,16.5791795989318
0.00665185864770019,16.5842674407553
0.00707116210310785,16.5892767888647
0.00751863049790931,16.5942158472238
0.0079992071578525,16.5990906802289
0.00851822864662226,16.6039052277735
0.00908148805210701,16.6086612112546
0.00969534390718872,16.6133585136119
0.0103668549417981,16.6179957829447
0.0111161731806108,16.6226433653575
0.0119606444854176,16.6273205544454
0.0129197281120854,16.632036194161
0.0140211223328642,16.6368165590975
0.0153080753082961,16.6417214847862
0.0168636474119665,16.6469023732073
0.0189270840779421,16.6528739913283
0.0207254810076067,16.6575241303854
0.0226421331622795,16.6621742694425
0.0242239933059503,16.6659716872936
0.0255335476503133,16.669265613785
0.0266309247639438,16.6723381563752
0.0275151627110426,16.6753286920676
0.0281295276950201,16.6781712360986
0.0284763116459326,16.6809856439898
0.0285319486929971,16.6839176279683
0.0282094889541067,16.6872431370342
0.0272129339769662,16.69159989102
0.0263189967115342,16.6942995769688
0.0252606615813513,16.6969992629177
0.0241878714713876,16.6994591835176
0.023114052036393,16.7017687305601
0.0220394503220507,16.7039949942252
0.0209667748555183,16.706175411592
0.0198996458084178,16.7083335102889
0.0188417462715671,16.710485814871
0.0177965627806777,16.7126449002007
0.0167673148299844,16.7148209427755
0.015756942905091,16.7170226058503
0.0147681130908083,16.7192575954336
0.0138032300574019,16.7215330284088
0.0128644466898614,16.7238557062469
0.0119536744159832,16.7262323259994
0.0110725966204228,16.7286696461621
0.0102226716642628,16.7311746606621
0.00940514953578473,16.7337547286161
0.00862107425743162,16.7364177476087
0.00785493795660232,16.7392349834982
0.00710431265898385,16.7422463405514
0.00637300329242937,16.7454750634945
0.00566494380753646,16.7489483168811
0.00498424831948114,16.7526975574069
0.00433515112935622,16.7567593901387
0.00372190472703762,16.761176776217
0.00314861234260485,16.7660010124476
0.00261900227665264,16.7712951056003
0.00213611819829588,16.7771403178277
0.00170220277903149,16.7836451757902
0.00132822236393741,16.790753324068
0.00102078336567382,16.7984384323342
0.000838753315058248,16.8047454902495
0.000653720599742978,16.8133093732368
0.000513729075669753,16.8222754098308
0.000403825514850899,16.8322754098308
0.000329799415000652,16.8422754098308
0.000281592021122298,16.8522754098308
0.000251888072067153,16.8622754098308
0.00023543568475276,16.8722754098308
0.000228610421734002,16.8822754098308
0.000229017049800252,16.8922754098308
0.00023514600868656,16.9022754098308
0.000246118664689582,16.9122754098308
0.000261522971961052,16.9222754098308
0.000281321752463005,16.9322754098308
0.000305815390531269,16.9422754098308
0.000335649408755477,16.9522754098308
0.000371867953823196,16.9622754098308
0.000416025446139537,16.9722754098308
0.000470383545799905,16.9822754098308
0.000532836526897641,16.9915458448534
0.000604047488085179,17.0000967508363
0.00068511805180558,17.0079836906304
0.000777368796647648,17.0152596731062
0.000882319455523984,17.0219737002387
0.00100169825526428,17.0281710947811
0.00113746496543056,17.033893833534
0.00129184075821013,17.0391808300581
0.001467343679077,17.0440681798624
0.00166682890636829,17.0485893893998
0.00189353826133315,17.0527755927081
0.00215115848140858,17.0566557549099
0.00244389364740245,17.0602568652962
0.00277655573830063,17.0636041338804
0.003154680549158,17.06672119842
0.00358468109261357,17.0696303454408
0.00407405423751955,17.0723527614842
0.00463167148631598,17.0749088413047
0.0052682044739404,17.0773185906529
0.00598877839051884,17.0795793133993
0.00678660053942875,17.0816676525456
0.00767321761007984,17.0836204280965
0.00866657304777776,17.0854758805652
0.00979635237597943,17.0872781708728
0.0111206642533994,17.0890930350176
0.0128489179057893,17.0911291489604
0.0145477956860758,17.0928877197906
0.0164084580583124,17.0946462906207
0.0180288569987256,17.0961077315273
0.0194299141224305,17.0973708054783
0.0206802451758336,17.0985450747867
0.021794012464766,17.0996853539908
0.0227617139737578,17.1008313678953
0.0235574986322821,17.102025880829
0.0241320265735387,17.10333446916
0.0243735743948857,17.1049110842286
0.024027904548419,17.1067945335138
0.0230852002092785,17.1086779827989
0.0219920243482164,17.1101955699835
0.020776450665025,17.1116214312653
0.0194313727405834,17.1130604299101
0.0179647474705983,17.1145580611605
0.0163843788714491,17.1161511444671
0.0147275949038292,17.1178839713117
0.0131495688744669,17.1196758381151
0.0109165342909803,17.1225292293732
0.00907929936906908,17.1252610032108
0.00760689869024049,17.1278054705121
0.00635589367282018,17.1303133123918
0.00525910887790719,17.1328725840137
0.00429382538279628,17.1355095970099
0.00346741733355014,17.1381626881129
0.00280016618524065,17.1406700820466
0.00225256831865117,17.1430566593506
0.00179388221440117,17.1453566759977
0.00140030423532356,17.1476133336624
0.00105188796245128,17.1498894693564
0.000727752653502017,17.1523041067024
0.000384451514679758,17.1552592715556
0.000184607105162853,17.1572141968515
3.17450996934707e-06,17.1591691221474
-0.000146436668022811,17.160929540159
-0.00027503091259611,17.162563562296
-0.000393918714515225,17.1641843891893
-0.000510792428540194,17.1658907344521
-0.000634481200446039,17.1678295039713
-0.000786228413361978,17.1704118511007
-0.00101070787653404,17.1746865319695
-0.00118074484688994,17.178329763218
-0.00131983980843339,17.1816014815761
-0.00146251090516573,17.1852675899505
-0.00162938896372764,17.1900556379213
-0.00178991380438367,17.1955437214107
-0.00189030203824034,17.2003507616124
-0.00192881344940665,17.204702830212
-0.00189617932682689,17.2086165908481
-0.00178495129476882,17.2121390394071
-0.0015891516451633,17.2153276553212
-0.00130362568852297,17.2182386829691
-0.000921722008245972,17.2209337210657
-0.000432277596043596,17.2234779432077
0.000183789786200451,17.2259397334262
0.000964667571472545,17.228412821247
0.00200140825814583,17.2310692934451
0.00341028248570798,17.2340377548807
0.00517372112166636,17.2371616444916
0.00662644535296883,17.2394130059652
0.00825324290303075,17.2416643674389
0.009813694249828,17.2435847080684
0.0114136783725007,17.2453336380878
0.0131039087674687,17.2469656827519
0.0149148756484984,17.2485010064205
0.0169096035561022,17.2499776069595
0.0191038918244925,17.251388997987
0.0215465378132945,17.2527496243215
0.0242642446998721,17.2540573682624
0.0273013064285363,17.255317961009
0.0306986124717135,17.2565331769664
0.0344986394459178,17.2577041517706
0.0387593558789864,17.2588351934127
0.0435429725138605,17.259929249559
0.0489224125709959,17.2609895217555
0.0549819223130411,17.2620191018306
0.0618268228396962,17.2630220739991
0.0695820579469262,17.2640023833758
0.0784005755469619,17.2649643309321
0.0884728355877191,17.2659127441869
0.100040461715191,17.266853190548
0.113418299796507,17.2677924023257
0.129030766105796,17.2687389613315
0.147474129326644,17.269704410201
0.169273218929672,17.2706902165037
0.19453649434906,17.2716809765642
0.223947094987806,17.2726879425111
0.258437396846784,17.2737275202599
0.299447513983213,17.2748282135129
0.335905048260809,17.2757258009188
0.374248448603247,17.2766233883247
0.408040840989701,17.2774036181065
0.437461938094131,17.2781013683549
0.463184066426544,17.2787554489439
0.485311276104861,17.2793918714606
0.503525556117833,17.2800326561377
0.517042901915031,17.2807024326516
0.524258084196889,17.2814378475064
0.522088075915998,17.2822441666937
0.508537310319061,17.2830701048286
0.482274416712217,17.2839318435096
0.441564481495045,17.2848412074014
0.384479964326435,17.2858067664025
0.340192146101521,17.2864369669005
0.291259909861075,17.2870671673985
0.247659214049748,17.2875955306002
0.210254464626966,17.2880379999014
0.177373166737974,17.2884278004021
0.1479088210626,17.2887848957841
0.121192054993181,17.2891215682727
0.0967631888439733,17.2894466856388
0.0742487244212991,17.2897680845552
0.0532630372672231,17.2900948470341
0.0332160893614153,17.2904424345032
0.0122876422435963,17.2908607713767
0.00141033335420418,17.2911111310544
-0.00594573887096855,17.2912982495725
-0.0126686375457817,17.2914853680905
-0.0185485042862608,17.2916648032949
-0.024553049129887,17.2918672582676
-0.0304056933210684,17.2920886763576
-0.0359232438091999,17.2923263629346
-0.041003257605127,17.2925792246174
-0.0455914772804124,17.2928472135348
-0.0496624437248401,17.2931310083713
-0.0532923208413077,17.2934407402329
-0.0562531628925663,17.2937581786365
-0.0586956308398823,17.2940963516694
-0.0606341613088628,17.2944582074436
-0.0620830107733922,17.2948471946071
-0.0630561782944472,17.2952675667716
-0.0635658921774127,17.295724613834
-0.0636209988399444,17.2962250041029
-0.0632250000489913,17.2967773104226
-0.0623713649598183,17.2973940337214
-0.0610393852509975,17.2980916865451
-0.059186173297413,17.2988943207854
-0.0567243775898526,17.2998416864402
-0.0534485106251547,17.301015453061
-0.0493692531347815,17.3024267794955
-0.0454069864277629,17.3037888244276
-0.0416180090055304,17.3051086481954
-0.0380305711718923,17.3063892362801
-0.0346590949055177,17.3076317869293
-0.0315102097057454,17.3088365925621
-0.0285853991385871,17.3100035015487
-0.0258823807162242,17.3111321612055
-0.0233959787329009,17.3122221440832
-0.0211187783331411,17.3132730094506
-0.019041672183245,17.3142843268104
-0.0171543408875219,17.3152556757723
-0.015445680112616,17.3161866301322
-0.0138628904367975,17.3171013196929
-0.0123385470728809,17.3180393349421
-0.0108773688195513,17.3190021037476
-0.00948332192374346,17.3199916835747
-0.00816018625431664,17.3210104837235
-0.00691150133309109,17.3220613547643
-0.00574051476995808,17.3231477023755
-0.00465012834498201,17.324273640116
-0.00364284170688504,17.325444199095
-0.00272069323520856,17.3266656234451
-0.00188519695909549,17.3279457999642
-0.00113727327272428,17.3292949068399
-0.00047716903814252,17.3307264395591
9.5641699568621e-05,17.3322589307756
0.00057328938780534,17.3338828466401
0.000948599058370451,17.3355510260215
0.00123828122419187,17.3372817704948
0.00145708502758404,17.3390955943095
0.00161883297584943,17.3410197462599
0.00173682578346645,17.3430925231309
0.00182444415782969,17.3453721694606
0.00189626809407592,17.3479581051854
0.00197107967833712,17.3510570127416
0.00207022051255121,17.3547904284751
0.00219803248143704,17.3587265043263
0.00236029495818271,17.3629017928065
0.00253177055687892,17.3668177817206
0.00271005145020786,17.3706198049308
0.00289401749734142,17.3743938518078
0.00308358980442694,17.3781948962643
0.00327965826498071,17.382064016428
0.0034839096454831,17.3860356255965
0.00369866618829292,17.3901411094088
0.00392676859636025,17.3944110718904
0.00417151740252559,17.3988768769864
0.00443671473664535,17.4035720207359
0.00472686779620499,17.4085335715867
0.00504761943902767,17.4138034000841
0.00539193695910685,17.4192037152187
0.00574639118198236,17.4244783973881
0.00611737929959735,17.4296879419036
0.00650606377129728,17.4348043751475
0.0069168433194915,17.4398413431154
0.00735399063819342,17.4448046584294
0.00782238768864728,17.449701833565
0.00832722038120997,17.4545374608911
0.00887412340683667,17.4593141154644
0.00946924764020727,17.4640322977913
0.0101193920216463,17.4686910313844
0.0108380171171862,17.4733245628826
0.0116468833083011,17.4779920224771
0.0125624088615151,17.4826916590836
0.0136091884302009,17.4874444602118
0.0148233871564571,17.4922943489148
0.0162687831609801,17.497348141816
0.0180979057122528,17.5029186184017
0.0205158728909162,17.5093452068195
0.0220769348146802,17.5131650182947
0.023673464634331,17.5169848297698
0.0250659083946331,17.5204039499843
0.0262404329878887,17.5235369369638
0.0272097964107976,17.526554363049
0.0279256900037095,17.5294382143548
0.0283756983123603,17.5322482569907
0.0285479272973727,17.5351141394805
0.0283886472673236,17.5382361314535
0.027673315191416,17.5422408190375
0.0268274201621826,17.5451748747971
0.0257614084328516,17.5481089305568
0.024683835631356,17.5506883967063
0.0236101185292836,17.5530576173401
0.0225356333928434,17.5553165115044
0.0214616489358169,17.5575145984731
0.0203915057201626,17.5596806327536
0.0193289099783417,17.5618338500923
0.0182774538812938,17.5639883967906
0.017240484306232,17.5661554167276
0.0162210703577425,17.5683441875489
0.0152220036767828,17.5705628010497
0.0142458090352236,17.572818603885
0.0132947534307702,17.5751185132911
0.0123708597685556,17.577469244492
0.0114759159142534,17.5798775016043
0.0106114811928056,17.5823501498835
0.00977890310564693,17.5848943468715
0.00897931807009761,17.5875177168943
0.00820732724447549,17.5902518558463
0.00744904976032506,17.5931708029155
0.00670834117344446,17.5962957968629
0.00598903875667662,17.5996522511824
0.00529517707118513,17.6032695485958
0.00463094562612812,17.6071817785881
0.0040006050116107,17.6114287660028
0.00340835320979985,17.6160576145099
0.00285812582145207,17.6211253138708
0.00235330884140983,17.6267037189963
0.00189652019003146,17.6328873760013
0.00149169344455676,17.6397638563103
0.00115201391528328,17.6471713860725
0.000883405696463445,17.6552675842417
0.000717954625656203,17.6622570538672
0.000559499622249355,17.6712349325796
0.000443108858344279,17.6804538134893
0.000355435897969757,17.6904538134893
0.000297287818926895,17.7004538134893
0.000260386128490983,17.7104538134893
0.000238694363032988,17.7204538134893
0.000227952407643763,17.7304538134893
0.000225284938689626,17.7404538134893
0.00022883659666183,17.7504538134893
0.000237478000032461,17.7604538134893
0.000250602879591493,17.7704538134893
0.000268006121273717,17.7804538134893
0.000289823110254944,17.7904538134893
0.00031651604458352,17.8004538134893
0.000348902883301879,17.8104538134893
0.000388235075165545,17.8204538134893
0.000436342231852671,17.8304538134893
0.000493915200434317,17.8401509505064
0.000559769075377946,17.849111653221
0.000634797928915227,17.8573765201635
0.000720197778792459,17.8650003844194
0.00081737003567166,17.8720344929075
0.000927916896422151,17.8785262221014
0.00105365755793784,17.8845194215092
0.00119665413751178,17.8900547236214
0.00135924390323976,17.8951698066697
0.00154407625285052,17.8998996314955
0.00175415672027812,17.9042766640846
0.00199289927009374,17.9083310866545
0.00226419050233672,17.9120909948469
0.00257246774491894,17.9155825903964
0.00292281951172424,17.918830380816
0.00332111452291123,17.9218573907544
0.00377417355470527,17.9246853915601
0.00429000580655489,17.9273351711165
0.00487814533375983,17.9298268731495
0.00555015245440577,17.932180454208
0.00630083046853484,17.9343644076237
0.00713276568511726,17.9363908368044
0.00805971437564382,17.9382968897191
0.00910324354122096,17.9401220265038
0.0103010697867824,17.9419158496911
0.0117379928793889,17.943767413229
0.0137935749463895,17.9460374559261
0.0153434128735733,17.9475600782293
0.0169976016863163,17.9490827005324
0.0185224597583085,17.9504473787731
0.0198725847444152,17.9516715605271
0.0210810477275791,17.9528287406451
0.0221516662064601,17.9539653457709
0.0230696304617286,17.9551204231448
0.0238030251095717,17.9563411474054
0.0242898894967918,17.9577091025912
0.0243667397317129,17.9594592441736
0.0238593528627547,17.9612163837691
0.0228635972095454,17.9629735233647
0.0217427565875442,17.964449351283
0.0204945258071136,17.9658715306705
0.0191177371570326,17.9673205161259
0.0176212446257735,17.9688372713047
0.016480997037291,17.9699842953316
0.0153648959481502,17.9711313193586
0.014296623441118,17.9722868095429
0.0119490589679207,17.9750842752782
0.00989313972087383,17.9779258434757
0.00826077139351455,17.9805544009785
0.00692541465340164,17.9830494285014
0.00575901448306506,17.9855799449346
0.00473369898614774,17.9881768822608
0.00383053114547844,17.9908637823166
0.00309438430534047,17.993435436516
0.00249563456023088,17.9958712569955
0.00199940801133667,17.998201601875
0.00157914098992974,18.0004633925284
0.0012136589141206,18.0027059063253
0.000884043020533112,18.0050069337233
0.000566063433689365,18.007542668519
0.000304111377882605,18.0099228551301
7.19373768654322e-05,18.0123030417411
-9.62608778364945e-05,18.0142163130295
-0.000231488980697515,18.0158869742314
-0.000352448878052061,18.0174929679323
-0.00046806209219208,18.0191361416106
-0.000585900763962779,18.0209294595371
-0.000718363159327185,18.0231005607558
-0.000927559700862984,18.026896673504
-0.00110519218843046,18.0305120980123
-0.00124269053277779,18.0335847496201
-0.00137540957676083,18.0368015250932
-0.0015223216857301,18.0406923063892
-0.0017031008215641,18.0461160182672
-0.0018429197069862,18.0513148293173
-0.00192484184115264,18.0559766481098
-0.00194157166884418,18.0601754507967
-0.00188453997631361,18.0639513437115
-0.00174688944849142,18.0673522309091
-0.00152305377841468,18.0704375341093
-0.00120768581419216,18.0732653800438
-0.00079310499720728,18.0758980987948
-0.000266066844826098,18.0784017131537
0.000397327542737981,18.0808508534581
0.0012475548908092,18.0833577462699
0.00241123235669499,18.0861453740698
0.00393400640618893,18.0891664822402
0.00581825076407757,18.0923373064028
0.00720032892706901,18.0943865498381
0.00873671378493546,18.0964357932734
0.0103162760425405,18.0983146654978
0.0119103286441162,18.099997037874
0.0136244009081296,18.1015936855328
0.0154765016900002,18.1031061334716
0.0175183676229394,18.1045599113026
0.019776460909378,18.1059553009682
0.0222914573227396,18.1072999055503
0.0250964712990871,18.1085945028743
0.028228946981108,18.1098409606026
0.0317345079001929,18.1110428186302
0.0356602332897893,18.1122021418631
0.0400604774016606,18.1133215093991
0.045002956998906,18.1144048020367
0.0505640539330204,18.1154552814953
0.0568343468308359,18.1164764267103
0.0639218309405391,18.1174718765527
0.0719576005380661,18.1184456035154
0.0811046757394576,18.1194021748743
0.0915656620735925,18.1203465730625
0.103599298605901,18.1212846166054
0.117544924481022,18.1222233962407
0.133862619238825,18.1231719814109
0.153208897874769,18.1241429180517
0.175903619741527,18.1251275428412
0.202227639280349,18.1261194948021
0.232915301945068,18.1271309319909
0.268988838527193,18.1281801373402
0.312110612753179,18.1293010560818
0.347435080024128,18.1301502935163
0.384182174833652,18.1309995309508
0.416828690454617,18.1317513574658
0.445367589164157,18.1324332344454
0.470275534069556,18.1330788648317
0.491545351711335,18.1337125705874
0.508757258429731,18.1343564766393
0.520972106362874,18.135037188796
0.526233587253463,18.1357977239766
0.521340825784405,18.1366060784674
0.504754448402311,18.1374387733386
0.475021805073459,18.1383111303112
0.430321561890477,18.1392339430562
0.368687080297792,18.1402159907349
0.325732558491918,18.1408020494854
0.279076330820491,18.1413881082359
0.237390856760225,18.1418869980551
0.201287100280567,18.1423122581262
0.169350914752167,18.1426914784348
0.140630959712844,18.1430418206069
0.114528416120633,18.1433743424284
0.0906142391036132,18.1436974415664
0.0685204525128957,18.1440190343447
0.0478327021544532,18.1443491670418
0.0278163776386733,18.1447074146107
0.00953786778895505,18.1450842280847
0.000471211835010764,18.1452964166287
-0.00774895986511965,18.1455086051727
-0.0142764303531983,18.1456942270708
-0.020238951351294,18.145880591955
-0.0262320987458497,18.1460884849405
-0.0320113318463127,18.1463143588289
-0.0374203185854245,18.1465560495878
-0.0423725729879846,18.1468128016468
-0.0468233072087601,18.147084792999
-0.050752274507112,18.1473728708928
-0.0543922872476933,18.147703756136
-0.0571857408096823,18.148027759347
-0.0594624690505369,18.1483731329604
-0.0612395653179068,18.1487432382789
-0.0625314243454368,18.1491417736517
-0.0633516519666074,18.1495733067151
-0.0637115652252187,18.1500435405625
-0.0636184961064071,18.1505597072245
-0.0630734256116754,18.1511313379005
-0.0620653118417295,18.1517724149135
-0.0605674620179961,18.1525013146641
-0.0585257005069859,18.1533460456777
-0.0558266121705245,18.1543555640396
-0.0521733292765698,18.1556438681796
-0.0481226764557273,18.1570373737719
-0.0442095451315739,18.1583854980642
-0.0404809309922987,18.1596927239373
-0.0369595991888153,18.1609612916364
-0.0336570428564629,18.1621920228489
-0.0305780484644942,18.1633850207968
-0.027722791613731,18.1645400433801
-0.0250879988975896,18.165656699433
-0.022667728504633,18.1667345494487
-0.0204539809755271,18.1677731523672
-0.0184372214749284,18.1687720801431
-0.0166068422229448,18.1697309118091
-0.0149515735015461,18.1706492134674
-0.0133865274849691,18.1715710160596
-0.0118815366237364,18.1725164899501
-0.0104409604178477,18.1734873223511
-0.00906871370192244,18.1744856710435
-0.00776850753491716,18.1755140715836
-0.00654379705406749,18.1765755326986
-0.00539772917997761,18.1776736607125
-0.00433308800840468,18.1788128276231
-0.00335223774512315,18.1799984035699
-0.00245706256877607,18.18123708744
-0.00164890203742308,18.1825373928679
-0.000928479281051811,18.1839103918707
-0.000295816584184526,18.1853709105014
0.000249872549078861,18.1869395764912
0.00069354101534244,18.1885752511733
0.00104035075860902,18.1902608989576
0.00130620576806732,18.1920149043011
0.00150552787390704,18.1938595600011
0.00165192082230424,18.1958249294042
0.00175862184115463,18.19795419738
0.00183920503182538,18.2003150825961
0.00190902595266384,18.203028935201
0.00198972179023523,18.2063734164079
0.00209446055393301,18.2101254965823
0.00223437762997328,18.2142067710769
0.00240167835731047,18.2183508684753
0.00257604428963349,18.2222506930679
0.00275577937649384,18.2260466287791
0.00294034192772084,18.2298205514102
0.00313012741584657,18.2336256595561
0.00332637792907049,18.2375021934163
0.00353102609528615,18.2414841607821
0.00374655694724777,18.2456027806184
0.00397591679741501,18.249888659577
0.00422248066529549,18.2543732893068
0.00449012335119405,18.2590904221506
0.00478345534134081,18.2640775082865
0.00510829052005205,18.2693769016426
0.00545384618240051,18.2747515316621
0.00581101240976896,18.2800173720813
0.00618474204377344,18.2852110206671
0.00657689570863883,18.2903143906525
0.00699177768941649,18.295338852557
0.00743377966392671,18.300290816864
0.00790783614531345,18.3051773354956
0.00841921539486861,18.3100027459586
0.00897364350531445,18.3147693183619
0.00957738206117074,18.3194773171785
0.0102373616947375,18.3241256148293
0.0109701772623077,18.3287656995747
0.0117954939406412,18.3334375121589
0.0127311422223643,18.3381443375584
0.0138030909340525,18.3429093907901
0.015050597617848,18.3477834958736
0.016545576538707,18.3528922494904
0.0184743100340995,18.3586270095533
0.02089366068326,18.3649360409951
0.0224225592548415,18.3686442709523
0.0239709123191537,18.3723525009095
0.0253163983159629,18.3756953178212
0.0264500857878934,18.3787934621296
0.0273775736247244,18.3818043517236
0.0280394062729947,18.3846643846435
0.0284347685084599,18.3874743291671
0.028546058502273,18.3903715103953
0.0283041189323478,18.3935902370654
0.0273860496427182,18.397993245127
0.0265088136857418,18.4007657070186
0.0254497419700008,18.4035381689102
0.024375996490883,18.4060375445039
0.0233023465264552,18.4083675296552
0.0222277515072036,18.4106050555913
0.0211545118471782,18.4127914664661
0.0200861726260899,18.4149520595756
0.0190264339143663,18.4171042982068
0.0179788246136639,18.4192613073486
0.0169466133636516,18.4214336026899
0.0159327894229896,18.4236300624356
0.0149400665282023,18.4258585249821
0.0139708950896206,18.428126182194
0.0130274709217892,18.4304398693941
0.0121117480639961,18.4328062787256
0.0112254495520481,18.4352321361322
0.0103700714908002,18.4377243749315
0.00954690086949595,18.4402902622812
0.0087570168025128,18.4429375734011
0.00798857994304124,18.4457227687263
0.00723496939488842,18.4486984748116
0.00650000852586261,18.451887161531
0.00578759644582895,18.4553153077358
0.00510181733903822,18.459013568085
0.00444689194009035,18.4630175593865
0.00382707963491525,18.4673690085868
0.00324652503189901,18.4721175475178
0.00270904442478636,18.4773237430066
0.00221781530841415,18.4830650767001
0.0017752204422935,18.4894445101309
0.00138968802907845,18.4964617060855
0.00115298359230612,18.5018231330374
0.00096500614797382,18.5071845599894
0.000772172404146412,18.5144817442894
0.000607647486744376,18.5229081352175
0.000476604805448571,18.5321846314485
0.000378306322775238,18.5421846314485
0.000312604746876556,18.5521846314485
0.000270352335683627,18.5621846314485
0.000244891004748651,18.5721846314485
0.000231485554567054,18.5821846314485
0.00022690596077499,18.5921846314485
0.000229043032944926,18.6021846314485
0.000236589733674824,18.6121846314485
0.000248813853225223,18.6221846314485
0.000265416497627991,18.6321846314485
0.000286457291122773,18.6421846314485
0.000312330163922991,18.6521846314485
0.000343783109179696,18.6621846314485
0.000381985877589759,18.6721846314485
0.00042866132875285,18.6821846314485
0.000485220659142405,18.6920106083377
0.000549991812366794,18.7010941804705
0.000623813725979778,18.7094715927398
0.00070785223157764,18.7171984211852
0.000803483395658671,18.7243267495596
0.000912284193286039,18.7309047047253
0.00103604630559329,18.7369768092424
0.00117680107821492,18.7425843043004
0.0013368510127038,18.7477654226981
0.00151880641510889,18.7525556310122
0.00172562818615115,18.7569878566203
0.00196067947700227,18.7610927029472
0.00222778814071514,18.7648986507468
0.00253132323221347,18.7684322523406
0.00287629277781304,18.7717183319767
0.003268469002252,18.7747801979512
0.00371455524443613,18.7776398715584
0.0042224140372543,18.7803183536959
0.00480139091062516,18.7828359582699
0.00546279511622404,18.7852127577886
0.00620454596820234,18.7874254112467
0.00702648680551343,18.7894761107639
0.00794181078459441,18.7914021377169
0.00897117247393694,18.7932428946553
0.0101502395531531,18.7950469176209
0.0115543579419704,18.7968947844623
0.0135151721390139,18.7991085670813
0.0150756372027426,18.8006723934693
0.0167501364766789,18.8022362198572
0.0182924718914587,18.8036299135744
0.0196523341386607,18.8048696100109
0.0208688227467136,18.8060356114133
0.0219484580361734,18.807176555174
0.022878134048861,18.8083316091178
0.0236280981795775,18.8095463198298
0.0241411744046733,18.8108962390932
0.0242753031995428,18.8125829302227
0.0238210064386091,18.8143854664192
0.0228447750355236,18.8161880026158
0.0217367389027732,18.8176801770921
0.0205035032638873,18.8191056274132
0.0191421322238628,18.8205525876551
0.0176612981376798,18.822063428176
0.0160682226584896,18.8236751992958
0.0147597807656916,18.8250513468023
0.0124283049737508,18.8277548935447
0.0102722895379573,18.8306438036268
0.00856255592042433,18.8333146726569
0.00718534828468768,18.8358113325979
0.00598655046229324,18.838332123737
0.00493336903910562,18.8409141633766
0.00400580229943096,18.8435814229646
0.00324073084736391,18.8461635476364
0.00261883965778085,18.8486093400769
0.00210412919832682,18.8509477353999
0.00166896277227325,18.8532149825318
0.00129133217596719,18.8554595055269
0.000951580177410013,18.8577582498532
0.000624839056725437,18.8602845733808
0.000353255164034945,18.8626795183034
0.000112948864757827,18.865074463226
-6.02171315097052e-05,18.8669920294892
-0.000199139179423445,18.8686644122225
-0.000323270413468045,18.8702716863522
-0.00044179470366298,18.8719158874355
-0.000562461753121925,18.8737098696755
-0.000697886568651692,18.8758805002409
-0.000910648135405105,18.8796607606715
-0.00109140540046913,18.8832684453549
-0.00123119102523617,18.8863358359863
-0.00136589988668375,18.8895453662212
-0.00151469323143238,18.8934220136148
-0.00169719278861324,18.898806744878
-0.00184031436965206,18.9040216430898
-0.00192507125671854,18.9086926306269
-0.00194457481759634,18.9129023451318
-0.00189024336057198,18.9166892762606
-0.00175519076453362,18.9201008574541
-0.00153386973357335,18.923195673408
-0.00122106038164055,18.9260310518768
-0.00080926826794627,18.9286692275356
-0.000285355257206386,18.9311769640536
0.00037464380955305,18.9336301236156
0.00122151401144035,18.9361425805873
0.0023837219138106,18.9389424042143
0.00390125383567041,18.941969983169
0.00578032531957176,18.9451513744099
0.00715587895459899,18.9472044369982
0.008684333352496,18.9492574995865
0.0102561703853233,18.9511409335123
0.0118404651945098,18.9528255839812
0.013545183743796,18.9544256380733
0.0153858613763915,18.9559402846432
0.0174163279508541,18.9573970546025
0.019661317193039,18.9587949648347
0.0221623496835274,18.9601422951372
0.0249510568236134,18.9614391299004
0.028066027438281,18.9626879883071
0.0315518688278654,18.9638920679163
0.0354546507101689,18.9650532473388
0.03982951349913,18.9661744705444
0.0447430534499247,18.9672594361676
0.0502709709979028,18.9683113982216
0.0565030227785775,18.9693338302196
0.06354566011189,18.9703302929987
0.0715295350952862,18.9713048737105
0.0806154601161988,18.972262053693
0.0910035601188343,18.9732067759232
0.10294908729982,18.9741448017593
0.116786216495855,18.9750831314664
0.132967049042418,18.9760306920302
0.152134590599617,18.9769997749218
0.174658197866467,18.9779840634979
0.200777882071319,18.9789751095899
0.231216413020285,18.979984828164
0.266974683654501,18.981031000966
0.309660050628526,18.9821461514689
0.345227210538743,18.9830039451395
0.382316326704129,18.9838617388101
0.415246127751714,18.9846188776733
0.444011580941508,18.9853034495753
0.469131318990072,18.985950179702
0.490624243387615,18.9865837448137
0.508094747489311,18.9872262327897
0.520640643152968,18.9879037934984
0.526389860450262,18.9886579790637
0.522143528895294,18.9894652979885
0.506270297910323,18.9902960060811
0.477342692750496,18.9911656738313
0.433552964815609,18.9920853592025
0.372937816532015,18.9930636949441
0.329592771226596,18.9936602972165
0.282325103652909,18.9942568994889
0.240129117227865,18.9947628398022
0.203672742505207,18.9951922090713
0.171476566258779,18.9955739291173
0.142550170318324,18.9959258290524
0.116276581644213,18.9962592597576
0.0922186942430969,18.9965827276842
0.0700070586922562,18.9969041160303
0.0492353074383784,18.9972331930852
0.0292109015178643,18.9975883236905
0.00722124037508303,18.9980438739751
-0.00114280374469144,18.9982437070503
-0.00876176322927329,18.9984435401255
-0.01512998768058,18.9986270213944
-0.021118022216267,18.9988168196251
-0.0270942706559898,18.9990275260454
-0.0328277293335905,18.9992557779643
-0.0381746904514694,18.9994996597385
-0.043056207627969,18.9997585770919
-0.0474319902851103,19.0000328185185
-0.0512835414194307,19.0003233162665
-0.0548444392383215,19.0006576732045
-0.0575608071423322,19.0009847232025
-0.0597623742663828,19.0013335452939
-0.0614664034337361,19.0017076016322
-0.0626872768674202,19.0021107082156
-0.0634383607871394,19.0025475832795
-0.0637304950208422,19.0030241295364
-0.0635702487929383,19.0035478536066
-0.0629571433744773,19.0041288934672
-0.0618781477358214,19.0047817184291
-0.0603034637512233,19.0055257896656
-0.0581728971596093,19.0063912354409
-0.0553581145493786,19.0074322968211
-0.0515010600705541,19.0087846437825
-0.04746804139959,19.0101700894553
-0.0435827421054208,19.0115112324844
-0.0398868426081912,19.0128120094683
-0.0364007288153463,19.0140743490317
-0.033134568154152,19.0152989135846
-0.0300922790499503,19.0164857275877
-0.0272734050705203,19.0176345126382
-0.0246741880615535,19.0187448634616
-0.0222883105777709,19.0198163374168
-0.0201074882046811,19.0208484947358
-0.0181219805912238,19.0218409090343
-0.0163210451127556,19.0227931586849
-0.0146933395864974,19.0237048048615
-0.0131376111498191,19.0246303415803
-0.0116427578554456,19.0255797379777
-0.0102129580953114,19.0265548163953
-0.00885209834014856,19.0275577891396
-0.0075638522511542,19.0285912604504
-0.006351629409144,19.0296583253171
-0.00521852264845107,19.0307626998504
-0.00416725308715999,19.0319088980098
-0.00320011264089626,19.0331024770519
-0.00231890331495791,19.0343503883142
-0.00152487172605867,19.0356614959219
-0.000818635789069081,19.0370473762069
-0.000200097567189277,19.0385236147382
0.000331669968544882,19.0401120538224
0.000758257073926619,19.0417544694031
0.00109076605332791,19.0434499217106
0.00134472651519444,19.0452169494998
0.00153440217944052,19.047078876529
0.0016733005109264,19.0490674311195
0.00177465259571846,19.0512287524635
0.00185218555512086,19.0536364780012
0.00192180080623867,19.0564264622259
0.00200730026321576,19.0599294267961
0.00211622741103468,19.0637046348228
0.00226396747729861,19.0678806271669
0.00243162684707894,19.0719473038211
0.00260636894140967,19.0758119153208
0.00278662565470836,19.0795967016157
0.00297192412476031,19.0833741746243
0.00316276320526314,19.0871934533728
0.00336048467878,19.0910928304712
0.00356711021331536,19.0951053962606
0.00378520558700101,19.0992620621737
0.00401779516635846,19.1035935357472
0.00426834249008947,19.1081317377139
0.00454084975601572,19.1129112031097
0.00484013719772024,19.1179704879563
0.005172379326728,19.1233533671665
0.00551828979042426,19.1286886751314
0.00587847035744615,19.1339501248792
0.00625478293234322,19.1391242742696
0.00665051508330531,19.1442129367916
0.00706974216993507,19.1492231532341
0.00751704582523729,19.1541627426777
0.00799738397966294,19.1590379381987
0.00851609782541445,19.1638527212943
0.0090789884579394,19.1686088902794
0.00969241895002292,19.1733063741481
0.0103634497282832,19.1779438480585
0.0111121316842141,19.1825911365447
0.0119558721680233,19.1872680874083
0.0129140800709935,19.1919833809589
0.0140143919083841,19.1967631719541
0.0152999104889219,19.2016669624479
0.0168532754300176,19.2068451774829
0.0189115784195662,19.2128075668525
0.0207135429109084,19.2174701686975
0.0226348675343213,19.2221327705425
0.0242185029608938,19.2259341987717
0.0255290172379238,19.2292295525718
0.0266272260993688,19.2323026450211
0.0275125640376269,19.2352940423888
0.0281279757337441,19.2381369386948
0.0284758377476282,19.2409511835985
0.0285327304725492,19.2438822905389
0.0282121577649187,19.2472051203286
0.0272173044580511,19.2515630358197
0.0263237355178638,19.2542642566609
0.025265395660586,19.2569654775022
0.0241925903344044,19.2594262371864
0.0231187778444946,19.2617362125488
0.0220441796686628,19.2639626989529
0.0209714960980682,19.2661432170663
0.0199043459180971,19.2683013327174
0.0188464128135717,19.2704535904117
0.017801184451927,19.2726125762434
0.0167718816395221,19.2747884729676
0.0157614461540968,19.2769899470709
0.0147725453549416,19.2792247055882
0.013807585168926,19.2814998646595
0.0128687196158341,19.283822223702
0.0119578612923668,19.2861984760945
0.0110766946153803,19.2886353754164
0.0102266789519552,19.2911399090119
0.00940906519397747,19.2937194277277
0.00862489818360513,19.2963818188148
0.00785870210958176,19.2991981902171
0.00710800074348977,19.3022085813431
0.00637659880177824,19.3054362186262
0.00566842952075119,19.3089082473833
0.00498760649124152,19.3126561014602
0.0043383638498504,19.3167163582331
0.00372495451721477,19.3211319440407
0.00315148304625134,19.3259541092756
0.00262168029286808,19.331245793565
0.00213859368321027,19.3370881568571
0.00170446987608595,19.3435895779122
0.00133020896534599,19.3506952381803
0.00102212251249158,19.3583773743635
0.000842382491936546,19.3645793174735
0.000655214305329009,19.3731992039524
0.000515240617155641,19.3821322670588
0.000404842159396133,19.3921322670588
0.000330461365488648,19.4021322670588
0.00028200489257423,19.4121322670588
0.000252134627074716,19.4221322670588
0.000235578788053119,19.4321322670588
0.000228696454653739,19.4421322670588
0.000229080454338081,19.4521322670588
0.000235213650764019,19.4621322670588
0.000246213272021891,19.4721322670588
0.000261665674620495,19.4821322670589
0.000281534094941679,19.4921322670589
0.00030612121332444,19.5021322670589
0.000336076948670364,19.5121322670589
0.000372452522712628,19.5221322670589
0.000416813175776869,19.5321322670589
0.000471436985954477,19.5421322670589
0.000534149935269159,19.5513940446229
0.000605657667484767,19.5599362742689
0.000687069394266232,19.5678148965256
0.000779712123676018,19.5750829599776
0.000885112570187552,19.5817894853055
0.00100500681499739,19.5879798073163
0.00114136355898694,19.5936959101021
0.00129641417836559,19.5989767108445
0.00147268840325642,19.6038583060569
0.00167305485949206,19.6083742015968
0.00190077093883811,19.6125555302672
0.00215954157593881,19.6164312561335
0.00245359229939073,19.6200283685308
0.0027877607451049,19.6233720798275
0.00316761386765911,19.6264860339522
0.00359960328180023,19.6293925293656
0.0040912748670724,19.6321127732614
0.00465156422520393,19.6346671943561
0.00529123002512145,19.6370758531412
0.00601449302030928,19.6393333320524
0.00681543121727387,19.6414196990955
0.00770583992078503,19.6433719339726
0.00870407575474947,19.6452285552079
0.0098407232484771,19.6470345014439
0.011176390424309,19.6488578476493
0.0129360521111391,19.6509223752615
0.0145961736165877,19.6526374241646
0.0164073386785701,19.6543524730676
0.0180140039563389,19.6558070934849
0.0194086272856863,19.6570701650378
0.0206536291236143,19.6582456566572
0.0217622612040768,19.6593877206505
0.0227247417222024,19.6605360522666
0.0235149759542948,19.6617336160495
0.024083180966276,19.6630466266017
0.024316043637615,19.6646317143116
0.0239620722909745,19.6665113296711
0.0230176649854881,19.6683909450305
0.021924537610872,19.6699083845473
0.0207092013906347,19.6713355036838
0.0193648936618147,19.6727760361225
0.0178996391059884,19.6742752689251
0.0163212327692908,19.6758699926078
0.0146679784590675,19.6776045279936
0.0130004795854822,19.679509834305
0.0107906208771889,19.6823603968872
0.00897940740903031,19.6850789978134
0.00752561244042079,19.6876140975888
0.00628452277786396,19.6901244119942
0.00519592103209944,19.6926880574861
0.00423764982919303,19.6953308639247
0.00342554237531576,19.6979613885612
0.00276837960042617,19.7004494140572
0.00222763071905018,19.7028208986524
0.0017734009015097,19.7051105802604
0.00138234164372093,19.7073630997678
0.00103449390340184,19.7096454432146
0.000707751875829691,19.7120918120347
0.000347136121435457,19.715227109003
0.000156531522427766,19.7171147604916
-1.72043371973271e-05,19.7190024119801
-0.000162238263014399,19.7207177122042
-0.000289320276315378,19.7223378898562
-0.000408468039489875,19.7239667896753
-0.000527282607815549,19.7257070308069
-0.000655848274707867,19.7277322311258
-0.000825086352792991,19.7306448037984
-0.00101497995216465,19.7342813772088
-0.00115942533464569,19.7373368118495
-0.00128963625298667,19.7403271627552
-0.0014270095947535,19.7437530300311
-0.00158549001694726,19.7481203079799
-0.0017630512486092,19.7538288837893
-0.00187738799088539,19.7587385989097
-0.0019319787661885,19.763199129094
-0.00191715815003102,19.7672068861566
-0.00182512683336049,19.7708154362536
-0.00164978758336231,19.7740740315542
-0.00138579681571259,19.7770432966377
-0.00102701814604402,19.7797831749837
-0.000563874978847724,19.7823561154504
2.0979385631999e-05,19.7848318156882
0.00076521898276103,19.7873112720429
0.00173631805596622,19.7899165301964
0.00307670655147039,19.7928597230456
0.00476504403113253,19.7959616788191
0.00626609204300473,19.7983632003513
0.00795575227700423,19.8007647218835
0.00956143203702469,19.802787905739
0.0111323664040356,19.8045450482774
0.0128010065603731,19.806195931674
0.0145806755312472,19.8077431741593
0.0165339747629068,19.8092272042675
0.0186874928329926,19.8106497484
0.0210817416270239,19.8120197867199
0.0237464191002765,19.8133371991555
0.0267234357918553,19.8146068429145
0.0300487343422431,19.8158290684912
0.0337714748074762,19.8170078597501
0.0379443974750074,19.818146066673
0.0426278354487415,19.8192465944742
0.0478899443120511,19.8203121309886
0.0538171308394799,19.8213467423051
0.0605092542318593,19.8223540424738
0.0680866569068625,19.8233378995153
0.0766963787045166,19.8243025333027
0.0865202231986796,19.8252525888309
0.0977889685716637,19.8261934999885
0.11080197064567,19.8271317802569
0.125958459838033,19.8280755346038
0.143814113064793,19.8290355522676
0.165037342084586,19.8300208376899
0.189616231608919,19.8310092326698
0.218198668116281,19.8320112721706
0.25165707726121,19.8330420194886
0.291293720414665,19.8341264945307
0.337201378879938,19.8352632275907
0.377470630755446,19.836202532664
0.411071451216485,19.8369771570871
0.440208793552757,19.8376694204249
0.465664315377379,19.8383203770799
0.487512695252027,19.8389556123126
0.505402862362893,19.8395971465546
0.518501669773908,19.8402702069564
0.525096097507998,19.8410133736518
0.522040950217742,19.8418201229073
0.507503993523846,19.8426480814882
0.480113350320861,19.8435131697347
0.438103329460196,19.8444268770131
0.379532374837178,19.8453977589197
0.335652736469648,19.8460132897901
0.287447562819194,19.8466288206606
0.244459509420251,19.8471474484815
0.207465803078706,19.8475842789189
0.174879755997955,19.8479706256418
0.145646466394908,19.8483255089221
0.119119779159905,19.8486608009724
0.0948501223570053,19.8489852074359
0.0724662540717307,19.8493065732113
0.0515749151707926,19.84963424201
0.0315476126129006,19.8499847736792
0.0102592470680332,19.8504164568724
0.00060720022102775,19.850641646554
-0.00809281523149181,19.8508668362355
-0.0145921457527319,19.8510527869893
-0.0205630793200043,19.8512406695238
-0.026546726227906,19.8514498159179
-0.032305071889059,19.8516767804883
-0.0376868744049203,19.8519194956242
-0.0426086775050492,19.8521772682551
-0.0470274995854395,19.8524503195169
-0.0509235843011706,19.8527395301024
-0.0545319836985513,19.8530722031103
-0.0572926039482315,19.8533976161621
-0.0595374643845757,19.8537445634314
-0.0612837377370208,19.8541164493086
-0.062545801002517,19.8545170187167
-0.0633371525068972,19.8549508984415
-0.063668910283685,19.8554238693704
-0.0635480998561548,19.8559432696604
-0.0629751310099419,19.8565188683848
-0.0619381922132112,19.8571648295244
-0.0604094288822695,19.8578999380194
-0.0583324545346684,19.8587529902468
-0.0555884819705042,19.8597748687832
-0.0518593955926361,19.8610871618041
-0.0478176454517454,19.8624771852609
-0.0439175846835891,19.8638222675037
-0.0402041239845864,19.8651266315069
-0.0366990247429873,19.8663923989852
-0.0334132114562922,19.8676203329554
-0.0303510914151202,19.8688105090443
-0.0275125589117302,19.8699626737596
-0.0248941216334645,19.8710764328352
-0.0224896662222633,19.8721513475702
-0.0202910620349756,19.8731869790444
-0.0182886789093573,19.8741829010764
-0.0164718460181331,19.8751386932041
-0.014829259306294,19.8760539198757
-0.0132684006150263,19.876977459614
-0.0117679763456442,19.8779247569087
-0.0103322614662589,19.8788975617672
-0.00896515769160267,19.8798980571672
-0.00767035868118834,19.8809288103675
-0.00645129829178147,19.8819928698665
-0.00531109810490091,19.8830938925533
-0.00425251263360879,19.8842363157413
-0.00327787203432394,19.8854255955659
-0.00238902166839166,19.8866685467912
-0.00158725704378176,19.8879738436931
-0.000873251222921128,19.8893527890147
-0.00024696900738387,19.890820555492
0.000292443666207196,19.892398323559
0.000728341726653612,19.8940370813499
0.00106868343900097,19.8957272261001
0.00132919822530764,19.8974872046381
0.00152423695844671,19.8993397790575
0.0016673618949452,19.901315767614
0.0017718118908137,19.9034596888241
0.00185123819798351,19.9058419150925
0.00192125590520487,19.9085902219008
0.00200448064913598,19.9120051378356
0.0021115894237129,19.9157667502412
0.00225561605924047,19.919890079513
0.00242162057014947,19.9239495926714
0.00259565503514728,19.9278118756415
0.00277583529504958,19.9315962256594
0.00296145336325721,19.9353744396934
0.003152833641319,19.9391953271675
0.00335119799480391,19.9430970333812
0.00355849275426936,19.9471125816269
0.00377724283240988,19.9512728681035
0.00401045594112993,19.9556086152632
0.00426159468451635,19.9601517837717
0.00453467047348689,19.9649369796685
0.00483451996017804,19.9700028541504
0.00516734272993148,19.9753933068857
0.00551324763814582,19.9807276031077
0.00587351382651089,19.9859902571197
0.00624980319113056,19.991164546692
0.00659209351237947,19.995582273346
0.00695645785946299,20
