ecg,time
0.00310197768263902,15.0010277984811
0.00365443138290028,15.0040545065342
0.00445135587464791,15.0074470514312
0.00522282181887147,15.0102770596752
0.0061753360896605,15.0134477279165
0.00686654506193153,15.0155482470748
0.00763054266035974,15.0176487662332
0.0084283523809398,15.0195805457339
0.00929207023460692,15.0213895123621
0.0102624331248829,15.0231249576343
0.0113682080743179,15.0247994625681
0.012637903911073,15.0264203935661
0.014093610189601,15.0279849459468
0.0157588691367394,15.0294929630792
0.0176560446426019,15.0309434673131
0.0198091390819989,15.0323369525817
0.0222448350110763,15.0336750672706
0.0249933323834396,15.0349602039566
0.0280893876408926,15.0361952809059
0.0315736544714641,15.0373836369992
0.0354929280836178,15.0385285696604
0.0399024302480997,15.0396336006742
0.0448666144499597,15.0407021862695
0.0504617535511253,15.0417378680931
0.056778365322549,15.0427442349658
0.0639247946848233,15.0437249861063
0.0720322739495789,15.0446840377287
0.0812614581211613,15.0456256006738
0.0918121269705844,15.046554348941
0.103937283831034,15.0474756413944
0.117964559760574,15.0483958536894
0.134330722262264,15.0493229330005
0.153641218295937,15.0502673845691
0.176484434384978,15.051232473461
0.202938055799753,15.0522013548049
0.233691933582668,15.053184160517
0.269675977370587,15.0541956835362
0.312316130953422,15.0552620829567
0.349665632811324,15.056118820344
0.38892275107547,15.0569755577312
0.423503182335048,15.0577206825345
0.453568944021148,15.0583871684496
0.479883399913853,15.0590139644865
0.502571679006208,15.0596271079305
0.521296934247604,15.0602492377441
0.535203070811639,15.0609072588775
0.542440646500099,15.0616454579532
0.539598402437612,15.0624364854898
0.524980967288996,15.0632533508289
0.497123619013409,15.0641133024589
0.454075479291874,15.0650290243511
0.393663964679654,15.0660086591906
0.347361757390449,15.066642686265
0.296330672534037,15.0672767133395
0.251173076218904,15.0678056435946
0.212684908669774,15.0682464283059
0.178995076587973,15.0686336332633
0.148887154117919,15.0689878247082
0.12163578485492,15.0693215196985
0.0967485271214628,15.0696436970027
0.0738284733806405,15.0699622848491
0.0524668559809383,15.0702865313244
0.0320320274479062,15.0706324541049
0.0104889090780978,15.0710542293902
0.000175110631132056,15.0712866640396
-0.00720142441269106,15.0714697545967
-0.0139471509843217,15.0716528451538
-0.0198883607742187,15.0718295809154
-0.0259579060693483,15.0720290465633
-0.0318759694806641,15.0722472427761
-0.0374575185637742,15.0724815302598
-0.0425987205718811,15.0727308358863
-0.0472443863485519,15.0729951135315
-0.05136850354233,15.0732750339345
-0.0549628793791099,15.0735718310607
-0.0580717603991856,15.0738931311612
-0.0605683785262938,15.0742267936777
-0.0625553395288084,15.0745837649591
-0.0640480727518741,15.0749675683899
-0.0650608979589102,15.0753824267101
-0.0656063641537553,15.0758335957158
-0.0656936128348062,15.0763277087894
-0.0653263718887769,15.0768733055747
-0.0644984366730084,15.0774827304384
-0.0631889739347836,15.0781725420902
-0.06135452886803,15.0789667955676
-0.0589061886039309,15.0799053486914
-0.0556337434393383,15.0810704849405
-0.0515005114369224,15.0824886271817
-0.047477947702188,15.0838576900625
-0.0436244701821482,15.0851851301268
-0.0399701218057451,15.0864738539032
-0.0365305361172597,15.0877249884719
-0.0333133147286228,15.0889387623482
-0.0303207755392829,15.0901149667431
-0.0275513570205562,15.0912531986315
-0.02500049306522,15.0923529873662
-0.0226612650794826,15.0934138567164
-0.0205249488422963,15.0944353491204
-0.0185814988975051,15.0954170264193
-0.0168199832040499,15.0963584549044
-0.0152155305318902,15.0972670204621
-0.0136679601098902,15.0981986429123
-0.0121823025405423,15.0991545280951
-0.0107625556589813,15.1001366506883
-0.00941254511303662,15.1011473165263
-0.00813586812382024,15.1021892474798
-0.00693584197104746,15.1032656870103
-0.00581544993053476,15.1043805410859
-0.00477728465991309,15.1055385703631
-0.00382348858118197,15.1067456590067
-0.00295569016961671,15.1080092021177
-0.00217493393026777,15.1093386844485
-0.00148159974846654,15.1107465834632
-0.000875303125474651,15.1122498577081
-0.000356964183419483,15.1138647763764
5.42085485800785e-05,15.1155192417171
0.000375788050767219,15.1172316910172
0.000622891067998414,15.119021293965
0.000809642011804643,15.1209132277745
0.000949551957537394,15.122942279329
0.00105607765878347,15.1251601370504
0.00114359740473032,15.1276519524211
0.00122978409884335,15.1305836361591
0.00134244686837848,15.1343255707675
0.00147686331020009,15.1381645536638
0.0016447947643506,15.1422619254997
0.00182288540540037,15.1461511480279
0.00200842170969915,15.1499519993817
0.002199657093721,15.1537403336326
0.00239589170687056,15.1575668564946
0.00259746588863518,15.1614706325191
0.00280558819562672,15.1654851537819
0.003022145229023,15.1696415183183
0.00324954184958591,15.1739704555287
0.00349059787786663,15.178503790415
0.00374855276305465,15.1832758612818
0.0040272323746906,15.1883249157553
0.00433144684533845,15.19369439589
0.00466273283935649,15.1993500027262
0.00499592596101208,15.2048046140651
0.00534144924749726,15.2101940299562
0.005698987226636,15.2154655106417
0.00607320738912311,15.2206442404065
0.00646781312375091,15.225736718882
0.00688710398876287,15.2307538649906
0.0073354281825606,15.235702183416
0.00781742676953576,15.2405860484035
0.00833809921249555,15.2454074971515
0.00890294009044416,15.2501668209662
0.00951804138576852,15.2548628083738
0.0101901996123327,15.2594931406299
0.0109356553047726,15.2641056972388
0.0117748090966162,15.2687434290667
0.012725356382422,15.2734075388889
0.0138131551671937,15.2781192208889
0.01507708478299,15.2829258594584
0.0165876970603639,15.2879448480778
0.018523537429377,15.2935348503035
0.021001971015136,15.2997901487525
0.0225732443656421,15.3034608247066
0.0241717200342715,15.3071315006607
0.0255650097777332,15.3104327850218
0.0267426058170622,15.3134810492608
0.0277129445667081,15.31643422034
0.0284170097912748,15.3192359307701
0.0288541004071621,15.3219799143206
0.0290096426928339,15.3247965397096
0.0288223349086585,15.327898102123
0.0280123175822168,15.3320439560126
0.0271596613123531,15.334814801018
0.0261075005684841,15.3375856460234
0.0250389925250763,15.3400571237708
0.0239703791669601,15.3423450397851
0.0228995827174097,15.3445336552988
0.0218286198269797,15.3466667065631
0.0207610192191494,15.3487702710413
0.0197005155362079,15.3508620390162
0.0186506746333406,15.3529551223862
0.0176147926689197,15.3550599010297
0.0165958784261019,15.3571850381813
0.0155966584019765,15.3593381003129
0.01461958975195,15.3615259628988
0.0136668753137445,15.3637550935992
0.0127404726708901,15.3660317773095
0.0118421096915977,15.3683622828868
0.0109732922655288,15.3707530235066
0.0101353123134542,15.3732107071859
0.00932926610281599,15.3757424558123
0.00853705334172905,15.3784227859177
0.00775748313587139,15.3812848578558
0.00699429150102993,15.3843505132379
0.00625140746352678,15.3876452204491
0.00553300088123992,15.3911984951977
0.00484343922887165,15.3950447101787
0.00418722964240205,15.3992240455606
0.00356889857737452,15.4037839162016
0.00299277504080051,15.4087815330379
0.00246270893102611,15.4142884130231
0.00198173966960811,15.4203987518728
0.00155937326611667,15.427109125844
0.00120372189093716,15.4343225599941
0.000915784611294697,15.442312589519
0.000729011602493917,15.4494737527894
0.000552446580098437,15.4585211368165
0.000419353042616025,15.4679933364275
0.000320313076049337,15.4779933364275
0.000251994065883149,15.4879933364275
0.000205418175617899,15.4979933364275
0.000174042884484569,15.5079933364275
0.000153216895569184,15.5179933364275
0.000139727309439471,15.5279933364275
0.000131393283493185,15.5379933364275
0.00012674192816294,15.5479933364275
0.000124778194065222,15.5579933364275
0.000124832554315692,15.5679933364275
0.000126462155393514,15.5779933364275
0.00012938567686699,15.5879933364275
0.000133439448645534,15.5979933364275
0.0001385478034978,15.6079933364275
0.000144703658551048,15.6179933364275
0.000151956835270325,15.6279933364275
0.000160408493135951,15.6379933364275
0.000170210708660836,15.6479933364275
0.000181570838704511,15.6579933364275
0.000194760927518612,15.6679933364275
0.000210133119562371,15.6779933364275
0.000228142943536403,15.6879933364275
0.000249383635678656,15.6979933364275
0.000274636706689026,15.7079933364275
0.000304947318285197,15.7179933364275
0.000341738822125447,15.7279933364275
0.000386991163986352,15.7379933364275
0.00043953964883562,15.747352925182
0.000499766757546946,15.7560009814788
0.000568674420387849,15.7639871689879
0.000647446679581611,15.7713622261876
0.000737435068067007,15.7781735327323
0.00084017201159078,15.7844651763736
0.000957392032622815,15.7902781737996
0.00109105721270456,15.7956506780193
0.00124338680922853,15.8006181695609
0.00141689070464057,15.8052136396024
0.0016144092197494,15.8094677679166
0.00183915946053693,15.813409094844
0.00209479167770726,15.8170641870622
0.00238545735066763,15.8204578022174
0.00271589424615112,15.8236130571895
0.00309153436242254,15.8265516016703
0.00351864362231386,15.829293802821
0.00400450870720057,15.8318589524285
0.0045576941036669,15.8342655113765
0.00518840900325909,15.836531417199
0.00590270102186095,15.8386572626462
0.00669108364838725,15.8406135139234
0.0075628516986769,15.8424324074446
0.00853192043248617,15.8441459521869
0.00961947760591539,15.8457874354449
0.0108616957059486,15.8473979642828
0.012371034469176,15.849084204062
0.0144600211670966,15.8510869851815
0.0162112939686803,15.8525733577239
0.0180991365375969,15.8540597302663
0.0198045508066466,15.8553552407684
0.0213078092557048,15.8565048115822
0.0226578704727089,15.8575873661787
0.0238633430875176,15.8586489761685
0.0249110455478004,15.8597270351524
0.0257697951562089,15.8608658743581
0.0263786877872189,15.8621409627911
0.0265813587301127,15.8637636038432
0.0261434057489454,15.8654578977225
0.0251521521387094,15.8671521916017
0.0240049073876964,15.868568161103
0.0227085958234255,15.8699360059792
0.0212611863249742,15.8713376568132
0.0196708968958361,15.8728149220197
0.0179432437940064,15.8744069421994
0.0161038543065918,15.8761654649809
0.0146083286058033,15.8777062826123
0.0119935021888095,15.8807265896298
0.00986517717485364,15.883608519968
0.00820328918900801,15.886241732201
0.00685764896190927,15.8887209970596
0.00568465313112862,15.8912332584938
0.00465499055326917,15.8938101080917
0.00374911932314491,15.8964749122235
0.00295144704234736,15.8992507853521
0.00228107098346686,15.9020172093799
0.00174492646666373,15.904622544624
0.00130399859964706,15.9071178336709
0.000931232985855881,15.9095535661526
0.000611389565224057,15.9119496185924
0.00033816446301025,15.9142779704624
0.000106940080808643,15.9164970436504
-8.98266254690822e-05,15.9185997828446
-0.000260675512018178,15.920611287322
-0.000412975304908215,15.9225692563687
-0.000553191042222289,15.9245239814466
-0.000688639234549113,15.9265624020456
-0.0008346589228705,15.9289356332738
-0.000937178012987655,15.9307146269431
-0.00103468606482633,15.9324936206124
-0.00111617365159787,15.9340443841964
-0.00118791492997242,15.9354564283901
-0.00125629461702958,15.936841269721
-0.00132566175511724,15.9382827554873
-0.00140123962890785,15.9398922182042
-0.00149490207857539,15.9419373933713
-0.00165532534175732,15.9455484136062
-0.00180024085549461,15.9489003290727
-0.00192711409906194,15.9518862539222
-0.00206413878232061,15.9551522523717
-0.0022439092536444,15.9594902938153
-0.00249170730630345,15.965602409312
-0.00269052174688153,15.970922745193
-0.00283185610499016,15.9755986085193
-0.00290544954138739,15.9797385170857
-0.00290298054073101,15.9834958530551
-0.00281479871911396,15.9869487596173
-0.00263573049070241,15.9900870140891
-0.00236556116684594,15.9929299504055
-0.00200283314338864,15.9955343772172
-0.00153813612294473,15.9979825617779
-0.000945486304994025,16.0003826826085
-0.000151839360093061,16.0029311206042
0.000912852051230201,16.0057289286441
0.00182711700015482,16.0078348226135
0.00280863747782018,16.0099407165829
0.00384374747434362,16.0120713619977
0.00524382089050049,16.014859168026
0.00623523902901959,16.0167538762071
0.00728374151008305,16.0186485843882
0.00836888274084501,16.0204570357794
0.00948874705551438,16.0221429099002
0.0107241482854402,16.0237952398704
0.0120885951915631,16.0253943464157
0.0136241766211109,16.0269565103756
0.0153431774791598,16.0284649553476
0.0172796531269264,16.0299258349059
0.0194529546174922,16.0313328241028
0.0218842581004742,16.0326830906124
0.0246078983970107,16.0339811157007
0.0276563875785216,16.035228521776
0.0310674518688159,16.0364277945897
0.0348825804198757,16.0375811996732
0.0391551170166361,16.0386927467672
0.0439457411775262,16.0397659521596
0.0493250052031512,16.0408042234035
0.0553760303595525,16.0418110070899
0.0621971128585104,16.0427897717985
0.0699064593575678,16.0437441870785
0.0786465600492355,16.044678059397
0.0885915617114074,16.0455954730643
0.0999572982521955,16.0465009258131
0.113015584823018,16.0473995084536
0.128116063588366,16.0482972096264
0.145719499683259,16.0492013382509
0.166454568029261,16.0501213358764
0.190979052692111,16.0510616596842
0.219348350648463,16.0520047767041
0.252278623229365,16.0529599678212
0.290738399747581,16.0539413444242
0.336258827833753,16.0549757008272
0.373728931783185,16.0557602714129
0.412829323433097,16.0565448419987
0.447449998529375,16.057235678541
0.477674091485247,16.0578607137759
0.504179865800712,16.0584548917358
0.527022233571081,16.0590429478942
0.545772636254406,16.0596484020418
0.559385001226833,16.0603028191296
0.565391132275843,16.0610654693824
0.560071236132424,16.0618431375406
0.542339547028785,16.0626566973772
0.510467533618704,16.0635242689821
0.46296254503121,16.0644453850914
0.401215250646204,16.0653823984905
0.353138254194568,16.0660083812373
0.300534414464995,16.0666343639842
0.254329555201594,16.0671555642
0.215121093173123,16.0675897322063
0.180888524893753,16.0679713164311
0.150345649485668,16.0683206866946
0.122730668101101,16.0686502348953
0.0975268763646112,16.0689689097344
0.0743151174626643,16.0692847483131
0.052654186254195,16.0696074335147
0.0318255033805277,16.0699547036468
0.00916118212912121,16.0703955202532
0.000182737132761334,16.0705969024379
-0.00797339988059074,16.0707982846226
-0.0145101052636408,16.0709757643698
-0.0206051011599004,16.0711575444983
-0.0267266786741472,16.0713602163259
-0.032627282871587,16.0715803579938
-0.0381502742021297,16.0718159450794
-0.0432085934867783,16.072066286616
-0.0477570093956073,16.0723315840035
-0.0517756195050685,16.0726126860565
-0.0552600996888095,16.0729109731323
-0.0582141236719326,16.0732283213017
-0.0607949868349027,16.0735931211171
-0.062647332828105,16.0739552389036
-0.0640052412862661,16.0743450564188
-0.0648850091764898,16.0747674585813
-0.065298584611214,16.0752281499688
-0.0652537880283999,16.0757343842197
-0.0647520104708647,16.0762956334499
-0.0637821938638157,16.0769260710846
-0.0623166807144906,16.0776443781097
-0.0602985510894596,16.0784792859198
-0.0576066585844352,16.0794818022722
-0.0539129850889764,16.0807750164181
-0.0497932288575592,16.082179128704
-0.045802104684678,16.0835392228616
-0.0419895070929549,16.0848596826079
-0.0383803570617751,16.086142508532
-0.0349878145672578,16.0873883429567
-0.031818114643001,16.0885971472205
-0.0288727246604665,16.089768562759
-0.026149505668541,16.0909021015126
-0.0236434791183699,16.091997244073
-0.021347426955779,16.0930534857554
-0.0192524108835522,16.094070351522
-0.0173482398822816,16.0950473910278
-0.0156238928898431,16.0959841600253
-0.0140426381805554,16.0968951905198
-0.0125191945582225,16.0978294015855
-0.0110584599311341,16.0987880923704
-0.0096644331310356,16.0997732704622
-0.00834093932850321,16.1007872835314
-0.00709157558730475,16.1018329060171
-0.00591966036058031,16.102913448072
-0.00482818094963057,16.1040329013468
-0.00381973908082994,16.1051961383587
-0.00289649443218307,16.1064091922548
-0.00206010549214165,16.1076796615349
-0.00131166635709182,16.1090173173541
-0.000651636678020194,16.1104350565197
-7.97592415308574e-05,16.1119504833886
0.000400050777206038,16.1135689400033
0.000774808982992393,16.1152289422524
0.00106145296036147,16.1169488358744
0.00127468953383289,16.1187483381045
0.00142820099589963,16.1206534656434
0.00153499196342389,16.1227004210856
0.00160787843013818,16.1249435149107
0.00166031978198019,16.1274735207041
0.00170844091164348,16.1304719407224
0.00177423507818725,16.1342071734542
0.0018634521102291,16.1380844285254
0.0019874117772481,16.1423273500197
0.00213824075641338,16.1467238498802
0.00232571643694309,16.1516926062803
0.0025188049482193,16.1565713030993
0.00271733499932335,16.1614862934323
0.00289955686965334,16.165936304465
0.00306553833811879,16.1699361023484
0.00322651722635001,16.173752593199
0.00338806076691754,16.1775035219558
0.0035538046359426,16.1812556395699
0.00372668894915443,16.1850554082335
0.00390942347174845,16.188939742034
0.00410472163385171,16.1929407723013
0.00431548004586499,16.1970889529164
0.00454491569899741,16.2014147825708
0.00479672281722347,16.2059501431048
0.00507531286667614,16.2107296431157
0.00538622476111634,16.2157920404221
0.00573596157532407,16.2211686945369
0.00609615633864735,16.2263675602751
0.00647843777117678,16.2315314901706
0.00688158904228539,16.2365993178759
0.00731050239690307,16.2415889418164
0.00776942002882086,16.2465017239731
0.00826368706092167,16.2513449312151
0.00879902163700262,16.2561223692048
0.0093816737902354,16.2608357556051
0.0100184569351275,16.2654846245097
0.0107192062327213,16.270081683072
0.0115083137366159,16.2747092331889
0.0124005231141576,16.2793582423599
0.0134185843046009,16.2840449380545
0.0145945225497144,16.2888018685586
0.0159815643047523,16.2937079258855
0.017693118497934,16.2989764562294
0.0201561697769502,16.3055243268219
0.0218144398870658,16.3095075388095
0.0235403033214572,16.3134907507972
0.0250414137262556,16.3169831810297
0.0263068413865135,16.3201188962646
0.0273645684100547,16.3230961929562
0.0281831454786492,16.3259569976887
0.0287340858812089,16.328710874013
0.0290135323333354,16.3314770861178
0.0289857941300043,16.3344164833718
0.0285200415495233,16.3379060795445
0.0277310141789795,16.3410549216093
0.0266495123379602,16.3442037636741
0.0255672937690315,16.3468410743623
0.0244973606512043,16.3492026537588
0.0234269068739291,16.3514299388812
0.0223552120197164,16.3535840991722
0.0212852787016275,16.3556978569502
0.0202208144495401,16.3577921332048
0.019165482805598,16.3598818464209
0.0181227117404828,16.3619784574278
0.0170956464084292,16.3640912964344
0.0160871465416938,16.3662283340671
0.0150997980571037,16.3683966668801
0.0141359241305285,16.3706028543902
0.0131975998078836,16.372853157887
0.0122866635507596,16.3751537300943
0.0114047245724658,16.3775107827305
0.0105531776119882,16.3799307174932
0.00973320859818873,16.3824202739472
0.00893613318300637,16.3850193992909
0.00814992580938001,16.387791135397
0.00737833772484251,16.3907554633676
0.0066251812818642,16.3939361531628
0.00589451949682988,16.3973607207722
0.00519063676159962,16.4010611556208
0.00451799116242069,16.4050748017875
0.00388112242314458,16.4094455782223
0.00328449304492202,16.4142259045305
0.00273222840759947,16.4194802788017
0.00222779686017784,16.4252918299597
0.00177376839450776,16.431773124058
0.00138866027042179,16.4387354938681
0.00113878010502471,16.4443900343693
0.000943441059687672,16.4500445748705
0.000732591122309794,16.4582012403531
0.00056940911715372,16.466897985153
0.000440291464281298,16.476505731111
0.00034750040150875,16.486505731111
0.000285354574517799,16.496505731111
0.000245120418378583,16.506505731111
0.000220465984509077,16.516505731111
0.000206912471505552,16.526505731111
0.000201399606641212,16.536505731111
0.000201899218868787,16.546505731111
0.000207106462219914,16.556505731111
0.00021622172229859,16.5665057311111
0.000228810117140889,16.5765057311111
0.000244716860216649,16.5865057311111
0.000264020768909281,16.5965057311111
0.000287015689567844,16.6065057311111
0.000314215987019933,16.6165057311111
0.000346387034951661,16.6265057311111
0.000384606105816197,16.6365057311111
0.000430364896714419,16.6465057311111
0.000485734274762367,16.6565057311111
0.000553628172575996,16.6665057311111
0.000632703993182821,16.6759087744459
0.000722936057728264,16.6845654343228
0.000825709667231021,16.6925308840168
0.000942718341325642,16.6998633660724
0.00107590978855815,16.7066167214837
0.00122750075238047,16.7128405916647
0.0014000109824314,16.7185808492413
0.00159630755299883,16.7238799590021
0.00181966024683277,16.7287772787441
0.00207380507085931,16.733309363279
0.00236302983770446,16.7375102716777
0.00269227820105356,16.7414118711629
0.00306728997275314,16.7450441377184
0.00349479052151396,16.7484355135351
0.00398275982011678,16.75161335652
0.00454083396070277,16.7546045221596
0.00518092758563548,16.7574362053831
0.00591168529336897,16.7601152430113
0.00673185851600339,16.7626248150265
0.00766348575799184,16.7650248491283
0.0087485565790311,16.7673965530771
0.0100913820845793,16.7699005193259
0.0115833478719992,16.772316040045
0.0128087047961155,16.7741191016133
0.0140987686881285,16.7759221631815
0.0152470529506566,16.7775068914969
0.0162602051779218,16.7789468187941
0.0171555178261716,16.7803169384021
0.0179297008611133,16.781666105377
0.018565957051021,16.7830378507405
0.0190325506111975,16.7844865972165
0.0192683547793052,16.7861090649097
0.0191033535286867,16.7881979706862
0.0185188664606792,16.7900984917375
0.0175865762945283,16.7919990127889
0.016565475438669,16.79364202692
0.0154594035109912,16.7952125417065
0.0142705865236384,16.7967873585144
0.0130077229815535,16.7984066038695
0.0117143889614656,16.8001039084679
0.0107240192077928,16.8014993505803
0.00907027140628531,16.8040727285776
0.00764155502514128,16.8066170170824
0.00639887018142007,16.8091618994041
0.00550635326673838,16.8112450158854
0.00479348979953505,16.8131079951053
0.00416814725689961,16.8149253308636
0.00358474846979354,16.8168125745759
0.00300463602338685,16.8189186974398
0.00235973941832102,16.8216051030302
0.00171968250681166,16.8247515829946
0.00117709661514355,16.8279353448261
0.000738978733472017,16.8309832034051
0.000338428886956049,16.8342792538762
-5.92027347703906e-05,16.8382159291882
-0.000428260950390043,16.8427262112825
-0.000750883040244042,16.8477519793426
-0.000980112883816403,16.8525498782247
-0.00111709588342987,16.8568814680212
-0.00117142995547445,16.8608211708017
-0.00114439754615383,16.8644117984215
-0.00103360634413138,16.8677091130407
-0.000833368922064965,16.8707742697219
-0.000533492243462203,16.8736766751749
-0.000113822536896418,16.8765111358219
0.000466781267674471,16.8794121187314
0.00128775160878634,16.8825686481363
0.00237427021651032,16.8859161871722
0.00378242867282988,16.8895313206685
0.00483123177574558,16.8918845564302
0.00600239286951566,16.8942377921919
0.0071731667416241,16.8963266416993
0.00835982777106558,16.8981982385137
0.00963611682186197,16.8999672485288
0.0110224738179919,16.9016444861717
0.0125562540277506,16.9032555275544
0.014262534112503,16.9048049693415
0.0161672086982949,16.9062960878284
0.0182939741569547,16.9077291567809
0.0206731582916159,16.9091079452113
0.0233302679158267,16.9104320041373
0.0263016292354372,16.9117054011563
0.0296260683031256,16.9129310829932
0.0333473822904534,16.9141119247518
0.0375151965732362,16.9152507392587
0.042191328584462,16.916351504118
0.0474462452024899,16.9174176818832
0.0533633131266789,16.9184528447936
0.060041337185241,16.919460609694
0.067601013312069,16.920445028002
0.0761893596389613,16.9214103859707
0.0859887196824912,16.9223614223292
0.0972299020394585,16.9233035857862
0.110211831019981,16.924243371586
0.125335168209148,16.9251889998801
0.143158579652023,16.9261514252019
0.164321444951697,16.9271383606248
0.188832015952868,16.9281287746952
0.217340310404385,16.9291333710511
0.250723538684757,16.9301674706778
0.290295565716763,16.9312565719218
0.336027948087596,16.9323963152647
0.376061389883159,16.9333368014496
0.409524388260562,16.9341141015507
0.438556908076245,16.9348093047982
0.463915612187167,16.935463072216
0.485668153885284,16.9361008960566
0.503461817380732,16.9367447273459
0.516465814613278,16.9374196214465
0.522980841941979,16.9381636000905
0.519889170661312,16.9389721203244
0.505349873661551,16.9398013686912
0.4780005715361,16.9406671215585
0.436094544017495,16.9415807568525
0.37771295361725,16.9425509091296
0.334100058798769,16.9431644202308
0.286208318583963,16.943777931332
0.243466199623339,16.9442954187292
0.206645512158644,16.9447318148403
0.174189118457031,16.9451180832036
0.145059460415776,16.9454730733043
0.118619085343647,16.9458085851468
0.0944231792469541,16.9461332948492
0.0721033009431482,16.9464550417994
0.0512676799640326,16.9467831909376
0.0312871911821839,16.9471343981775
0.0100181728790778,16.9475676809999
0.000460092146592844,16.947791709909
-0.00816071265877262,16.948015738818
-0.0146474678957216,16.9482020067141
-0.020608227189002,16.9483902619441
-0.0265806179050316,16.9485997991908
-0.0323273428968883,16.9488271715972
-0.0376976749024598,16.9490703127469
-0.04260845343025,16.9493285312563
-0.0470168565122354,16.9496020502041
-0.050904338466812,16.9498917525022
-0.0544443263701285,16.9502185056498
-0.0572093377672384,16.9505439051921
-0.0594597351581269,16.9508908932528
-0.0612118152519018,16.9512627788055
-0.0624799151459597,16.9516632917335
-0.0632775323670565,16.9520970401647
-0.0636158206351104,16.9525697792266
-0.0635018888973622,16.9530888101585
-0.0629363277583031,16.9536638276073
-0.0619076129006224,16.9543089207269
-0.0603883835608324,16.9550427162825
-0.0583232435247812,16.9558936953063
-0.055595856757209,16.9569119458245
-0.0518977739338095,16.9582158233437
-0.0478607342945693,16.9596062342139
-0.0439644307944343,16.9609514718808
-0.0402542846948644,16.9622558459313
-0.0367522487463905,16.9635215329569
-0.0334693277353791,16.964749327519
-0.0304099617542316,16.9659393241261
-0.0275740565708611,16.9670912811077
-0.0249581217954343,16.9682048119113
-0.022556042235454,16.9692794830385
-0.0203596845234964,16.9703148591465
-0.0183594164060918,16.9713105165094
-0.0165445662830024,16.9722660362864
-0.0149038309042633,16.9731809838777
-0.0133440006970335,16.9741047042476
-0.0118446387757824,16.9750521896096
-0.0104100127956867,16.9760251961804
-0.0090440239092598,16.9770259095573
-0.0077503647328616,16.9780569002326
-0.00653246764471815,16.9791212207119
-0.00539345229489255,16.9802225329365
-0.0043360707894882,16.9813652807103
-0.00336265036513456,16.9825549286851
-0.00247503289169808,16.9837983030781
-0.00167450971959419,16.9851040940301
-0.00096174893031828,16.9864836270737
-0.00033670924964004,16.9879521092217
0.000201471048889188,16.9895307756611
0.000636026268478584,16.9911698519659
0.000975191980048363,16.9928604527022
0.001234685839238,16.9946210324399
0.00142885992729994,16.9964744002551
0.00157128507913426,16.9984514500507
0.00167522015602546,17.0005968342985
0.00175435653953401,17.0029811933374
0.0018243934613845,17.0057329579398
0.00190817388180416,17.0091550435594
0.002016212791962,17.0129177295954
0.00214896574528547,17.0167123078809
0.00230616842153122,17.020571172256
0.00248430037569499,17.0245291481555
0.0026794306439176,17.0286178842774
0.00288870759105369,17.0328680853585
0.00311089653398563,17.0373110734003
0.00334643104554504,17.0419802762231
0.00359729058155528,17.046912644516
0.00386692033634685,17.052149971735
0.00416038643275637,17.0577403336168
0.00447145369719164,17.0634922858634
0.00478475535079409,17.0690570226368
0.00510788267424918,17.0745244986668
0.00544211917246839,17.0798673750909
0.0057917470991519,17.0851107844322
0.00616029531292235,17.0902649759986
0.00655159111478542,17.0953415071227
0.00696946026366376,17.100347418206
0.00741797405652108,17.1052876641894
0.00790153449313919,17.1101650912642
0.00842499394372465,17.1149808421925
0.00899375805233743,17.1197345691325
0.00961388247063783,17.1244246564797
0.0102921746021266,17.1290485892086
0.0110467972525864,17.1336644915475
0.0118969491973707,17.1383044993154
0.0128612444257035,17.1429728182021
0.0139665912088823,17.147692548467
0.0152542496888881,17.1525163400372
0.0168012852850679,17.1575762266011
0.0188151445556072,17.1632958140905
0.0207211712928709,17.1681030474209
0.0223358239653293,17.1719035016107
0.0239900677365102,17.1757039558006
0.025413806058399,17.1790566958731
0.026616117495278,17.1821270330488
0.0276116487426998,17.1850850453087
0.0283486053516775,17.1879021504377
0.0288188958223566,17.1906474330495
0.029011297478348,17.1934470622222
0.0288732461466779,17.1964947074428
0.0281867787050338,17.2003895841359
0.0273544062469125,17.2032653609313
0.026297158753131,17.2061411377268
0.0252257229531333,17.2086640844056
0.0241567572743573,17.2109773467634
0.0230857301677472,17.213180325973
0.0220139621298872,17.2153219958198
0.0209448439925717,17.2174306136857
0.0198821090824683,17.2195249940593
0.0188293568509224,17.2216189157711
0.017789925772686,17.2237231926817
0.0167668662507489,17.2258467950441
0.0157629455120896,17.227997518776
0.014780657955372,17.2301824266862
0.0138222414939342,17.232408149089
0.0128896883644848,17.2346811191258
0.0119847565151292,17.2370077612563
0.0111089846485231,17.2393946437591
0.0102636956984819,17.2418486497637
0.00945001548017192,17.2443771069097
0.00865607203935732,17.2470324559586
0.00787413652198661,17.2498669119381
0.00710798485615662,17.2529016326383
0.00636150079699201,17.2561616137716
0.00563881204217619,17.2596758276385
0.00494425322451098,17.2634780081633
0.00428230847944187,17.2676076089419
0.00365750503716395,17.2721111556508
0.00307421730822911,17.2770445902004
0.00253638778938327,17.2824775098282
0.00204719312678024,17.2885010242566
0.00161427189149116,17.2951465451296
0.00125600747021721,17.3022819179453
0.00102207833159325,17.3086177421806
0.000798032939967179,17.3166086927636
0.000616776060776525,17.3253290648885
0.000469770619618256,17.3351793324987
0.000366597066115363,17.3451793324987
0.000296533458978774,17.3551793324987
0.000249780810495714,17.3651793324987
0.000219272573111439,17.3751793324987
0.000200062105666299,17.3851793324987
0.000188773140935915,17.3951793324987
0.000183130886855098,17.4051793324987
0.000181609802210279,17.4151793324987
0.000183193809034857,17.4251793324987
0.000187220991633125,17.4351793324987
0.000193283793345289,17.4451793324987
0.000201164301862092,17.4551793324987
0.000210792781796887,17.4651793324987
0.000222223142678224,17.4751793324987
0.000235622065517861,17.4851793324987
0.000251270337649055,17.4951793324987
0.000269576491034458,17.5051793324987
0.000291104627059696,17.5151793324987
0.00031662075018359,17.5251793324987
0.000347165624074286,17.5351793324987
0.000384168224915957,17.5451793324987
0.000429624477907288,17.5551793324987
0.000482438640614591,17.5645473482284
0.00054298086236118,17.5732028059865
0.000612280435638814,17.5811951629642
0.000691552565185454,17.5885753014566
0.000782180444400983,17.5953907380153
0.000885728504831987,17.6016856880554
0.00100396427585443,17.6075012917755
0.00113888480792346,17.6128758240065
0.00129274718414722,17.6178448871349
0.00146810307146813,17.6224415941629
0.00166783958799208,17.6266967457115
0.00189522711331585,17.6306390014206
0.00215397730775266,17.6342950467182
0.0024483135754413,17.6376897589992
0.00278305920107786,17.6408463779193
0.0031637496012475,17.6437866825816
0.00359677841453074,17.6465311821177
0.00408959377326991,17.6490993313683
0.0046509701318214,17.6515097886537
0.0052913994161979,17.6537807451115
0.00601378475425727,17.6559038632045
0.00681159609206386,17.6578606544295
0.00769486236855716,17.6596838976238
0.00867860937143682,17.6614063005575
0.00978620856019977,17.6630628559414
0.0110589305554386,17.6646989362551
0.0126356502099808,17.6664451161105
0.0149471958021088,17.6686349827303
0.0166103630539793,17.6700388145076
0.0183769948605001,17.6714426462849
0.0199946726800387,17.6726985554619
0.0214355414023944,17.6738367689551
0.0227298526834131,17.6749211358997
0.0238789030453105,17.6759937906834
0.0248651322816824,17.6770926895619
0.0256519076955958,17.6782669843143
0.0261656992934325,17.6796090260353
0.0261826474549785,17.6814360350544
0.0256124280961759,17.6830146551348
0.0246035684077528,17.6845932752153
0.0234379500298763,17.6859908199589
0.0221201255484526,17.6873677007798
0.0206553484562688,17.6887870004145
0.01905254458967,17.6902877870016
0.0173162903533275,17.6919101013406
0.0158357961712104,17.6933535086144
0.0132946328524062,17.6960898033004
0.0108798096987013,17.699105928775
0.00900127648678575,17.7018579567054
0.00751199947205202,17.7044008221152
0.00625461557359811,17.7068946228796
0.00515341800573081,17.7094383956306
0.0041848515714223,17.7120586849696
0.00333155639976843,17.7147785216866
0.00257928459409606,17.7176216270996
0.00191582930197766,17.7206139232494
0.00137964722072786,17.7234943617451
0.000926754078398611,17.7263681486364
0.000527355801777735,17.7293512039529
0.000179004926854746,17.7324035225463
-0.000104164627966271,17.7352781528883
-0.000330550376429927,17.7378849612916
-0.000518433728365467,17.7402891897697
-0.000680422788431661,17.7425557629538
-0.000824379719332891,17.7447299559221
-0.000955915929977976,17.746851483627
-0.00108013362214752,17.7489721376404
-0.00120330584361519,17.7511821879218
-0.00133989650867583,17.7537464813556
-0.00143951630434507,17.7556817975842
-0.00153688805493671,17.7576171138128
-0.00162021718079585,17.7593006794137
-0.00169515709228732,17.760831173154
-0.00176807888182213,17.7623312400776
-0.0018436226298632,17.7638925390902
-0.00192780715764384,17.7656367397989
-0.00203505155646048,17.7678587737254
-0.00222651159516543,17.7718074827409
-0.00240145299010442,17.7753859735527
-0.00255614692895158,17.7785342869278
-0.00272468947381199,17.7819728596726
-0.00293958344631562,17.7864553874479
-0.00317102982893676,17.7917141595449
-0.00334001356856834,17.7966156836941
-0.0034207845926256,17.8009121356662
-0.00341457646235883,17.8046624809499
-0.00332187379452262,17.8081816602414
-0.00312288322474083,17.8116901059668
-0.00282207240327154,17.8149241660425
-0.00243119229835068,17.8178497817952
-0.00195004588717734,17.8205501906282
-0.00136898003668086,17.8231074887111
-0.000659336249271983,17.825629976744
0.000254862889157715,17.8283077483775
0.00146213041485351,17.8312837633913
0.00258504531109815,17.83373452626
0.00379244924122895,17.8361852891287
0.00517569827572839,17.838850514667
0.0063730235730605,17.8410456896736
0.00764683938998157,17.8432408646802
0.00882383423067468,17.8451090404554
0.0100512901755548,17.8468756163486
0.0113471636809056,17.8485407469029
0.0127798547226713,17.8501638688934
0.014361954990666,17.8517282269749
0.0161342278051177,17.8532473795166
0.0181109395481846,17.8547096606681
0.0203268623807906,17.8561209424327
0.022808713422616,17.8574799729846
0.0255814894731212,17.8587849885407
0.0286843245299275,17.860040414401
0.0321577474700641,17.8612489949967
0.0360482202049912,17.8624137070549
0.0404088072329136,17.8635375273868
0.0453039743761888,17.8646241818259
0.0508092757754202,17.8656773395425
0.0570139480980802,17.866700675058
0.0640249246560339,17.8676980211616
0.0719714438946149,17.868673407382
0.0810130545510076,17.8696313127666
0.0913486799438305,17.8705767046707
0.103232012807232,17.8715153558627
0.116995041858407,17.8724542633879
0.13308766298486,17.8734023924159
0.152148479594031,17.8743720045026
0.174556907585722,17.87535728905
0.200541797778554,17.8763492518573
0.230822246812846,17.8773598170018
0.266393217508768,17.8784067258977
0.308846668016306,17.879522224837
0.344445619946099,17.8803852536272
0.381598358075537,17.8812482824175
0.414581754441545,17.8820093392633
0.443387503533572,17.8826967012628
0.468544067385931,17.8833454327442
0.490078554746686,17.8839803330599
0.507605005766698,17.8846234426627
0.520238294424467,17.8853006229442
0.526149720501339,17.8860524848435
0.522159754591725,17.8868603014299
0.506589744939749,17.8876908305493
0.478028645058852,17.8885596731181
0.434685320444358,17.8894779486656
0.374609547708128,17.8904542991026
0.331227818648809,17.8910545739736
0.283847932132567,17.8916548488447
0.241550924107372,17.8921633375041
0.20502710140652,17.8925943045537
0.172782588004618,17.8929770942752
0.14381812367675,17.893329748559
0.117512988646686,17.8936637129069
0.0934288135539327,17.8939875293441
0.0711967050171928,17.8943090695323
0.0504139578799385,17.8946380072216
0.0304035046603605,17.8949922993159
0.00860070981630721,17.8954423462314
-7.68757890401885e-06,17.8956471008762
-0.00783407798347491,17.8958518555209
-0.0142371011624035,17.8960360837621
-0.0202158580924136,17.8962252931197
-0.026191671409348,17.8964355482705
-0.0319311010399746,17.8966634514893
-0.0372879336333407,17.8969070339637
-0.0421817060159309,17.8971656667722
-0.0465712090762242,17.8974396146832
-0.050438891968764,17.8977297917382
-0.053921314609032,17.8980532652001
-0.056672989694372,17.8983789987351
-0.0589107729136434,17.8987264636754
-0.0606505909849304,17.8990989434709
-0.0619068477980703,17.8995001987436
-0.0626930569901362,17.8999348784563
-0.0630203295081862,17.9004087928842
-0.0628956585590806,17.9009293205604
-0.0623193455649395,17.9015063199909
-0.0612794404884863,17.9021540263823
-0.0597478361815756,17.9028913835733
-0.0576675759497432,17.9037474977824
-0.0549182486262281,17.9047740214176
-0.0511742345594595,17.9060956729574
-0.047150517131227,17.9074844929785
-0.0432692622375077,17.9088285309033
-0.0395746599913139,17.9101319277518
-0.0360881587523102,17.91139675948
-0.0328205117519748,17.9126237658084
-0.0297760157991003,17.9138130109096
-0.026954486555335,17.9149642360719
-0.0243523736337887,17.9160770450597
-0.021963521410678,17.9171509988002
-0.0197797702150813,17.9181856586329
-0.017791472523803,17.9191805986691
-0.0159879503100544,17.9201353983741
-0.0143579009687202,17.9210496214701
-0.0128068090336432,17.9219737247302
-0.0113163756657382,17.92292161397
-0.00989085663197648,17.9238950595791
-0.00853416024378241,17.924896252771
-0.00724998762034605,17.9259277711772
-0.00604178164010577,17.9269926763239
-0.00491267512958936,17.9280946416808
-0.00386543698891033,17.9292381260026
-0.00290241619207316,17.9304286136889
-0.00202548318578885,17.9316729576413
-0.00123596753491979,17.9329798850924
-0.000534589479262857,17.9343607750003
7.86192052835972e-05,17.9358309149139
0.000604414341808231,17.9374116689342
0.00102605315320761,17.9390514461506
0.00135245651338056,17.9407430727111
0.00159918788760323,17.9425050191802
0.00178044605397509,17.9443602035626
0.00190961165122949,17.9463396960184
0.00199968763249556,17.9484884622424
0.00206398265546657,17.9508777711163
0.00211753314024215,17.9536375971841
0.00218171277976434,17.9570765253751
0.00226861439039713,17.9608416789233
0.00239179642727385,17.9649793641796
0.00257097588596964,17.9699055338756
0.00274323686282642,17.9741066280343
0.00291282148419627,17.9780063612419
0.00308263461171045,17.9817865851406
0.00325470021654982,17.9855355469794
0.00343110515757618,17.9893086813584
0.00361417179156004,17.9931471761602
0.00380647727123823,17.997085404176
0.00401084638116199,18.0011544221772
0.00423039063319474,18.0053845158357
0.00446856736405544,18.009806653405
0.00472931575559021,18.0144537857219
0.00501733311940826,18.0193622787064
0.00533856068953919,18.0245731563722
0.00568715285149541,18.0299243879953
0.00604869198909978,18.0351482941271
0.00642993277917185,18.0403090704966
0.00683201968923799,18.0453775620466
0.00725960601304295,18.0503671374118
0.0077171864954974,18.0552819112694
0.00821004803382433,18.0601285977984
0.00874383104822981,18.0649106268715
0.00932468035830746,18.0696292911256
0.00995930492265762,18.0742838330391
0.0106562471384162,18.0788793581335
0.0114408119286767,18.0835066017577
0.012327204201601,18.0881544177438
0.0133377732278128,18.0928385681534
0.0145036957550094,18.0975898279488
0.0158762359332915,18.1024827522295
0.017562368476854,18.1077162346313
0.019941356091495,18.1140996591826
0.0216300764516995,18.1181834605948
0.0233967055434864,18.122267262007
0.0249229287779857,18.1258072875685
0.0262066063336404,18.1289638270909
0.0272815878348747,18.1319484817818
0.0281227523917868,18.1348232450451
0.0286956293955652,18.1375816430255
0.0289981752002034,18.1403418694584
0.0289983711772836,18.1432585429895
0.0285800387689513,18.1466725203128
0.0278021239937778,18.1498998987724
0.0267116641531542,18.1531272772321
0.0256257976503121,18.1557937208041
0.0245554507061391,18.1581664926318
0.0234850799674769,18.1603994099939
0.0224133680078594,18.1625567267484
0.0213432115650573,18.1646721850632
0.0202783059430423,18.1667671737857
0.0192223239446018,18.1688568681855
0.018178708307285,18.1709528839517
0.0171506199327808,18.1730646499562
0.0161409341369028,18.1752002010565
0.0151522516349772,18.1773666760086
0.0141869097508784,18.1795706609054
0.0132469972320816,18.1818184316331
0.0123343652937976,18.1841161472982
0.0114506355537325,18.1864700179542
0.0105972154841718,18.1888864343995
0.00977530186408309,18.1913721224334
0.00897765216931216,18.1939620424041
0.00819065300492709,18.1967235401245
0.00741806002538888,18.1996763693802
0.00666367081412968,18.2028440979381
0.0059315343897928,18.2062539994314
0.00522592411265478,18.2099377639369
0.00455128977227847,18.2139323704609
0.00391216973996378,18.2182812670652
0.00331303682118408,18.2230362211318
0.00275804246531931,18.2282607538039
0.00225069970787361,18.2340364104957
0.00179362750873532,18.2404732448402
0.0014043022706269,18.2474060601628
0.0011387299875155,18.2533493363544
0.000932309565462329,18.259292612546
0.000721986782851517,18.2674455502879
0.000558863399504178,18.2761460621964
0.000429148898283343,18.2857872898035
0.000335895972860519,18.2957872898035
0.000272936093950142,18.3057872898035
0.000231590963987945,18.3157872898035
0.000205559215837206,18.3257872898035
0.000190371054689255,18.3357872898035
0.000182958170860963,18.3457872898035
0.000181270357566942,18.3557872898035
0.000183967594678435,18.3657872898035
0.000190200987477574,18.3757872898035
0.000199469784216339,18.3857872898035
0.000211532703911922,18.3957872898035
0.000226355439551006,18.4057872898035
0.000244083300493687,18.4157872898035
0.000265033828013227,18.4257872898035
0.000289708206273823,18.4357872898035
0.000318823395926389,18.4457872898035
0.000353370377497348,18.4557872898035
0.000394708945602167,18.4657872898035
0.000444717818631683,18.4757872898035
0.000506033448960438,18.4857872898035
0.000577520274878746,18.4952002650134
0.000659156426692338,18.5038711222556
0.00075221509236045,18.5118534470642
0.000858246929247623,18.5192042543406
0.000979032018912005,18.5259763228878
0.00111659341525874,18.5322183443397
0.00127322664723139,18.5379753135572
0.00145153757596023,18.5432888647479
0.00165448870394642,18.5481975584171
0.00188545208803854,18.5527371576619
0.00214827748208223,18.5569408972092
0.00244737404360883,18.5608397433054
0.00278781700484956,18.5644626457857
0.00317548613969857,18.5678368134026
0.00361725408346316,18.5709880306231
0.00412125206263627,18.5739410326704
0.00469725628589438,18.5767199914539
0.00535728641871314,18.5793492130364
0.00610141341416799,18.5818084702442
0.00693259607624728,18.5841053445075
0.0078697626658245,18.5862892652168
0.00894625633218003,18.588420932572
0.0102335617051305,18.5906002698911
0.0119760391270855,18.5931248369087
0.0133171021463081,18.5948536730022
0.0147508097867434,18.5965825090957
0.0160784717167396,18.5981365606538
0.0172459998412751,18.5995198139632
0.0182839314500783,18.6008182162081
0.0191964705211731,18.6020845648485
0.019970934092483,18.6033607158387
0.0205799921711299,18.6046939333999
0.0209723921683121,18.6061595914465
0.0210268115817444,18.6079452174169
0.020560543482179,18.6099146936881
0.0196180174880138,18.6118841699593
0.0185703838973538,18.6134992192425
0.017428076154363,18.6150166357952
0.0161862868718222,18.6165360069675
0.0148531174229031,18.6181017532284
0.0140863651523978,18.6189922309433
0.0133319325944999,18.6198827086583
0.0123884697553731,18.6210495226616
0.0103940299281382,18.6237612211123
0.008685658173307,18.6264332354172
0.00728729121719521,18.6289548912608
0.00609415439587179,18.6314337065928
0.00507228591268733,18.6338815121987
0.00416965924211459,18.6363796857665
0.00331942285399499,18.6391229211983
0.00255700748104709,18.6420224015993
0.00210950495676706,18.6439818386555
0.00170909919850865,18.6459412757117
0.00137942047032915,18.6477326316278
0.00109177242739208,18.6494530324079
0.000823985891972618,18.6512104222782
0.000558539842650222,18.6531267981839
0.00026982920298855,18.6554445323657
-0.000159635673460841,18.6594465065049
-0.000515493454771941,18.6634019359588
-0.000779163454955492,18.6668051899188
-0.00102076673946047,18.6703515575793
-0.00127822309405814,18.6746730751622
-0.00156645121335819,18.680389513886
-0.00176683049237329,18.6853689595671
-0.00189683371673693,18.6899124246421
-0.00195147912048257,18.6940187510471
-0.00192534138757839,18.6977399541674
-0.00181256861864442,18.7011288291095
-0.00160738819744179,18.7042419508547
-0.00130286720872167,18.707140482617
-0.000887061211976784,18.7098990871981
-0.000335972766871789,18.7126144071198
0.000411104613619905,18.7154629893218
0.00143031933671243,18.7185704931442
0.00276092494335846,18.7219400145101
0.00444983332185264,18.7256179406272
0.00556786417801513,18.7277948320595
0.00679513129958367,18.7299717234917
0.00805115650769991,18.7319745758384
0.00931832984251612,18.7337741519963
0.0106879436703535,18.7354925946157
0.0121684947670027,18.7371199599647
0.0138100023746883,18.738690699718
0.0156293485471757,18.7401986503543
0.0176615129578684,18.7416529501893
0.0199255869030009,18.7430490935993
0.0224570671768589,18.7443929040454
0.0252872376962651,18.7456855831206
0.0284479806906337,18.7469277852655
0.031984469318941,18.748124034659
0.0359447433189832,18.7492773954169
0.040384302648668,18.7503910365486
0.0453681860562652,18.7514683024244
0.05097141169227,18.7525123709422
0.0572864892565975,18.7535271771635
0.0644224789839501,18.7545164819082
0.0725114364127164,18.7554842813909
0.0817154898509009,18.7564349284743
0.0922366312958892,18.757373273184
0.104332851193854,18.75830501327
0.118340626333392,18.7592369947011
0.134713917207436,18.7601779210491
0.154093213263423,18.7611395993429
0.176879553544408,18.7621170354362
0.203292334576911,18.7631006463061
0.234051330554506,18.7641018581769
0.270146660170106,18.7651376624364
0.313154941729459,18.7662390733338
0.349151367478176,18.7670893348333
0.386724256924141,18.7679395963328
0.420043075586186,18.7686886097067
0.449122841101957,18.7693648584691
0.474530828874176,18.7700037080292
0.4963044500011,18.7706300744801
0.514052231405073,18.7712662957933
0.526862210384759,18.7719391623003
0.53280818148156,18.7726923650919
0.528609526584255,18.7734946806577
0.512682208737648,18.7743219973391
0.483564432758088,18.7751903093821
0.439385201760146,18.7761109989056
0.378110021718563,18.7770924035437
0.333999573252656,18.7776944668695
0.285849835068576,18.7782965301953
0.24296329624139,18.7788055953512
0.206019835293162,18.7792361866698
0.173457429247258,18.7796181683689
0.144237661759203,18.7799698299603
0.117719296654181,18.7803027198201
0.0934517872134642,18.7806254282744
0.0710575751730929,18.7809458593884
0.050125610884779,18.7812737333886
0.0299640560939667,18.7816271656102
0.00791854827566644,18.782078196814
-0.000632626453479238,18.7822799006417
-0.00841333461314654,18.7824816044694
-0.0148231372028489,18.7826642392512
-0.0208265260552039,18.7828523554487
-0.026828030419313,18.7830614262834
-0.0325928507530289,18.7832880654918
-0.037974105039179,18.7835303184914
-0.0428908738484451,18.7837875608483
-0.047301665022288,18.7840600565193
-0.0511887754788181,18.7843487158292
-0.0545420962637708,18.7846549827316
-0.0573619191725453,18.7849811259173
-0.0596370938036275,18.785325926278
-0.0614115823567637,18.7856954719344
-0.0627001630749238,18.7860935175394
-0.0635165213218357,18.7865246622683
-0.063871991745545,18.7869946534456
-0.0637738422111723,18.7875107881063
-0.0632228335849111,18.7880827212449
-0.062207514480967,18.7887245763965
-0.0607003944862835,18.7894550211492
-0.0586455944492442,18.7903026500421
-0.0559253256177466,18.7913179011096
-0.0522252302545109,18.792620761053
-0.0481707426199928,18.7940143047751
-0.0442543236023524,18.7953629819885
-0.04052235667101,18.7966710977775
-0.0369974459511496,18.7979407807861
-0.0336910792151443,18.7991727858964
-0.0306081018386961,18.8003671740337
-0.027748772023329,18.8015236747779
-0.0251099030800966,18.8026418771085
-0.0226856335417899,18.8037213271897
-0.0204680324322446,18.8047615735762
-0.0184476188902437,18.8057621809348
-0.0166138238029351,18.8067227236754
-0.0149554011772734,18.8076427657559
-0.0133921125477347,18.8085635238775
-0.0118887141326785,18.8095079061033
-0.0104496176449424,18.8104775626585
-0.00907875022470095,18.8114746363385
-0.00777983902331498,18.8125016440166
-0.00655635904286106,18.8135615711347
-0.00541148125980825,18.8146579945556
-0.00434801855723235,18.8157952483654
-0.003368369397339,18.8169786529452
-0.00247445873409057,18.8182148403238
-0.00166767498161569,18.8195122317073
-0.000948800639106042,18.8208817667556
-0.000317931869832888,18.822338073338
0.00022562243098862,18.8239014646093
0.000667925281289413,18.8255353421834
0.00101256992635058,18.8272183744099
0.00127551239023296,18.8289689147797
0.00147115900716115,18.8308089877674
0.001613065510246,18.832768227844
0.00171436925088826,18.8348890670256
0.00178844993156571,18.8372377396235
0.00185025304417885,18.8399320573033
0.00192028790401167,18.8432375070248
0.00201374580023266,18.8469848619057
0.00213139036902831,18.8507605931238
0.00227084778821017,18.8545238636402
0.00242866377552675,18.8583236953058
0.00260112649849578,18.8621991015009
0.00278555070346189,18.866183491566
0.0029806747755916,18.8703078426961
0.00318663478146935,18.8746027641012
0.00340477831240069,18.8790999968377
0.00363746632313523,18.8838337680951
0.00388798494913391,18.8888422365347
0.004160677385758,18.894168846549
0.00446141200477187,18.8998638126474
0.00476970865545838,18.9054683998962
0.00508709695030846,18.9109656349814
0.00541555779296387,18.9163436113787
0.00575853519362039,18.921614653351
0.0061196611542721,18.9267915682469
0.00650274374285255,18.931886453064
0.00691166510557161,18.9369080628008
0.0073504841555498,18.9418623149066
0.00782355362664267,18.9467528061908
0.0083356438853216,18.9515812827464
0.00889204477794165,18.9563478388128
0.00949866801275547,18.9610511834339
0.0101621475080573,18.9656889804674
0.0108966520543753,18.970298359349
0.0117239275229474,18.9749344789788
0.0126608194144612,18.9795955637691
0.0137324116886785,18.9843016932437
0.0149758643876869,18.9890966356546
0.0164572730444066,18.9940880287674
0.0183370159763433,18.9995942472562
0.0208124040328249,19.0059138686904
0.0223994804991816,19.0096434429697
0.0240225312491486,19.013373017249
0.02544009619778,19.0167150251369
0.0266386748151164,19.0197821591657
0.0276305521928592,19.0227393977482
0.0283628870918287,19.0255543661425
0.0288285321969612,19.0282993340906
0.0290159014101633,19.0311009598895
0.0288713617290861,19.0341551028308
0.0281701773544313,19.0380783303477
0.0273351206311444,19.0409403731733
0.0262785282850353,19.043802415999
0.0252074083185308,19.0463188290898
0.0241384118900607,19.0486289288875
0.0230673422813843,19.0508301067853
0.0219956103190676,19.0529706686926
0.0209266232592401,19.0550786012324
0.0198641138484597,19.0571725804649
0.0188116770117837,19.0592663028013
0.0177726453965317,19.0613705287928
0.0167500644963809,19.0634941891542
0.0157466958114747,19.0656450514711
0.0147650292971645,19.0678301533417
0.0138072986250626,19.0700561026341
0.0128754904840157,19.0723293147058
0.0119713610581436,19.0746561870282
0.0110964430575903,19.0770432701469
0.0102520551328078,19.0794974231701
0.00943931978467543,19.0820259431468
0.00864556391308363,19.0846840682933
0.00786389202505234,19.0875215978891
0.00709807454439221,19.0905597751901
0.00635200093803842,19.0938236552293
0.00562980474229013,19.097342279377
0.00493582346563358,19.1011494782378
0.00427454548319112,19.1052848117842
0.00365049896281635,19.109794952497
0.00306805469605948,19.1147360612777
0.00253114666762553,19.120178081245
0.0020429382364928,19.1262127040783
0.00161142134264503,19.1328655055981
0.00125365239762017,19.1400095680846
0.00102816815025492,19.1461137212295
0.000803741724924486,19.1540860339809
0.000621142490392772,19.1628521864205
0.000475358866665975,19.172606239325
0.000371996733001827,19.182606239325
0.000302040089021447,19.192606239325
0.000255653235339841,19.202606239325
0.00022574101386816,19.212606239325
0.000207336278644725,19.222606239325
0.000197053482364522,19.232606239325
0.000192620424669417,19.242606239325
0.00019252501202397,19.252606239325
0.000195774510965535,19.262606239325
0.000201740256045872,19.272606239325
0.000210059047117696,19.282606239325
0.000220570857098001,19.292606239325
0.00023328116480196,19.302606239325
0.000248342022886244,19.312606239325
0.000266049355458305,19.322606239325
0.000286856302593242,19.332606239325
0.000311404764302905,19.342606239325
0.0003405804263143,19.352606239325
0.000375601356382087,19.362606239325
0.000418158264891757,19.3726062393251
0.000469679384718095,19.3824392745486
0.000528759171222862,19.3915367485885
0.000596276356970656,19.3999326496187
0.000673384153561688,19.4076807411877
0.000761415494138485,19.4148317607154
0.000861884452405834,19.4214328355858
0.000976503524335884,19.4275277362413
0.00110720847140157,19.4331571270267
0.0012561879633652,19.4383587906681
0.00142591760919567,19.4431678344425
0.00161919924194765,19.4476168858495
0.00183920763685768,19.4517362811877
0.00208954633145984,19.4555542467715
0.0023743156416408,19.4590970766706
0.00269819760141238,19.4623893129366
0.00306656349377685,19.4654539332446
0.00348561420553434,19.468312550828
0.00396256774794191,19.470985638494
0.00450591849374867,19.4734927952228
0.00512580957274564,19.4758530842097
0.00583111281522914,19.4780755050948
0.00661077458148358,19.4801212283884
0.00747448672762585,19.4820247081932
0.00843703921794203,19.4838207458248
0.00952147416159914,19.4855464173785
0.0107685867903727,19.4872496484632
0.0122996647039635,19.4890500536289
0.0145504397735784,19.4913141240237
0.0161586010138328,19.4927559881924
0.0178654560053061,19.4941978523611
0.0194267166415103,19.4954874995044
0.020816042272386,19.4966563286235
0.0220620167112654,19.4977694234555
0.0231653932929581,19.4988697173918
0.0241086725098193,19.4999957540699
0.0248557512992144,19.5011971495216
0.0253345473692637,19.5025663411443
0.02532878125239,19.5044145804392
0.0247546791809563,19.5060314850722
0.0237488707049322,19.5076483897052
0.0225971741486949,19.5090712442659
0.0213022771395938,19.5104675630953
0.0198688596348002,19.5119022431639
0.0183060643340386,19.5134143137197
0.0170982193184784,19.5145777300545
0.015918886663549,19.5157411463893
0.0147355707237674,19.5169724191899
0.012268890938605,19.5198075896742
0.0101042283469143,19.5227002019172
0.00840021305670402,19.5253596195932
0.00702833843560253,19.527845992265
0.00583279116489899,19.5303603530029
0.0047823460810587,19.5329367189057
0.00385693713455728,19.5355987804369
0.00304061249501373,19.5383697038266
0.00232000565090011,19.5412739941977
0.00169931732011478,19.5442555803607
0.00119574048994814,19.5471244369195
0.000770161748946454,19.5499726054832
0.000401019800099582,19.5528556217652
8.6012048647699e-05,19.5557025922832
-0.000174255706952498,19.5583856347177
-0.000390528051859972,19.560883624325
-0.000576063983640595,19.5632456758213
-0.000740896195110924,19.5655279675308
-0.000892788272372536,19.5677908463761
-0.00103972867243412,19.570126522903
-0.0011967331613761,19.5727754366217
-0.00131766501126593,19.5749149002464
-0.00143454258219537,19.5770543638711
-0.00153148126057985,19.5788741454942
-0.00161698644631624,19.5805072408675
-0.00169920257551672,19.5820972320942
-0.00178349372635291,19.5837426665167
-0.00187629955379791,19.5855669048744
-0.00199199790523852,19.587851914952
-0.00220707079824381,19.5921073273117
-0.00240422596696263,19.5960065287423
-0.00257342108951262,19.5993645801702
-0.00275282478086114,19.6029775263961
-0.0029732713158144,19.6076270127981
-0.00318612676170833,19.6127869374749
-0.0033206467061302,19.6174642711275
-0.00336195758673461,19.6213848983937
-0.00331916039894402,19.6249616928414
-0.00318244148267582,19.6284496856326
-0.00292336813060292,19.6320158060207
-0.00256631647619894,19.6352191008337
-0.00211695936457161,19.6381478295916
-0.00157496807149022,19.6408715525898
-0.000927549163179845,19.6434751332141
-0.000139296416088001,19.6460753917583
0.000890428149882596,19.6489067240055
0.00222502609549496,19.6520254028884
0.00369920103740983,19.6550676824692
0.0052946190682903,19.6580805714561
0.00652751551216871,19.6602491901655
0.00785426555078748,19.662417808875
0.00918996269178834,19.6644113666967
0.0104963856792956,19.6661677595946
0.0119088611085695,19.6678598561977
0.0134279754500631,19.6694631879521
0.0151133729252495,19.6710175593439
0.0169799297899367,19.6725120014429
0.019065963892345,19.6739559560101
0.021392057804485,19.6753442845962
0.023993465277581,19.6766812377798
0.0269038840199416,19.67796834281
0.030159726216944,19.6792071782957
0.0338023925614371,19.6803999440584
0.0378847582664664,19.6815507310309
0.0424654907424809,19.6826628209506
0.0476134804697763,19.6837396647528
0.0534092444827285,19.6847846884791
0.0599511710192359,19.6858018813591
0.0673568950181551,19.6867952522171
0.0757701994507428,19.6877691327071
0.0853696623109627,19.6887283368285
0.0963815738044526,19.6896784091176
0.109100407345931,19.6906260402466
0.123921268700953,19.6915796600755
0.141398520913501,19.6925506256335
0.162152757837197,19.6935463103179
0.186199316523306,19.6945458803316
0.214185871488719,19.6955605487118
0.24699303270745,19.6966064425174
0.285950902856243,19.6977104267564
0.330487159384286,19.6988545010045
0.369785308864195,19.6998067300661
0.402853969458252,19.7005986875868
0.431594932453685,19.7013076600611
0.456696508508869,19.7019735583938
0.478213130968975,19.7026216981509
0.495800585347443,19.7032736756084
0.508662876706204,19.7039535056523
0.515211365726357,19.7046960528789
0.51246047665934,19.705511139764
0.498447488141734,19.706344159074
0.471868432260339,19.7072104911998
0.431064706351703,19.7081213027069
0.374210751332694,19.7090855542626
0.331425983783171,19.7096986686763
0.284379934567775,19.71031178309
0.242280788512394,19.7108297767333
0.20592283142096,19.7112673340175
0.173819306140708,19.711655027662
0.144973748265309,19.7120115193121
0.11877086177905,19.7123485322237
0.0947794242216008,19.7126747029611
0.0726411687661139,19.7129978311009
0.0519750449054734,19.7133271965108
0.0321728656964701,19.7136791495099
0.0112121321215009,19.7141101614773
0.0014186614185017,19.7143418044469
-0.00739129548454093,19.7145734474165
-0.013863122762652,19.7147617912353
-0.0197964598462632,19.7149517746537
-0.0257353628178305,19.715163079635
-0.0314459752036213,19.7153922742707
-0.0367797460447652,19.7156373003222
-0.0416548779040708,19.7158974774554
-0.0460293741979133,19.7161730411493
-0.0498836585235495,19.7164648876534
-0.0534569082292054,19.7168013195574
-0.0561807350710706,19.7171296812003
-0.058392060070645,19.7174797501121
-0.0601079783004382,19.7178549656143
-0.0613427145801643,19.7182591001103
-0.0621095877606195,19.7186968116633
-0.0624195285770572,19.7191739170863
-0.0622793878718387,19.7196977960741
-0.0616893269361785,19.7202783478695
-0.0606374092638948,19.7209297583483
-0.0590958159032803,19.7216709073008
-0.0570083886359659,19.7225307348458
-0.0542569118728246,19.7235603952481
-0.0505244264283741,19.7248822856983
-0.0465274361595585,19.7262674582564
-0.0426756116794989,19.7276074639695
-0.0390120773039898,19.7289064709292
-0.0355575636416737,19.7301666138557
-0.0323222806893444,19.7313886804448
-0.029310065624506,19.7325727750564
-0.0265203342596417,19.7337186730616
-0.0239491932593466,19.7348260069718
-0.0215902027600676,19.7358943613727
-0.0194349790056711,19.7369233160996
-0.0174737098382644,19.7379124583225
-0.0156956091500125,19.7388613747255
-0.014089318237348,19.7397696298897
-0.0125456395763212,19.7406972001654
-0.0110633304727722,19.7416487253816
-0.00964648609157441,19.7426260994147
-0.00829898817302066,19.7436315646842
-0.00702450231457334,19.7446677630187
-0.0058264276448586,19.7457378363855
-0.00470784461451483,19.7468455605274
-0.00367146067284902,19.7479955264407
-0.00271955368464053,19.7491933929711
-0.00185391249546993,19.750446248747
-0.00107577328861386,19.75176314905
-0.000385749003516283,19.7531559464181
0.000216253520718226,19.7546406448262
0.000731139620097997,19.7562397611275
0.0011392843976165,19.7578859683499
0.00145473711302259,19.7595868436332
0.00169276470097036,19.761361042499
0.00186745776531596,19.7632324646437
0.00199215716198987,19.7652337772963
0.00207992909448865,19.7674128048267
0.00214433233825895,19.7698466244594
0.00220111396255722,19.7726798082534
0.00227424550169849,19.7762775414118
0.00237060092636494,19.7800692188901
0.00249942294627495,19.7840775062162
0.00264496475026074,19.7879100128997
0.00280322502190601,19.7916715120617
0.00297141751693159,19.7954307471392
0.00314812099459105,19.7992351162306
0.00333321962675216,19.8031219344113
0.00352770124054623,19.8071237435204
0.00373344415810827,19.8112711440301
0.00395304345429625,19.8155946921018
0.00418969970656522,19.8201262561264
0.00444723326076753,19.8249004063911
0.00473029203262162,19.829955851549
0.00504483282808827,19.8353366926114
0.00537793452553109,19.8407562808377
0.00572315127531089,19.846066489095
0.00608468856094024,19.851293100689
0.00646483041887482,19.8564244389856
0.00686779313477681,19.8614723377357
0.00729791287876815,19.8664443673207
0.00775995404127678,19.8713475902255
0.00825899385703339,19.8761862823065
0.00880052992056415,19.8809624187146
0.00939056528671589,19.8856758642499
0.0100357248296104,19.8903249152584
0.0107465570484796,19.8949265083934
0.0115470209237066,19.8995577645754
0.0124522650850177,19.9042110121381
0.0134855835092641,19.9089034264865
0.0146802137489448,19.9136702531254
0.0160923823177727,19.9185971337775
0.0178457325913154,19.9239202784371
0.0203146673930671,19.9304092757575
0.0219509843319445,19.9343139898825
0.0236463327892939,19.9382187040074
0.0251272921812687,19.9416715355451
0.026377651412913,19.9447896488694
0.0274208811309857,19.9477611125971
0.0282202114598196,19.9506103735982
0.0287522744694597,19.9533611755239
0.0290115623194256,19.9561339977733
0.0289588592257835,19.9590960935429
0.0284479061370225,19.9626632541022
0.0276492642348598,19.9657440371441
0.0265752299547399,19.9688248201859
0.0254962111478302,19.9714358325949
0.0244267178256854,19.9737871256172
0.0233562268556985,19.9760094419081
0.0222845438547614,19.9781611241874
0.0212147689992574,19.9802739281009
0.0201506193490856,19.9823683347803
0.0190957470640034,19.9844590300786
0.0180535620860915,19.9865573475467
0.0170271906364079,19.9886725495397
0.0160194730604267,19.9908125796393
0.0150329762894165,19.9929845371033
0.0140700057604115,19.9951950072867
0.0131326183339421,19.9974503024256
0.0126234781084903,19.9987251512128
0.0121295082644792,20
