ecg,time
0.000236535949798306,15.0035806999457
0.000258933592383466,15.0135806999457
0.000284959040369255,15.0235806999457
0.000315468727535048,15.0335806999457
0.000351600201817528,15.0435806999457
0.000394893109022669,15.0535806999457
0.000447476681507931,15.0635806999457
0.000508341447346946,15.0730121235167
0.000577426055430481,15.081720502742
0.000655738548064966,15.0897547173453
0.000744505090841772,15.0971675832935
0.000845132286409346,15.1040083219219
0.000959217288149636,15.11032257767
0.00108856968478166,15.1161527013924
0.00123523894379493,15.1215380016249
0.00140154754526616,15.1265149533971
0.00159012647326028,15.1311174088972
0.00180396055177234,15.1353768074813
0.00204643882938267,15.1393223768522
0.00232141840304567,15.1429813089942
0.00263329995386908,15.1463789401545
0.00298712487196989,15.1495389448399
0.00338870084653218,15.152483533784
0.00384476444705913,15.1552336618782
0.00436320554773827,15.1578092763721
0.00495338335653283,15.1602296208302
0.00562658884252233,15.1625136300799
0.0063773086711783,15.1646304481416
0.00720700962078369,15.1665898295013
0.00812796751740287,15.1684262173019
0.00915881810949243,15.1701748330065
0.0103304091205382,15.1718768151399
0.011703656287316,15.1735946673895
0.0135246808353228,15.1755548196422
0.0152936075190662,15.1772286543078
0.0172293008962186,15.1789024889733
0.018929204692699,15.1803051781048
0.0204031577511648,15.1815201185815
0.0217215273743735,15.1826510669486
0.0228993969840876,15.1837508343501
0.0239272808994697,15.1848581320637
0.0247786903967069,15.1860151843226
0.0254026061999571,15.1872877902108
0.0256815985498152,15.1888344738665
0.0253502400691614,15.1906601040663
0.0244051374614074,15.1924857342662
0.0232986371635096,15.1939618563888
0.0220580199840124,15.1953575710698
0.020677126997296,15.1967732563743
0.019164087430269,15.1982536763858
0.0175262618522793,15.1998364806599
0.0157914908903383,15.2015683181934
0.0144961299560296,15.2029561182805
0.0126468158640113,15.2051222608053
0.011025584382141,15.2072514528979
0.00958314450727895,15.2093860169425
0.00825055191820116,15.211625491511
0.00697038499502768,15.2141036082297
0.00608915387338054,15.2160593833648
0.0053094404509925,15.2180151585
0.0047171143832617,15.2196819564213
0.00422637088794489,15.2212117220072
0.0037865043273958,15.2227241608659
0.00336860303249143,15.2243130686079
0.0029445255937883,15.2261137994661
0.00245557002658771,15.228494551096
0.00191505445250987,15.2316538828721
0.00151371530147827,15.2345283832322
0.00119487300597153,15.2372999424051
0.000901711915747427,15.2404371974189
0.000610853751298837,15.2444958751508
0.000383391945715364,15.2490153183729
0.000230323155716803,15.2540543753018
0.000176208463461578,15.2588108424955
0.000206759236413153,15.2630807312646
0.000309960672496392,15.2669245230277
0.000480387261606688,15.2703852609412
0.000716423549094102,15.2735107525312
0.001019273042538,15.2763504972864
0.00139290120932133,15.2789547406891
0.00184498867190224,15.2813757847936
0.00238874046420184,15.2836689213866
0.0030477712603877,15.2859003205064
0.00386301956121218,15.2881506568446
0.00492344028513315,15.290562564
0.00639938023470098,15.2933411451823
0.00822045467471227,15.2962069654569
0.00965364286654601,15.2981584672697
0.0112774982997393,15.3001099690825
0.012916240973053,15.3018363859479
0.0146521620763022,15.3034352062184
0.0165059072482826,15.3049209120245
0.0185484147909287,15.3063392535329
0.020810394455316,15.3076944938805
0.0233387833461293,15.3089977611318
0.0261694626571445,15.3102506534638
0.029350291456853,15.3114584327177
0.0329206155295579,15.3126211034509
0.0369382734411455,15.3137434480189
0.0414619619418212,15.3148279728948
0.0465581827445716,15.3158771852013
0.0523044520516484,15.316893881577
0.0587968318395689,15.3178818120078
0.066146693940715,15.3188443657528
0.0744880201311251,15.3197851588372
0.0839823618483732,15.3207079558733
0.0948323001808134,15.3216172230737
0.107290240628029,15.3225178325138
0.12167835127996,15.3234154349639
0.138417688945186,15.3243168469677
0.158075600760607,15.3252306963989
0.181452430845104,15.326168736171
0.208560726291064,15.3271099855612
0.239998883854875,15.3280600339652
0.276641443220222,15.3290310892198
0.319787526713563,15.3300445777536
0.359030565410878,15.3308852823427
0.400543601491701,15.3317259869319
0.43668537253509,15.332445145313
0.467976273116836,15.3330833043471
0.495431448875078,15.333682604651
0.519260766599975,15.3342697472961
0.539161484765669,15.3348677818023
0.554285747131384,15.3355049468446
0.562707369674131,15.3362310717436
0.560672557531255,15.3370021657771
0.546591839451083,15.3378034463802
0.51892055846284,15.3386540642032
0.475491492946901,15.3395689470149
0.417405950067773,15.3405049695836
0.367328349940782,15.3411840486736
0.311530968247036,15.3418631277636
0.262841044818207,15.3424176481607
0.222051235010335,15.3428700615268
0.186729526624123,15.3432622736395
0.155357073832608,15.3436181875409
0.127071466422689,15.343951660919
0.101312007996502,15.3442722181162
0.0776457670492813,15.3445879190014
0.0556507209166008,15.3449077090903
0.03472369330258,15.345246129671
0.0131648504933159,15.3456468944072
0.000415927867843418,15.3459208037124
-0.0071331102882637,15.3461011721692
-0.0140402544051989,15.346281540626
-0.0200576589240491,15.3464535767432
-0.0262002834894667,15.3466472143259
-0.0322249254304813,15.3468598150946
-0.0379313112564277,15.3470885723696
-0.0432052219846607,15.3473322606498
-0.0479851698646688,15.3475907201886
-0.0522413501697137,15.347864529018
-0.0559633207650578,15.348154836827
-0.0591525233340647,15.3484632972787
-0.0619769588144117,15.3488166783017
-0.0640512607901096,15.349167273259
-0.0656233898439865,15.3495438146579
-0.0667102955339017,15.349950751745
-0.0673250635870163,15.3503932285207
-0.0674774550643382,15.350877733489
-0.0671719124377183,15.3514126182726
-0.0664034829766865,15.3520097383566
-0.0651524275116771,15.3526853787395
-0.0633768499259433,15.3534628898948
-0.0609908671668867,15.3543806775705
-0.0577938069540921,15.3555167334989
-0.0536027476890167,15.3569456025314
-0.0495114450083825,15.3583244476885
-0.0455819382084026,15.3596620595182
-0.0418474532430961,15.3609614017407
-0.0383255341361991,15.3622235993035
-0.0350251888102999,15.3634488502682
-0.0319498867520429,15.3646369030335
-0.0290990413419126,15.3657873083559
-0.0264689059207789,15.366899551157
-0.024053231262657,15.3679731159336
-0.0218438153802439,15.3690075134897
-0.0198309935158815,15.3700022836909
-0.0180040820440546,15.3709569822987
-0.0163517778222734,15.3718711563461
-0.0147788525564929,15.3727949399534
-0.0132661567609389,15.3737425175522
-0.0118179276162988,15.374715652699
-0.0104380451161977,15.3757165321845
-0.00913017782827449,15.3767477290247
-0.00789773015921042,15.3778122997268
-0.00674378852469674,15.378913912054
-0.00567106485652199,15.3800570179877
-0.00468183706961869,15.3812470935499
-0.00377788551318687,15.3824909808522
-0.002960423396505,15.3837973926427
-0.00223001731584215,15.3851776875405
-0.00158649033470053,15.3866471230085
-0.0010287921429513,15.3882270156834
-0.000574705153138853,15.3898663197557
-0.000215730120732234,15.3915573648773
6.39527219446461e-05,15.3933186034186
0.000278830195858052,15.3951729057274
0.000442652000211017,15.3971512679102
0.000568930317044589,15.3992985273052
0.000671752383242077,15.4016856989495
0.000767542238906797,15.4044421397565
0.000880935578006577,15.4078741800297
0.00101772811199383,15.4116378560107
0.00119064749530932,15.4157710312748
0.00139152514209733,15.4200606919531
0.00161561665374905,15.4245369412538
0.00187751292620809,15.4296199789151
0.00213152375531149,15.4345198428834
0.0023880828412904,15.439494098893
0.00261289906783993,15.4438648679378
0.00281786585923918,15.4478459736367
0.00301585240453786,15.4516686145544
0.00321328078135845,15.4554386012917
0.00341436847701808,15.4592183620702
0.00362250136121806,15.4630524575598
0.0038407709663415,15.4669768779534
0.00407225050706519,15.4710232904795
0.00432021017532163,15.4752219528132
0.00458828136226012,15.479603303101
0.00488065055679852,15.4841992567937
0.00520235846209205,15.4890445343125
0.00555979164988958,15.4941779151013
0.00594426880042475,15.499412970645
0.00634371084309001,15.5045429913582
0.00676450196519518,15.5096154978006
0.0072082717613783,15.5146059833658
0.00767989400752353,15.5195232972604
0.00818444194507469,15.5243709641267
0.00872784597689889,15.5291542789861
0.00931654430821172,15.5338760243671
0.00995757358152417,15.538536987361
0.0106617412754045,15.543155663071
0.0114528298780533,15.5478096507085
0.0123459380498219,15.5524922768717
0.0133642148389735,15.5572218092961
0.0145405133249098,15.5620342674926
0.0159301267219689,15.5670160854044
0.0176539556032309,15.572404834188
0.0200758512736381,15.5789729653932
0.0216890952685579,15.5829508470596
0.0233588567523724,15.5869287287261
0.024813562642762,15.5904417406737
0.02603916532277,15.5936134888987
0.0270588533057426,15.5966360765298
0.0278381841649369,15.5995424251374
0.0283508993349548,15.6023489504272
0.028590815172805,15.6051791318101
0.0285175042934432,15.6082058977969
0.0279793138296972,15.6118653152929
0.0271668647115675,15.6149912283968
0.0260853893288133,15.6181171415007
0.0250012007205919,15.6207746789013
0.023927326840998,15.6231734164721
0.0228534683298617,15.6254434405032
0.0217794704268848,15.6276433056483
0.0207084059440357,15.6298051317559
0.0196439711841262,15.6319497382683
0.0185898128016354,15.6340921107435
0.0175493491106955,15.6362438503149
0.0165257222694938,15.6384144692538
0.0155217963203288,15.6406121430799
0.0145401640217148,15.6428441957132
0.0135831583294696,15.6451174291506
0.0126528860293174,15.647438359619
0.0117512369044229,15.6498134171733
0.0108798239755479,15.6522491007527
0.0100400393833999,15.6547521111868
0.00923306133530985,15.6573295073034
0.00845492822755387,15.6600064952074
0.00768936947376117,15.662862133799
0.00694020862769471,15.6659166850256
0.00621123183443519,15.6691944895522
0.00550643629370312,15.6727236540426
0.00482999358448764,15.6765367430617
0.0041861790691034,15.6806716974338
0.00357925542545748,15.6851731609573
0.00301328490521458,15.690094722286
0.00249187237289268,15.695502927664
0.00201788757034989,15.7014843292286
0.00159337810854603,15.7081552239881
0.00123288173504246,15.7153728654516
0.000932741551209701,15.7231909178484
0.000691133002317816,15.7317412857434
0.000524503054564439,15.7402538314079
0.000397130334577454,15.7493415041741
0.000297406014440776,15.7593415041741
0.000228015639664,15.7693415041741
0.000180240230369698,15.7793415041741
0.000147873274526446,15.7893415041741
0.000126361551072378,15.7993415041741
0.000112429597669815,15.8093415041741
0.000103794053344943,15.8193415041741
9.8898165460811e-05,15.8293415041741
9.66894527054117e-05,15.8393415041741
9.64564855534079e-05,15.8493415041741
9.77191061377454e-05,15.8593415041741
0.00010015705363622,15.8693415041741
0.000103563127206081,15.8793415041741
0.00010781163995087,15.8893415041741
0.000112836850854295,15.8993415041741
0.00011861837315878,15.9093415041741
0.000125171705245778,15.9193415041741
0.000132542622887438,15.9293415041741
0.000140804563657441,15.9393415041741
0.000150058456398329,15.9493415041741
0.000160434733122994,15.9593415041741
0.000172097520782194,15.9693415041741
0.000185251268478089,15.9793415041741
0.000200150357844371,15.9893415041741
0.000217112620918343,15.9993415041741
0.000236538223724655,16.0093415041741
0.000258936178642626,16.0193415041741
0.00028496201412263,16.0293415041741
0.000315472188064994,16.0393415041741
0.000351604282639271,16.0493415041741
0.000394897993374521,16.0593415041741
0.000447482626764607,16.0693415041741
0.000508348149702517,16.0787728452484
0.000577433588393563,16.0874811454341
0.000655747019502608,16.0955152873025
0.000744514627270181,16.1029280864405
0.000845143032440417,16.1097687637212
0.000959229407987909,16.1160829631602
0.00108858336455834,16.1219130352243
0.00123525439449151,16.1272982880921
0.00140156500603378,16.132275196463
0.00159014621519165,16.1368776122218
0.00180398288250121,16.1411369744478
0.00204646409854747,16.145082510589
0.00232144700851086,16.1487414123962
0.00263333235011624,16.1521390159045
0.00298716158012408,16.1552989954311
0.00338874246767482,16.1582435615412
0.00384481168002614,16.160993668981
0.00436325921332077,16.1635692648827
0.00495344443243531,16.1659895927251
0.00562665851560767,16.1682735872932
0.00637738553259173,16.1703903861266
0.00720709456282956,16.1723497516057
0.00812806190030698,16.1741861268514
0.00915892402358553,16.1759347334374
0.0103305302050686,16.1776367107201
0.0117038063406876,16.1793545723297
0.0135248926620099,16.1813147591578
0.0152937602484893,16.1829885166326
0.0172293766422361,16.1846622741075
0.01892926617459,16.1860649468435
0.020403216624271,16.187279882467
0.0217215849201831,16.1884108282474
0.0228994530975441,16.1895105941453
0.0239273350343552,16.190617891301
0.0247787415541233,16.191774944193
0.0254026525023161,16.1930475528849
0.0256816349626781,16.1945942461128
0.0253502634121168,16.1964198673884
0.0244051546926089,16.198245488664
0.0232986513125444,16.19972160663
0.0220580305439344,16.2011173201901
0.0206771337207091,16.2025330055976
0.0191640901179486,16.2040134265736
0.0175262601958994,16.2055962327448
0.0157914852555137,16.2073280734781
0.0144960910295815,16.2087159103163
0.0126467667546904,16.2108820697103
0.0110255340045425,16.2130112702134
0.00958310432614656,16.2151458263582
0.00825054090448602,16.2173852563427
0.00697037560686452,16.2198633714307
0.00608908493027447,16.2218192882667
0.00530932581091589,16.2237752051026
0.00471699534695694,16.2254420487429
0.00422625853701438,16.2269718271851
0.00378640271041734,16.2284842630831
0.00336851562548726,16.2300731514123
0.00294445828227847,16.2318738321537
0.00245554328541433,16.2342544159153
0.00191503071174386,16.2374137509111
0.00151368456724916,16.2402883262441
0.00119484620710495,16.2430598806906
0.000901694201419981,16.2461970609727
0.000610849186296079,16.2502555365832
0.000383383785511576,16.2547749613571
0.000230309171695993,16.259814004433
0.000176186429675293,16.2645705455033
0.000206729876303151,16.2688404937701
0.000309924058910958,16.2726843406998
0.00048034322559901,16.2761451276758
0.000716371754956075,16.279270662017
0.00101921297206705,16.2821104430469
0.00139283197797623,16.2847147154928
0.00184490876772588,16.2871357806792
0.0023886472212781,16.2894289290073
0.00304766027975326,16.2916603292915
0.00386288240761962,16.2939106510267
0.00492325551032082,16.2963225092553
0.0063991522310742,16.2991010709141
0.0082201829119473,16.3019668773042
0.00965338140264501,16.3039184267432
0.011277251433201,16.3058699761822
0.0129159997110612,16.3075964243302
0.0146519149835714,16.3091952629993
0.0165056473736292,16.3106809815253
0.0185481339281933,16.3120993313939
0.0208100882845243,16.3134545793942
0.0233384449597921,16.3147578526572
0.0261690881053421,16.316010751209
0.02934987519341,16.3172185363139
0.0329201509673944,16.3183812123463
0.0369377544348979,16.3195035620794
0.0414613808260465,16.3205880917667
0.0465575279974505,16.3216373079829
0.0523037157142836,16.322654008394
0.0587960019766237,16.3236419424942
0.0661457562376289,16.3246044995082
0.0744869573741993,16.3255452954376
0.0839811522907092,16.3264680947873
0.094830918350451,16.3273773638528
0.107288654055035,16.3282779746048
0.121676518478537,16.3291755777271
0.138415555659713,16.3300769896349
0.158073092837753,16.330990837957
0.181449444031389,16.331928875276
0.208557272234579,16.3328701249848
0.239994877038782,16.3338201727322
0.276636767917442,16.3347912257937
0.319781996662114,16.3358047090219
0.359025869921286,16.3366454406129
0.40053999742227,16.3374861722039
0.43668226954489,16.3382053419161
0.467973481406191,16.3388435063982
0.495428922176486,16.3394428094266
0.519258510425403,16.3400299528467
0.539159542256232,16.3406279861152
0.554284217114391,16.3412651470066
0.562706493811134,16.3419912615038
0.560672644368013,16.3427623544012
0.546593000421938,16.3435636319937
0.518922963358794,16.344414245146
0.475495364296987,16.3453291220116
0.417410984103964,16.3462651447184
0.36733287637731,16.3469442400855
0.311534607871759,16.3476233354526
0.262843993120407,16.3481778659792
0.222053751762722,16.3486302848777
0.186731752448984,16.3490225002273
0.155359080789873,16.3493784161578
0.127073297497053,16.3497118908042
0.101313693703374,16.3500324486881
0.0776473339057958,16.3503481497012
0.0556521999671005,16.3506679391865
0.0347251427454623,16.3510063576858
0.0131665201425911,16.3514071138923
0.000415904136814516,16.3516810577351
-0.00713312596724799,16.3518614262042
-0.014040262778868,16.3520417946733
-0.020057662685232,16.3522138308527
-0.0262002853888588,16.3524074686031
-0.0322249244119029,16.3526200695326
-0.0379313066824167,16.3528488269648
-0.043205213552934,16.3530925154037
-0.047985157478131,16.3533509751064
-0.0522413338555497,16.3536247841079
-0.0559633006251007,16.3539150920998
-0.059152499284596,16.3542235527479
-0.0619769315186533,16.3545769341486
-0.064051229581844,16.3549275293575
-0.0656233549055419,16.3553040710324
-0.0667102570404609,16.3557110084267
-0.0673250216916642,16.3561534855475
-0.0674774098894575,16.3566379909075
-0.0671718640648672,16.357172876141
-0.0664034314127846,16.3577699967609
-0.0651523726788283,16.3584456377869
-0.0633767916081781,16.3592231497422
-0.0609908048609023,16.3601409384813
-0.0577937392763021,16.3612769960597
-0.0536026813615046,16.3627058646397
-0.0495113805413877,16.3640847094265
-0.045581875951382,16.3654223208869
-0.0418473933965916,16.3667216627331
-0.0383254768176076,16.3679838599093
-0.0350251340796093,16.369209110476
-0.0319498346243244,16.3703971628324
-0.0290989917950226,16.371547567736
-0.02646885890154,16.3726598101094
-0.0240531866925772,16.3737333744504
-0.0218437731608312,16.3747677715642
-0.0198309535337556,16.3757625413168
-0.0180040441756855,16.3767172394703
-0.0163517419383016,16.3776314130574
-0.0147788173817331,16.3785551969276
-0.0132661223573867,16.3795027748023
-0.0118178940333849,16.3804759102474
-0.010438012401469,16.3814767900575
-0.00913014602676208,16.3825079872533
-0.00789769931288016,16.3835725583482
-0.0067437586718697,16.384674171113
-0.00567103603128175,16.3858172775391
-0.00468180930121059,16.3870073536615
-0.00377785882537947,16.3882512416096
-0.00296039780691441,16.3895576541561
-0.00222999283517091,16.3909379499553
-0.00158646696581662,16.3924073865234
-0.00102876987962217,16.3939872805822
-0.000574684231245079,16.3956265851298
-0.00021571034852351,16.3973176309406
6.39715093543789e-05,16.3990788703962
0.000278848151795087,16.4009331739169
0.000442669270620724,16.4029115377262
0.000568947046701752,16.40505879937
0.000671768727002059,16.4074459743021
0.00076755839046822,16.4102024204599
0.000880951893632595,16.4136344719098
0.00101774445649077,16.4173981495592
0.00119066416088247,16.4215313315098
0.00139154197183226,16.4258209951632
0.00161563465487888,16.4302972681548
0.0018775296695899,16.4353802821827
0.00213154019796141,16.4402801412703
0.00238809995899807,16.4452544101579
0.00261291439425678,16.4496251421321
0.00281788054694834,16.4536062324858
0.00301586697625804,16.4574288673686
0.00321329553999689,16.4611988529973
0.00341438364866817,16.4649786159224
0.00362251714570224,16.4688127160597
0.00384078755923555,16.4727371432175
0.00407226811412198,16.4767835644557
0.00432022902364456,16.4809822374153
0.00458830171105391,16.4853636002968
0.00488067271235001,16.4899595686837
0.00520238280315229,16.4948048632219
0.00555981866777416,16.499938263638
0.00594429654712545,16.5051733077325
0.00634374015264653,16.5103033261879
0.00676453276346988,16.5153758263649
0.00720830440060243,16.5203663067272
0.00767992880375282,16.5252836154844
0.0081844792931063,16.5301312776434
0.00872788630576477,16.53491458804
0.00931658808981236,16.5396363290751
0.00995762133321269,16.544297287707
0.0106617947311368,16.5489159660741
0.0114528899280848,16.5535699553384
0.0123460061233896,16.5582525841232
0.0133642928345268,16.562982120798
0.014540604160985,16.5677945870875
0.0159302357751693,16.5727764225408
0.017654096756002,16.5781652179746
0.0200759941275564,16.5847332995498
0.0216892197555755,16.5887111180984
0.0233589562403186,16.5926889366471
0.0248136450690141,16.5962019162756
0.0260392346423955,16.5993736500294
0.0270589099061551,16.602396232995
0.0278382240823552,16.6053025717805
0.0283509228512005,16.6081090944908
0.0285908211262021,16.610939281734
0.0285174883501198,16.6139660679931
0.0279792568738134,16.6176255579329
0.0271667995035101,16.6207514135268
0.0260853298211874,16.6238772691206
0.0250011435704879,16.6265347834625
0.0239272699494769,16.6289335114461
0.0228534113883664,16.6312035305351
0.0217794135460948,16.6334033929449
0.0207083493136024,16.6355652176512
0.0196439150019363,16.6377098236824
0.0185897572561485,16.6398521963666
0.0175492943764181,16.6420039366984
0.0165256685060742,16.6441745568612
0.0155217436726477,16.6463722323185
0.0145401126208498,16.6486042869541
0.0135831082928724,16.6508775227444
0.0126528374632752,16.6531984559063
0.0117511899016714,16.6555735164935
0.0108797786160041,16.6580092034533
0.0100399957359774,16.6605122176286
0.00923301945770158,16.6630896178696
0.00845488692546197,16.665766614825
0.00768932894927585,16.6686222634671
0.00694016907736735,16.6716768259573
0.00621119346715308,16.6749546431442
0.00550639932877281,16.6784838219107
0.00482995824881453,16.6822969270833
0.00418614559267999,16.6864318998037
0.00357922403344696,16.6909333842765
0.00301325580567584,16.6958549697207
0.00249184574091789,16.7012632032378
0.00201786353714192,16.7072446382772
0.00159335676465688,16.7139155737246
0.00123286384982347,16.72113324509
0.000932726766658811,16.7289513334015
0.000691121660602769,16.7375017454021
0.000524485790977323,16.7460148244712
0.000397119287236628,16.7551023951961
0.000297398362369607,16.7651023951961
0.000228010359844661,16.7751023951961
0.000180236625656966,16.7851023951961
0.000147870849545402,16.7951023951961
0.000126359952721364,16.8051023951961
0.000112428578405862,16.8151023951961
0.000103793442684922,16.8251023951961
9.88978472433158e-05,16.8351023951961
9.66893481171423e-05,16.8451023951961
9.64565413046912e-05,16.8551023951961
9.77192865465421e-05,16.8651023951961
0.000100157335370253,16.8751023951961
0.000103563495751033,16.8851023951961
0.000107812087211717,16.8951023951961
0.000112837373532795,16.9051023951961
0.000118618971686128,16.9151023951961
0.000125172383125126,16.9251023951961
0.000132543386348318,16.9351023951961
0.000140805421558956,16.9451023951961
0.000150059420346672,16.9551023951961
0.000160435817793944,16.9651023951961
0.000172098744463115,16.9751023951961
0.000185252653869675,16.9851023951961
0.000200151933193967,16.9951023951961
0.000217114421599902,17.0051023951961
0.000236540294443951,17.0151023951961
0.000258938576544367,17.0251023951961
0.000284964813232867,17.0351023951962
0.000315475485760713,17.0451023951962
0.000351608209276853,17.0551023951962
0.000394902726981238,17.0651023951962
0.000447488416103187,17.0751023951962
0.000508354746724593,17.0845336634729
0.000577441076354085,17.093241893651
0.000655755514049795,17.1012759708667
0.000744524263095272,17.1086887104259
0.000845153963146186,17.1155293328388
0.000959241807786777,17.1218434817842
0.00108859743076795,17.1276735074186
0.00123527035062459,17.1330587176317
0.00140158310534859,17.1380355868543
0.00159016674472766,17.1426379667232
0.00180400616803947,17.1468972960899
0.00204649051051115,17.1508428021934
0.00232147696881853,17.1545016765922
0.00263336634128404,17.1578992551481
0.00298720015631253,17.1610592120247
0.00338878626938525,17.1640037576534
0.00384486145376791,17.1667538466694
0.00436331583856421,17.169329426122
0.00495350896068341,17.1717497394418
0.00562673222904607,17.1740337214139
0.00637746695691107,17.1761505026492
0.0072071847120739,17.1781098540223
0.00812816233492527,17.179946218731
0.00915903717395079,17.1816948186104
0.010330660358875,17.1833967941647
0.0117039691977614,17.1851146702654
0.0135251272990718,17.1870749027147
0.0152939197592141,17.188748569377
0.017229438947291,17.1904222360393
0.0189293077273787,17.1918248912192
0.0204032519468811,17.193039822956
0.0217216157857405,17.1941707674192
0.0228994795495058,17.1952705332078
0.0239273565810041,17.1963778313369
0.0247787571841651,17.1975348866096
0.0254026602136238,17.1988075002793
0.0256816291697292,17.2003542065114
0.0253502413926709,17.2021798191635
0.0244051258219302,17.2040054318156
0.0232986196394105,17.2054815464511
0.0220579959370432,17.2068772599277
0.0206770963723615,17.2082929464498
0.0191640502922128,17.2097733693231
0.0175262180631114,17.2113561782217
0.0157914421998091,17.2130880228547
0.014496002734994,17.2144759130502
0.0126466907959277,17.2166420688666
0.0110254676826995,17.2187712676998
0.00958304376889125,17.2209058268738
0.00825048033968727,17.2231452704921
0.00697032262999689,17.2256233875789
0.00608905527388204,17.2275792638125
0.00530931485807453,17.2295351400461
0.00471698980917525,17.2312019710239
0.004226254537208,17.232731746269
0.00378639874922441,17.2342441835343
0.00336851056617069,17.2358330780152
0.00294445049129345,17.2376337738624
0.00245552735313039,17.2400144069255
0.00191501693499171,17.2431737483801
0.00151367538483465,17.2460483077294
0.00119483810717105,17.2488198686259
0.000901685602843289,17.2519570769154
0.000610839073823033,17.2560156202982
0.000383376665874966,17.2605350665865
0.000230305851949502,17.2655741343523
0.000176187862240774,17.2703306432728
0.000206735206600938,17.274600567501
0.000309932945649348,17.2784443921098
0.000480355549587611,17.2819051593606
0.000716387552487228,17.285030676734
0.00101923240725318,17.2878704435223
0.0013928553692225,17.2904747045013
0.0018449366825476,17.2928957612139
0.00238868065691697,17.2951889044947
0.00304770094372328,17.2974203037464
0.0038629334530587,17.2996706300557
0.00492332424917245,17.3020825037392
0.00639923820939771,17.3048610714961
0.0082202863552358,17.3077268807159
0.00965348270093916,17.3096784113742
0.0112773495395177,17.3116299420325
0.0129160985318722,17.3133563779251
0.0146520192111288,17.3149552092836
0.0165057599791333,17.3164409227027
0.0185482581442179,17.3178592689545
0.0208102260639287,17.3192145136078
0.0233385992257003,17.3205177841236
0.026169260729595,17.3217706798589
0.0293500687250277,17.3229784623069
0.0329203684201405,17.3241411359216
0.0369379987589835,17.3252634833223
0.0414616556598951,17.3263480108494
0.0465578385285873,17.3273972252784
0.0523040660523501,17.3284139239098
0.0587963979152167,17.329401856417
0.0661462047434879,17.3303644120407
0.0744874668664177,17.3313052067962
0.0839817333689381,17.3322280052356
0.0948315836559546,17.3331372736323
0.107289419768388,17.3340378840111
0.12167740546142,17.3349354871094
0.138416591505231,17.3358368994219
0.158074315718274,17.3367507487224
0.181450908662831,17.3376887878058
0.208558967880798,17.3386300377263
0.239996847118754,17.3395800862468
0.276639071978345,17.3405511409602
0.319784731796108,17.3415646275796
0.359028149974134,17.3424053455004
0.400541685766776,17.3432460634213
0.436683681550697,17.3439652276821
0.467974718750305,17.3446033897489
0.495430009539631,17.3452026917397
0.519259444962914,17.3457898350982
0.539160301468267,17.3463878693096
0.554284749913436,17.3470250325925
0.562706677039363,17.3477511525623
0.560672325491839,17.3485222463039
0.546592125856819,17.3493235256427
0.518921450712874,17.3501741413086
0.475493107143637,17.3510890212251
0.417408101142252,17.3520250444376
0.367330304294995,17.3527041308633
0.311532554298764,17.353383217289
0.26284233999977,17.3539377422947
0.222052348988582,17.3543901582141
0.186730519022961,17.3547823718458
0.155357975041759,17.3551382867175
0.127072294493294,17.3554717607179
0.101312775796365,17.3557923182697
0.0776464859756156,17.3561080192509
0.0556514047858493,17.3564278090957
0.0347243689700649,17.356766228742
0.0131656353889619,17.3571669895226
0.000415920615940521,17.3574409150877
-0.0071331126742519,17.3576212835952
-0.0140402523147423,17.3578016521026
-0.0200576536877357,17.3579736882912
-0.0262002764843877,17.3581673260056
-0.0322249159726024,17.3583799269034
-0.0379312989517197,17.3586086843068
-0.0432052066638628,17.3588523727178
-0.0479851514968062,17.359110832392
-0.0522413288075735,17.3593846413634
-0.0559632965111929,17.3596749493227
-0.0591524961100121,17.3599834099348
-0.0619769292653309,17.3603367912802
-0.0640512282417835,17.3606873864424
-0.0656233544485415,17.3610639280641
-0.0667102574383282,17.3614708653972
-0.0673250229207355,17.3619133424467
-0.0674774119335968,17.3623978477227
-0.0671718669192889,17.3629327328557
-0.0664034350947306,17.3635298533504
-0.0651523772338291,17.3642054942189
-0.0633767971313479,17.3649830059675
-0.0609908115544859,17.3659007944134
-0.0577937476732823,17.3670368514972
-0.0536026896134474,17.3684657201787
-0.0495113885369426,17.3698445650377
-0.0455818836165934,17.3711821765647
-0.0418474006923464,17.3724815184755
-0.0383254837225464,17.3737437157161
-0.0350251405834552,17.3749689663479
-0.0319498407247351,17.3761570187703
-0.0290989974958537,17.3773074237409
-0.0264688642116389,17.3784196661825
-0.0240531916247325,17.3794932305926
-0.0218437777309036,17.3805276277764
-0.0198309577598486,17.3815223976
-0.0180040480774009,17.3824770958251
-0.0163517455360575,17.3833912694848
-0.0147788208762221,17.3843150533141
-0.0132661257394453,17.3852626311457
-0.0118178972958403,17.3862357665442
-0.010438015537455,17.3872366463036
-0.0091301490298256,17.3882678434438
-0.00789770217706498,17.3893324144772
-0.00674376139181891,17.3904340271735
-0.0056710386023328,17.3915771335226
-0.00468181171949533,17.3927672095573
-0.00377786108794118,17.3940110974042
-0.00296039991182894,17.3953175098322
-0.00222999478168841,17.3966978054903
-0.00158646875453847,17.398167241886
-0.00102877151275139,17.3997471357278
-0.000574685672321931,17.4013864402012
-0.000215711628031342,17.4030774859042
6.39703650494002e-05,17.4048387252166
0.000278847118017607,17.4066930285476
0.000442668323683984,17.4086713921021
0.000568946162858994,17.4108186533936
0.000671767880543456,17.4132058278105
0.000767557548900727,17.4159622731298
0.000880950997312273,17.4193943228278
0.00101774352719844,17.4231580002163
0.00119066315444711,17.4272911811194
0.0013915409364726,17.4315808447044
0.00161563359288983,17.4360571174012
0.001877528623466,17.4411401317532
0.00213153916039246,17.4460399909209
0.00238809891713085,17.4510142596592
0.00261291337665856,17.4553849921287
0.00281787953535793,17.4593660826954
0.00301586596078277,17.4631887176708
0.00321329451362868,17.4669587033287
0.00341438260529966,17.4707384662416
0.00362251607933166,17.4745725663354
0.00384078646353488,17.4784969934236
0.00407226698207796,17.4825434145686
0.00432022784721111,17.4867420874125
0.00458830048076345,17.4911234501554
0.00488067141680374,17.4957194183799
0.00520238142827155,17.5005647127298
0.00555981719569585,17.5056981129296
0.00594429501166476,17.5109331574804
0.00634373852789625,17.516063176174
0.00676453104253736,17.5211356766627
0.00720830256710465,17.5261261573017
0.0076799268414905,17.5310434663284
0.00818447718299952,17.5358911287441
0.00872788402654162,17.5406744393916
0.00931658561747316,17.5453961806768
0.00995761864070667,17.5500571395623
0.010661791722368,17.5546758177872
0.0114528865545896,17.559329806968
0.0123460023062226,17.5640124356131
0.0133642884685094,17.5687419720567
0.0145405990841151,17.5735544379007
0.0159302296888481,17.5785362723829
0.017654088889284,17.5839250652285
0.0200759861689142,17.5904931495624
0.0216892128179316,17.5944709716165
0.0233589506919905,17.5984487936706
0.0248136404692502,17.6019617750944
0.0260392307715691,17.6051335096521
0.0270589067428455,17.6081560928768
0.0278382218471142,17.6110624322087
0.0283509215283467,17.613868955063
0.0285908207803154,17.616699141981
0.0285174892221679,17.6197259271137
0.02797926002667,17.6233854130268
0.0271668031156405,17.6265112718188
0.026085333116879,17.6296371306108
0.0250011467354757,17.6322946462355
0.0239272731003366,17.634693374753
0.0228534145421616,17.6369633941178
0.0217794166965897,17.6391632566807
0.0207083524501721,17.6413250814662
0.0196439181134941,17.6434696875256
0.0185897603321264,17.6456120601997
0.0175492974070176,17.6477638004912
0.0165256714823162,17.6499344205882
0.0155217465863654,17.6521320959574
0.0145401154646372,17.6543641504847
0.0135831110600723,17.6566373861478
0.0126528401483719,17.6589583191643
0.0117511924994276,17.661333379588
0.0108797811217252,17.663769066366
0.0100399981455874,17.6662720803408
0.00923302176775611,17.6688494803614
0.00845488920413637,17.6715264768172
0.00768933118529465,17.6743821249047
0.00694017125978943,17.6774366867732
0.00621119558435511,17.6807145032614
0.00550640136855508,17.68424368124
0.00482996019855778,17.6880567855211
0.004186147439597,17.6921917572289
0.00357922576502234,17.6966932405455
0.00301325741034964,17.7016148246584
0.00249184720896471,17.7070230566218
0.00201786486127554,17.713004489812
0.00159335793984763,17.7196754230099
0.00123286483330492,17.7268930927248
0.000932727578167702,17.7347111790534
0.000691122293476554,17.7432615886183
0.000524486626405586,17.7517746458146
0.000397119847140578,17.7608622198788
0.000297398755228938,17.7708622198788
0.000228010635837075,17.7808622198788
0.000180236819209332,17.7908622198788
0.000147870985100862,17.8008622198788
0.000126360047632308,17.8108622198788
0.000112428644794161,17.8208622198788
0.000103793488886019,17.8308622198788
9.88978789388427e-05,17.8408622198788
9.66893691683026e-05,17.8508622198788
9.64565543288442e-05,17.8608622198788
9.77192933031299e-05,17.8708622198788
0.000100157337018096,17.8808622198788
0.000103563493021938,17.8908622198788
0.000107812080528824,17.9008622198788
0.000112837363090944,17.9108622198788
0.000118618957505115,17.9208622198788
0.000125172365083104,17.9308622198788
0.000132543364200279,17.9408622198788
0.00014080539494353,17.9508622198788
0.000150059388783107,17.9608622198788
0.00016043578066996,17.9708622198788
0.000172098701013266,17.9808622198788
0.000185252603142713,17.9908622198788
0.000200151874006409,18.0008622198788
0.000217114352471203,18.0108622198788
0.0002365402135061,18.0208622198788
0.000258938481414773,18.0308622198788
0.000284964700833091,18.0408622198788
0.000315475352053244,18.0508622198788
0.000351608048874522,18.0608622198788
0.000394902532553037,18.0708622198788
0.000447488177444232,18.0808622198788
0.000508354472629271,18.0902934909317
0.000577440763037498,18.0990017237882
0.000655755156422899,18.107035803485
0.000744523855257092,18.1144485453369
0.000845153498376974,18.1212891698666
0.000959241278470784,18.1276033207643
0.00108859682828379,18.1334333481973
0.00123526966521061,18.1388185600655
0.00140158232594683,18.1437954308093
0.00159016585880648,18.1483978120741
0.00180400516137452,18.1526571427195
0.0020464893669246,18.1566026499923
0.00232147566987263,18.1602615254575
0.00263336486587757,18.1636591049833
0.00298719848018668,18.1668190627385
0.00338878436446572,18.1697636091593
0.00384485928728339,18.1725136988845
0.00436331337183284,18.1750892789658
0.00495350614735047,18.1775095928348
0.00562672901243098,18.1797935752754
0.00637746340089506,18.1819103572027
0.00720718077047547,18.1838697091168
0.00812815793630087,18.1857060742094
0.00915903220620323,18.1874546743002
0.0103306546228211,18.1891566498358
0.011703961977904,18.1908745251773
0.0135251167695186,18.1928347553861
0.015293912856073,18.1945084262637
0.0172294367212139,18.1961820971414
0.0189293065632733,18.1975847530932
0.0204032511505268,18.1987996849651
0.0217216152682319,18.1999306294465
0.0228994793046761,18.2010303951989
0.0239273566279261,18.2021376932424
0.0247787575657062,18.2032947483639
0.0254026610175768,18.2045673617608
0.0256816306469757,18.206114067346
0.0253502436442257,18.2079396803517
0.0244051283830402,18.2097652933575
0.0232986223101007,18.2112414081088
0.0220579987118486,18.2126371215586
0.0206770992303377,18.2140528080043
0.01916405320871,18.2155332307705
0.0175262210169693,18.2171160395302
0.0157914451030584,18.2188478839788
0.0144960078889976,18.2202357714461
0.012646694766459,18.2224019280187
0.0110254709265529,18.2245311272216
0.00958304690212547,18.226665685947
0.00825048433612311,18.2289051272736
0.00697032613295229,18.2313832441696
0.00608905534832066,18.2333391274985
0.00530931224400172,18.2352950108274
0.00471698667821468,18.2369618440638
0.00422625149426767,18.2384916199186
0.00378639602122474,18.2400040569997
0.00336850833718472,18.2415929504678
0.00294444905218048,18.2433936437542
0.00245552769616859,18.2457742683302
0.0019150172132389,18.24893360942
0.0015136751282497,18.2518081721309
0.00119483788993817,18.2545797324285
0.000901685690284857,18.2577169365078
0.000610839658815369,18.2617754690705
0.00038337693097927,18.2662949132789
0.00023030567361154,18.2713339788748
0.000176187106649447,18.276090492275
0.000206733956089011,18.2803604199788
0.000309931226701558,18.2842042478127
0.00048035336570112,18.2876650179229
0.000716384891145465,18.2907905377723
0.00101922924143861,18.2936303066507
0.00139285165006445,18.2962345693078
0.00184493232484416,18.2986556272495
0.00238867551065416,18.3009487712382
0.00304769475692255,18.3031801705987
0.00386292575122102,18.3054304961501
0.00492331387571596,18.3078423672833
0.00639922532683266,18.3106209340277
0.00822027093157856,18.3134867426343
0.0096534677350179,18.3154382760415
0.0112773352333837,18.3173898094486
0.0129160843410765,18.3191162471411
0.014652004462679,18.3207150795656
0.0165057442556107,18.3222007937255
0.0185482409722134,18.3236191404827
0.0208102071764077,18.3249743856012
0.02333857820978,18.3262776564909
0.0261692373349569,18.3275305526112
0.0293500426057852,18.3287383354219
0.0329203391664794,18.3299010093658
0.0369379659787082,18.3310233570858
0.0414616188667492,18.3321078849094
0.0465577970116723,18.3331570995816
0.0523040192832181,18.3341737984594
0.0587963451276293,18.3351617311889
0.0661461450171963,18.3361242870086
0.0744873990918342,18.337065081932
0.0839816561468991,18.3379878805049
0.094831495331616,18.3388971490046
0.107289318227626,18.3397977594491
0.121677287989757,18.3406953625691
0.138416454530747,18.3415967748502
0.158074154326632,18.3425106240484
0.181450715870767,18.3434486629338
0.208558744795096,18.3443899128488
0.239996588114593,18.3453399612951
0.276638769387973,18.3463110158262
0.319784373189893,18.3473245020473
0.359027848475385,18.3481652217414
0.400541458709042,18.3490059414355
0.436683489000518,18.3497251064203
0.467974547848587,18.3503632688207
0.495429857159206,18.3509625709663
0.519259311469571,18.3515497143524
0.539160189741688,18.3521477484601
0.554284666518418,18.3527849114499
0.562706637904003,18.353511030722
0.560672350619554,18.35428212437
0.546592222365889,18.3550834034954
0.518921629501907,18.355934018844
0.475493382386419,18.3568488983672
0.417408455367875,18.357784921548
0.367330621377443,18.3584640090922
0.311532808228891,18.3591430966364
0.262842544964303,18.359697622335
0.222052523360872,18.3601500386304
0.186730672730627,18.3605422524803
0.155358113183879,18.3608981674874
0.127072420116778,18.3612316415714
0.101312891060564,18.3615521991672
0.0776465927417404,18.3618679001545
0.0556515051995291,18.3621876899558
0.0347244669861671,18.3625261094588
0.0131657478314028,18.3629268696612
0.000415918751175773,18.3632007975504
-0.00713311407392457,18.3633811660555
-0.0140402532967883,18.3635615345606
-0.0200576544287895,18.3637335707504
-0.0262002771631891,18.3639272084723
-0.0322249165313893,18.3641398093771
-0.037931299354388,18.3643685667873
-0.0432052068919919,18.364612255205
-0.0479851515428689,18.3648707148861
-0.0522413286705674,18.3651445238647
-0.0559632961941345,18.3654348318318
-0.0591524956100325,18.3657432924523
-0.0619769286035463,18.3660966738129
-0.0640512273988284,18.3664472689859
-0.0656233534319842,18.3668238106196
-0.0667102562553877,18.3672307479662
-0.067325021577653,18.367673225031
-0.0674774104351655,18.3681577303246
-0.0671718652682862,18.3686926154782
-0.0664034332901539,18.3692897359977
-0.0651523752701512,18.3699653768965
-0.0633767949954282,18.3707428886835
-0.0609908092170752,18.3716606771818
-0.0577937450555675,18.3727967343498
-0.0536026870463321,18.3742256030106
-0.0495113860435157,18.3756044478534
-0.0455818812124971,18.3769420593647
-0.0418473983863307,18.3782414012597
-0.0383254815196271,18.3795035984842
-0.0350251384861493,18.3807288490995
-0.0319498387336523,18.381916901505
-0.0290989956100686,18.3830673064584
-0.026468862428936,18.3841795488824
-0.0240531899418619,18.3852531132747
-0.0218437761438051,18.3862875104403
-0.0198309562638597,18.3872822802454
-0.0180040466674496,18.388236978452
-0.0163517442068412,18.3891511520928
-0.0147788195754892,18.3900749359328
-0.0132661244696954,18.3910225137757
-0.0118178960590597,18.3919956491864
-0.010438014335549,18.3929965289591
-0.00913014786459492,18.3940277261138
-0.00789770105018577,18.3950922971633
-0.00674376030481404,18.3961939098775
-0.00567103755655056,18.3973370162467
-0.00468181071608408,18.3985270923043
-0.00377786012782111,18.3997709801777
-0.00296039899566367,18.4010773926367
-0.0022299939098513,18.4024576883316
-0.00158646792707647,18.4039271247723
-0.00102877072932589,18.4055070186708
-0.000574684942552964,18.4071463231636
-0.000215710944042824,18.4088373688948
6.39710100407882e-05,18.4105986082447
0.000278847730329596,18.4124529116252
0.000442668909343941,18.4144312752463
0.00056894672786207,18.4165785366298
0.000671768431322969,18.4189657111812
0.000767558093525734,18.4217221567195
0.000880951550615916,18.425154206875
0.00101774408359907,18.4289178843317
0.0011906637257824,18.4330510655084
0.00139154151468939,18.4373407291878
0.00161563420818255,18.4418170026191
0.00187752919967506,18.4469000162365
0.00213153972686249,18.4517998752517
0.00238809950415027,18.4567741443885
0.00261291390792639,18.4611448757065
0.00281788004687444,18.4651259657961
0.00301586646898339,18.4689486005833
0.00321329502812258,18.4727185862058
0.00341438313331701,18.4764983491842
0.00362251662730193,18.4803324494212
0.00384078703778025,18.4842568767181
0.00407226758927258,18.4883032981322
0.0043202284947414,18.4925019713044
0.00458830117707836,18.4968833344365
0.00488067217190046,18.5014793031152
0.00520238225451138,18.5063245979912
0.00555981810908716,18.5114579987975
0.00594429595118744,18.5166930429726
0.00634373952043835,18.5218230615824
0.00676453208632047,18.5268955618614
0.00720830367384595,18.531886042325
0.00767992802180237,18.5368033511789
0.00818447845006078,18.5416510134356
0.00872788539470865,18.5464343239319
0.00931658710257581,18.5511560650693
0.00995762026014972,18.5558170238064
0.0106617935348331,18.5604357021209
0.0114528885901484,18.5650896913564
0.0123460046132282,18.5697723200897
0.0133642911112095,18.5745018566769
0.0145406021612985,18.5793143227946
0.0159302333825162,18.5842961578704
0.0176540936693697,18.589684952295
0.0200759910063899,18.5962530349488
0.0216892170336225,18.6002308548664
0.0233589540614002,18.604208674784
0.0248136432610422,18.6077216551137
0.0260392331196182,18.6108933891816
0.0270589086602584,18.6139159722484
0.0278382231996881,18.6168223112477
0.028350922325622,18.6196288340146
0.0285908209829632,18.622459021131
0.0285174886834606,18.6254858069499
0.0279792580994069,18.6291452953157
0.0271668009089625,18.6322711521607
0.0260853311031398,18.6353970090057
0.0250011448015181,18.6380545238497
0.0239272711751128,18.6404532520426
0.0228534126152328,18.6427232712399
0.0217794147717086,18.6449231337102
0.0207083505337646,18.6470849584481
0.0196439162122658,18.6492295644911
0.0185897584524642,18.6513719371722
0.0175492955548359,18.6535236774893
0.0165256696630264,18.6556942976276
0.0155217448048805,18.6578919730518
0.0145401137254032,18.6601240276468
0.0135831093670735,18.6623972633893
0.0126528385051806,18.6647181964967
0.0117511909091894,18.6670932570227
0.0108797795871614,18.6695289439148
0.0100399966690485,18.6720319580158
0.00923302035121039,18.6746093581754
0.00845488780703256,18.6772863549374
0.00768932981447694,18.6801420033648
0.00694016992191302,18.6831965656144
0.00621119428649287,18.6864743825309
0.00550640011813206,18.6900035609925
0.00482995900325662,18.69381666582
0.00418614630720384,18.6979516381485
0.00357922470316029,18.7024531221738
0.0030132564260623,18.7073747071026
0.00249184630817902,18.7127829400179
0.00201786404843319,18.7187643743406
0.00159335721801391,18.7254353089152
0.00123286422852637,18.7326529796417
0.00093272707833494,18.7404710671854
0.000691121909356031,18.7490214782424
0.000524486050152508,18.7575345529842
0.000397119476712693,18.766622123748
0.000297398498316296,18.776622123748
0.000228010458246478,18.786622123748
0.00018023669762416,18.796622123748
0.000147870902954304,18.806622123748
0.00012635999312034,18.816622123748
0.000112428609644421,18.826622123748
0.000103793467402193,18.836622123748
9.88978672395252e-05,18.846622123748
9.66893646196248e-05,18.856622123748
9.64565551494845e-05,18.866622123748
9.77192982998894e-05,18.876622123748
0.000100157345410201,18.886622123748
0.000103563504322969,18.896622123748
0.0001078120944665,18.906622123748
0.000112837379552838,18.916622123748
0.000118618976502918,18.926622123748
0.00012517238673058,18.936622123748
0.000132543388701603,18.946622123748
0.000140805422589925,18.956622123748
0.000150059419956581,18.966622123748
0.000160435815853846,18.976622123748
0.000172098740810002,18.986622123748
0.000185252648300196,18.996622123748
0.000200151925455262,19.006622123748
0.000217114411376738,19.016622123748
0.000236540281340839,19.026622123748
0.00025893856006061,19.036622123748
0.00028496479272733,19.046622123748
0.000315475460401227,19.056622123748
0.000351608177965999,19.066622123748
0.000394902688244778,19.076622123748
0.00044748836791751,19.086622123748
0.000508354689817432,19.0960533924207
0.000577441009702982,19.1047616229876
0.000655755436391887,19.1127957005694
0.000744524172984054,19.1202084404719
0.000845153858941167,19.127049063206
0.000959241687632573,19.1333632124509
0.00108859729256732,19.139193238364
0.00123527019200577,19.1445784488357
0.00140158292362674,19.1495553182975
0.00159016653686119,19.1541576983871
0.00180400593057493,19.1584170279564
0.00204649023951782,19.1623625342454
0.00232147665980916,19.1660214088132
0.00263336598911244,19.1694189875219
0.00298719975504583,19.1725789445355
0.00338878581213256,19.1755234902859
0.00384486093245047,19.1782735794082
0.00436331524359554,19.1808491589517
0.00495350828050277,19.1832694723461
0.00562673144941092,19.1855534543756
0.00637746609299115,19.1876702357262
0.00720718375134077,19.1896295871789
0.0081281612577454,19.1914659519281
0.00915903594897571,19.1932145518025
0.0103306589294741,19.1949165272872
0.011703967369498,19.1966344031162
0.0135251245459904,19.1985946348498
0.015293918126011,19.2002683027086
0.0172294387489617,19.2019419705675
0.0189293078945899,19.2033446259385
0.0204032522695004,19.2045595576841
0.0217216162342524,19.2056905021246
0.0228994801194599,19.2067902678761
0.0239273572753681,19.2078975659546
0.0247787580124458,19.2090546211579
0.0254026611973776,19.2103272347231
0.025681630374652,19.2118739407436
0.0253502428309231,19.2136995534657
0.0244051273424526,19.2155251661878
0.0232986211776662,19.2170012808309
0.0220579974839659,19.2183969942799
0.020677097914196,19.2198126807643
0.0191640518139088,19.2212931035949
0.0175262195500464,19.2228759124461
0.0157914436116066,19.2246077570246
0.0144960048831006,19.225995646283
0.0126466922111595,19.2281618026976
0.0110254687101906,19.2302910018256
0.00958304486709192,19.2324255606721
0.00825048224381738,19.2346650025617
0.00697032430230892,19.2371431195307
0.00608905444821514,19.239099001165
0.00530931208616271,19.2410548827994
0.00471698671800264,19.2427217155042
0.00422625157466939,19.2442514912222
0.00378639608198223,19.2457639283567
0.00336850833181729,19.2473528220775
0.00294444891215354,19.2491535159891
0.00245552719259955,19.2515341426143
0.00191501677902736,19.2546934839231
0.00151367486807783,19.2575680459294
0.0011948376598485,19.2603396064613
0.000901685425014643,19.2634768116644
0.000610839314972221,19.2675353469881
0.000383376698640205,19.2720547919834
0.000230305585308745,19.2770938584681
0.000176187199977137,19.2818503706016
0.000206734199807414,19.2861202973501
0.000309931608756038,19.289964124297
0.00048035388226372,19.2934248936228
0.000716385544138109,19.2965504127964
0.00101923003760033,19.2993901811067
0.00139285260224021,19.3019944433068
0.00184493345577909,19.3044155009114
0.00238867686039493,19.306708644701
0.0030476963936506,19.3089400440231
0.00386292780150561,19.3111903697628
0.00492331663671589,19.313602241531
0.00639922877410905,19.3163808085264
0.0082202750740589,19.319246617259
0.00965347178251431,19.3211981499175
0.0112773391409362,19.3231496825761
0.0129160882625919,19.3248761197796
0.0146520085842892,19.326474951913
0.0165057486945866,19.3279606658698
0.0185482458574269,19.3293790124843
0.0208102125844624,19.3307342574711
0.0233385842562058,19.3320375282531
0.0261692440928009,19.333290424263
0.0293500501748607,19.3344982069695
0.0329203476648491,19.3356608808187
0.0369379755213545,19.3367832284471
0.0414616295956407,19.3378677561859
0.0465578091303996,19.3389169707881
0.0523040329507574,19.3399336695959
0.0587963605695288,19.3409216022626
0.0661461625045704,19.3418841580274
0.074487418952189,19.3428249529043
0.0839816787927085,19.3437477514409
0.0948315212538589,19.3446570199136
0.107289348054462,19.3455576303424
0.121677322530401,19.3464552334603
0.138416494854207,19.3473566457557
0.158074201910034,19.3482704949902
0.181450772827428,19.3492085339419
0.208558810727802,19.3501497838637
0.239996664705741,19.3510998323382
0.27663885894204,19.3520708869313
0.31978447945933,19.353084373281
0.359027937233174,19.3539250924453
0.400541524685211,19.3547658116095
0.43668354435414,19.3554849763819
0.467974596498912,19.3561231386873
0.4954299000578,19.3567224407914
0.519259348506404,19.3573095841737
0.539160220047319,19.3579076183168
0.554284688116644,19.3585447813982
0.562706646024105,19.3592709008815
0.560672339334716,19.3600419945612
0.546592189587968,19.3608432737535
0.51892157202324,19.3616938891989
0.475493296057442,19.3626087688402
0.417408344926933,19.3635447920384
0.367330522776016,19.3642238792388
0.311532729454087,19.3649029664391
0.262842481514386,19.3654574919253
0.222052469490258,19.3659099081058
0.186730625338057,19.3663021218894
0.155358070674218,19.3666580368557
0.127072381535994,19.3669915109146
0.101312855733282,19.3673120684975
0.0776465600885794,19.3676277694834
0.0556514745584472,19.3679475592984
0.0347244371496676,19.3682859788456
0.0131657136910287,19.3686867392243
0.000415919370190281,19.3689606664081
-0.00713311358154032,19.3691410349145
-0.0140402529170973,19.3693214034209
-0.0200576541091013,19.3694934396109
-0.0262002768503687,19.3696870773313
-0.032224916240555,19.3698996782347
-0.0379312990951868,19.3701284356435
-0.0432052066696488,19.3703721240599
-0.0479851513598426,19.3706305837398
-0.0522413285277222,19.370904392717
-0.0559632960912783,19.3711947006825
-0.0591524955474955,19.3715031613015
-0.0619769285793864,19.3718565426594
-0.0640512274140805,19.3722071378302
-0.0656233534852502,19.3725836794616
-0.066710256345339,19.3729906168054
-0.0673250217031681,19.3734330938671
-0.0674774105954406,19.373917599157
-0.0671718654629917,19.3744524843062
-0.0664034335198749,19.3750496048203
-0.0651523755366178,19.3757252457124
-0.0633767953023682,19.3765027574906
-0.0609908095724931,19.3774205459766
-0.057793745480683,19.3785566031242
-0.0536026874637405,19.3799854717894
-0.0495113864483422,19.3813643166355
-0.0455818816014887,19.3827019281498
-0.0418473987577237,19.3840012700478
-0.0383254818724503,19.3852634672753
-0.03502513881993,19.3864887178936
-0.03194983904828,19.3876767703023
-0.0290989959057191,19.3888271752588
-0.0264688627060239,19.3899394176861
-0.0240531902009872,19.3910129820816
-0.0218437763857132,19.3920473792505
-0.019830956489402,19.393042149059
-0.0180040468775507,19.3939968472689
-0.0163517444024673,19.3949110209132
-0.0147788197661308,19.3958348047512
-0.0132661246549125,19.3967823825921
-0.0118178962385003,19.3977555180006
-0.0104380145088813,19.3987563977708
-0.00913014803150909,19.3997875949229
-0.00789770121039291,19.4008521659695
-0.00674376045805013,19.4019537786805
-0.00567103770258625,19.4030968850461
-0.00468181085472882,19.4042869610995
-0.00377786025892492,19.4055308489681
-0.00296039911912426,19.4068372614215
-0.00222999402562357,19.4082175571097
-0.0015864680351748,19.4096869935423
-0.00102877082983981,19.4112668874305
-0.000574685033750219,19.4129061919198
-0.000215711027360968,19.4145972376458
6.39709333600752e-05,19.4163584769889
0.00027884765912643,19.4182127803605
0.000442668842506891,19.4201911439695
0.000568946664280134,19.4223384053363
0.000671768369796831,19.4247255798634
0.000767558032543413,19.427482025362
0.000880951487400735,19.4309140754345
0.00101774401917339,19.4346777528789
0.00119066365803391,19.438810934006
0.00139154144559913,19.4431005976771
0.00161563413581834,19.4475768710509
0.00187752913035635,19.4526598847267
0.00213153965842671,19.4575597437544
0.00238809943420511,19.4625340128603
0.00261291384238706,19.4669047442695
0.00281787998280929,19.4708858343971
0.00301586640500747,19.4747084691995
0.00321329496338926,19.4784784548252
0.00341438306716412,19.482258217799
0.00362251655912339,19.4860923180252
0.00384078696696702,19.4900167453062
0.00407226751517172,19.4940631666996
0.00432022841662164,19.4982618398466
0.00458830109409528,19.5026432029488
0.00488067208304891,19.5072391715925
0.00520238215854892,19.512084466428
0.0055598180044158,19.5172178671876
0.00594429584286649,19.5224529114014
0.00634373940590775,19.5275829300238
0.00676453196549167,19.5326554303261
0.00720830354545032,19.5376459108097
0.00767992788464996,19.5425632196832
0.00818447830270478,19.5474108819581
0.00872788523555847,19.5521941924719
0.00931658692986085,19.5569159336267
0.00995762007190277,19.5615768923812
0.0106617933242756,19.5661955706855
0.0114528883538295,19.5708495599149
0.0123460043455693,19.5755321886382
0.0133642908047891,19.5802617252089
0.0145406018046962,19.585074191295
0.0159302329546886,19.5900560263023
0.017654093115982,19.5954448205444
0.02007599044643,19.6020129033925
0.0216892165455801,19.6059907235571
0.0233589536712335,19.6099685437218
0.0248136429376882,19.613481524178
0.0260392328475986,19.6166532583025
0.0270589084380598,19.6196758413876
0.0278382230428389,19.6225821804254
0.0283509222330187,19.6253887032024
0.0285908209591544,19.6282188902959
0.028517488745419,19.6312456760355
0.0279792583219966,19.6349051641176
0.0271668011638841,19.6380310211878
0.0260853313357547,19.641156878258
0.025001145024913,19.6438143931923
0.0239272713975029,19.6462131214228
0.0228534128378232,19.6484831406395
0.021779414994064,19.6506830031205
0.0207083507551397,19.652844827864
0.0196439164318821,19.654989433909
0.0185897586695806,19.6571318065893
0.0175492957687647,19.6592835469035
0.0165256698731404,19.661454167037
0.0155217450106076,19.663651842455
0.0145401139262252,19.6658838970422
0.0135831095625271,19.6681571327756
0.0126528386948637,19.6704780658726
0.0117511910927349,19.672853126387
0.0108797797642485,19.675288813266
0.0100399968393979,19.6777918273526
0.00923302051458903,19.6803692274963
0.0084548879681784,19.683046224223
0.00768932997259674,19.6859018726113
0.0069401700762374,19.6889564348169
0.00621119443620328,19.692234251684
0.00550640026236932,19.6957634300898
0.00482995914113163,19.6995765348543
0.00418614643781607,19.7037115071112
0.00357922482562806,19.7082129910548
0.00301325653957088,19.7131345758894
0.00249184641204332,19.7185428086949
0.00201786414213948,19.724524242887
0.00159335730120783,19.7311951773027
0.00123286429819516,19.7384128479124
0.000932727135874962,19.746230935316
0.000691121953853811,19.7547813462009
0.000524486113472064,19.7632944191222
0.000397119518105308,19.772381990205
0.000297398527161303,19.782381990205
0.000228010478319219,19.792381990205
0.000180236711505417,19.802381990205
0.000147870912477234,19.812381990205
0.000126359999589175,19.822381990205
0.000112428613972016,19.832381990205
0.00010379347021679,19.842381990205
9.88978689692631e-05,19.852381990205
9.66893655552096e-05,19.862381990205
9.6456555487707e-05,19.872381990205
9.77192981727574e-05,19.882381990205
0.000100157344904323,19.892381990205
0.000103563503492601,19.902381990205
0.00010781209334242,19.912381990205
0.000112837378148364,19.922381990205
0.000118618974817877,19.932381990205
0.00012517238475377,19.942381990205
0.000132543386412129,19.952381990205
0.000140805419957619,19.962381990205
0.000150059416941671,19.972381990205
0.000160435812405886,19.982381990205
0.000170692973282831,19.9911909951025
0.000182053808772079,20
