ecg,time
0.000672765185591764,15.0030842477638
0.000669998146653974,15.0073908032846
0.000757141673375519,15.0112664976578
0.000922028850467845,15.0147525287159
0.00115862805379651,15.0178943862826
0.00146526834874999,15.020741970222
0.00184371948979446,15.0233444880134
0.00229974838581229,15.0257530978872
0.00284412254269651,15.0280197401764
0.00349677892426668,15.0302050745376
0.00429587964094764,15.0323900632266
0.00530561278392997,15.0346710150521
0.00668705536450982,15.0372637369879
0.00846869339464669,15.0400622351012
0.00997175556484152,15.0421022596479
0.0116773706526812,15.0441422841946
0.0133774913176818,15.0459262459622
0.0151194222913428,15.0475287837924
0.0169853939385269,15.0490280945733
0.0190114234518089,15.0504426906035
0.0212583752198083,15.0517997140611
0.0237561008699239,15.0530995975199
0.026555356071758,15.0543518950137
0.0296919308098683,15.0555562747271
0.0332191627292086,15.056718019343
0.0371872349437816,15.0578388925526
0.0416528204707954,15.058921041515
0.0466862032482901,15.0599680219033
0.0523657524099081,15.0609827308271
0.0587816265848954,15.0619679798439
0.0660451994668005,15.0629274278952
0.0742878053563198,15.0638645936019
0.0836686660799261,15.0647832580951
0.0943822085506271,15.0656874668051
0.10667296861607,15.0665819345166
0.120849766886228,15.0674719646461
0.13731216395042,15.0683638444125
0.156591453323427,15.0692653710782
0.179421953278255,15.0701868418425
0.206122525903875,15.0711185535772
0.237054294819692,15.0720562139576
0.273037794296829,15.0730105822097
0.315252940863448,15.0739999334189
0.365863203152927,15.0750652791128
0.401191832529109,15.0757635656964
0.437174029875799,15.07646185228
0.469234186543782,15.0770960501344
0.497431921577341,15.0776893875174
0.52201072253499,15.0782685078547
0.542728511347661,15.0788564612914
0.558814304438634,15.0794807189022
0.568503876440116,15.0801886176849
0.568031485795504,15.08095097019
0.555568103929294,15.0817424339151
0.52962381878581,15.0825831025301
0.488698156964789,15.083476788362
0.433308197939865,15.0843955764674
0.366871317429558,15.085297806945
0.321782278894687,15.0858423468295
0.273863815514816,15.086386886714
0.231479055525442,15.0868536083907
0.194825700734834,15.0872557554354
0.16242990297963,15.0876175312086
0.13332098223941,15.0879542348262
0.106877409645957,15.0882760895285
0.0826390915772123,15.0885913236283
0.0601849821083743,15.0889084725669
0.0389721125132872,15.0892401643334
0.0177313992816989,15.0896184844693
0.00853878169245422,15.0898024895457
7.26227940528756e-05,15.0899864946221
-0.00888724846026574,15.0902004233882
-0.0157017345302094,15.0903798753918
-0.0217537931687294,15.0905546296103
-0.0279162744819501,15.0907513623463
-0.0339139653820385,15.0909663107936
-0.039565269230962,15.0911970179085
-0.0447680379595261,15.0914425075032
-0.0494679797267589,15.0917027836208
-0.0536396683954078,15.0919785426277
-0.0572753852640062,15.0922710313783
-0.0603783388110232,15.092581994569
-0.0630426764672614,15.0929278857743
-0.0650502403046172,15.0932809566887
-0.0665577768220328,15.0936606298285
-0.0675812725384072,15.0940713694043
-0.0681334964585799,15.0945185026918
-0.0682235969391866,15.0950087724451
-0.0678549945597405,15.0955508951567
-0.0670206657644598,15.096157495287
-0.0656980110400834,15.0968456556522
-0.0638398289589074,15.0976404900747
-0.0613483257446087,15.0985843914839
-0.0579842732525414,15.0997683961153
-0.053793558040711,15.1011901784653
-0.0497097279220912,15.1025646460741
-0.0457919053707634,15.1038986775732
-0.0420708891257823,15.1051948508445
-0.038563126672316,15.1064540875928
-0.0352770571442732,15.107676476911
-0.032215813255293,15.1088617087318
-0.0293785872435765,15.1100093027838
-0.0267614784782835,15.111118727977
-0.024358129420581,15.1121894608628
-0.0221602650236781,15.1132210082969
-0.0201581770454624,15.1142129076894
-0.0183411639814585,15.1151647122115
-0.0166979271197192,15.1160759650317
-0.0151259435193801,15.1170013472894
-0.013614345341183,15.1179506075375
-0.0121672874120219,15.1189255675956
-0.010788632235003,15.1199284378044
-0.00948202561131669,15.1209618209532
-0.00825084386813288,15.1220288110476
-0.00709813933681238,15.1231331236817
-0.00602658299991261,15.1242792728016
-0.00503840381379383,15.1254728162452
-0.004135323543563,15.1267207066967
-0.00331848478414655,15.1280318107025
-0.00258836771225051,15.1294177086519
-0.00194468688146007,15.1308939928742
-0.00138625012335613,15.1324825173181
-0.000932625180240846,15.1341247695831
-0.000572715350360208,15.1358200981324
-0.00029080892544595,15.1375870308365
-7.24179847918372e-05,15.139448893251
9.62620890838811e-05,15.141437419894
0.000228883524131572,15.1435987645517
0.000339832158840861,15.1460065985237
0.000446213580268757,15.148796868595
0.000574791204101262,15.1523006754665
0.000726042880406247,15.1560755405882
0.000915547968462626,15.1602516035044
0.00113997875870624,15.1647332188778
0.00136806929559313,15.1690471292132
0.00160269617781043,15.1734003215811
0.00185754660434499,15.1781361685851
0.00212080902222968,15.183080459863
0.00237893412898097,15.1879786824503
0.00262966527527274,15.192759581556
0.00284718729462992,15.1968942016938
0.00305304633931625,15.2007772046983
0.00325624031964166,15.2045625797011
0.00346185411625735,15.2083293747636
0.00367363346583727,15.212129313378
0.00389484983432044,15.2160019623672
0.00412867205387693,15.2199806467765
0.00437841589177022,15.2240959610186
0.00464773743958786,15.2283779447991
0.00494081581645381,15.2328574318003
0.00526260874029801,15.2375673082159
0.00561927126198893,15.2425438554296
0.00601535784671972,15.2477826761649
0.00642369751578785,15.2528730845638
0.00685587291195956,15.2579312257283
0.0073113121830846,15.2629060866513
0.00779521919540456,15.2678097032484
0.00831251246570763,15.2726426209321
0.0088693097850089,15.277410164887
0.00947229520288719,15.2821152512402
0.0101288258751531,15.2867591077684
0.0108546790419636,15.2913881774242
0.0116703192133201,15.2960492386674
0.0125930170407393,15.3007437134764
0.0136478526275318,15.3054928198981
0.0148718709780057,15.3103418841803
0.0163307775237124,15.31540142889
0.0181842904548344,15.3209997340508
0.0206063931972669,15.3273916616971
0.0221626724668737,15.3311814334413
0.0237507984548169,15.3349712051856
0.0251345399997072,15.3383682397442
0.0263016033063737,15.3414892349773
0.0272631029282559,15.3445013833323
0.0279675494254478,15.3473748548527
0.0284058332962343,15.3501800834177
0.0285648808844891,15.3530480880333
0.0283877894463847,15.3561856457174
0.0276285465092022,15.3602746204444
0.0267757437771857,15.3631633973098
0.0257122471972246,15.3660521741751
0.0246359551147717,15.3686079537779
0.0235624633640959,15.3709635549828
0.0224881422293164,15.3732128814016
0.0214145385311382,15.3754033804303
0.0203450563120338,15.3775629143309
0.0192834137698505,15.3797102246848
0.0182332006108703,15.381859132408
0.0171977585547723,15.3840205327609
0.0161801503199672,15.3862034925352
0.015183162481849,15.3884159030814
0.0142093148350843,15.3906649080501
0.0132608698761832,15.392957205643
0.0123398466541796,15.3952992636809
0.0114480271149871,15.3976975052597
0.0105869649895038,15.4001584616851
0.00975800006363518,15.4026888944757
0.00896229619235074,15.4052959541573
0.00818918014026618,15.4080301043845
0.00742993680204228,15.4109489512089
0.00668835686992171,15.414073983728
0.0059682860099406,15.4174306088121
0.00527376600723043,15.4210481944045
0.00460899152433002,15.4249608020112
0.00397822494946085,15.4292082078339
0.00338565871298856,15.4338374539273
0.00283520826613621,15.4389055052374
0.0023302297012497,15.4444841918606
0.00187329651533083,15.4506680623667
0.00146839092218545,15.4575426193496
0.00112843667642323,15.4649490576522
0.000846661504515855,15.4729951743305
0.000620805497387078,15.4818258244357
0.000466975859036887,15.4905882660446
0.000350461262767009,15.4999440918837
0.000262408645316667,15.5099440918837
0.000201112142566515,15.5199440918837
0.000158899294214479,15.5299440918837
0.000130296966712235,15.5399440918837
0.000111284143567366,15.5499440918837
9.89660375571437e-05,15.5599440918837
9.13235647677e-05,15.5699440918837
8.69790547673141e-05,15.5799440918837
8.49997729102487e-05,15.5899440918837
8.47536976794873e-05,15.5999440918837
8.58125279877986e-05,15.6099440918837
8.78885735079365e-05,15.6199440918837
9.07932493489692e-05,15.6299440918837
9.44090059529416e-05,15.6399440918837
9.86700038095404e-05,15.6499440918837
0.000103548874632844,15.6599440918837
0.000109047911323658,15.6699440918837
0.000115193539683731,15.6799440918837
0.000122033256584157,15.6899440918837
0.000129634484735115,15.6999440918837
0.000138085017906798,15.7099440918837
0.000147494919046798,15.7199440918837
0.000157999899611004,15.7299440918837
0.000169766371198426,15.7399440918837
0.000182998544777089,15.7499440918837
0.000197948188741952,15.7599440918837
0.000214927986300524,15.7699440918837
0.00023432991837044,15.7799440918837
0.000256650842943862,15.7899440918837
0.000282528619887088,15.7999440918837
0.000312794046892739,15.8099440918837
0.000348547080904848,15.8199440918837
0.000391271355085474,15.8299440918837
0.000443010873458458,15.8399440918837
0.000503316844443477,15.8494635759325
0.000571720479388362,15.8582572003425
0.000649180521825774,15.8663706571326
0.000736887764908613,15.8738570006001
0.000836211767708514,15.8807657976021
0.000948708578197712,15.8871430144399
0.00107614147248452,15.8930313019795
0.00122050743134959,15.8984702520917
0.00138406957053428,15.9034966023273
0.00156939142768238,15.9081444434719
0.00177938097365883,15.9124454308665
0.0020173391512214,15.91642899078
0.00228702187775071,15.920122494435
0.0025927112137869,15.9235514323745
0.00293930858987793,15.9267396067226
0.00333245359056782,15.9297093282031
0.00377867634096088,15.9324816138952
0.00428560732523222,15.9350764235903
0.0048622696306776,15.9375129479912
0.00551950174514304,15.939809970662
0.00625689575778237,15.9419500808815
0.00707115552541063,15.943926402231
0.00797341288915107,15.9457729149494
0.00898046882855271,15.9475239582494
0.0101192913053265,15.9492178834273
0.011440051389895,15.9509082619932
0.0131258435302421,15.9527666642705
0.0151146013269731,15.9546723420464
0.0167559510162537,15.9560974063218
0.018489099885755,15.9575224705972
0.0200415129711351,15.9587782406628
0.0214262498772693,15.9599259739769
0.0226683828210269,15.9610263504021
0.0237655685159185,15.9621203236947
0.0246978119868003,15.9632469409966
0.0254252085943151,15.9644594899918
0.0258655082462803,15.965864632711
0.0257286610051843,15.967893534333
0.0250796534725827,15.969422610082
0.0240606861534115,15.9709516858309
0.0228883397887937,15.972352010004
0.0215688294502604,15.9737466691398
0.0201107292031412,15.9751893053255
0.0185233292476427,15.9767176075484
0.0175131382611205,15.977689699562
0.016524731027111,15.9786617915756
0.0153581296925157,15.97986694563
0.0134386036247356,15.9820202520954
0.0115814652392283,15.9843640205409
0.00971886058196252,15.987068980229
0.00872016226448975,15.9887163290932
0.00781548709168488,15.9903636779575
0.00705753237039363,15.991884583477
0.00638838232235572,15.993358582489
0.00576182938679606,15.9948754615871
0.00513923866950279,15.9965443754506
0.00445974977848198,15.9985989739596
0.00368370586811186,16.0013452617797
0.00301965301825205,16.0041778684726
0.0025139228586348,16.0067761048449
0.00207063264082678,16.0095216843371
0.00164632134737228,16.0127853676181
0.00128270801192598,16.0164214211534
0.000995161390071113,16.0203690273909
0.000787330988862324,16.0246930386793
0.000672346232327675,16.0294838761346
0.000670306519577316,16.0337866146462
0.000758052475011924,16.0376593665415
0.000923477546207818,16.0411427166523
0.00116058809800853,16.0442822578622
0.00146774107619291,16.0471278933003
0.00184672923479592,16.0497288115892
0.00230335710976055,16.0521362158529
0.00284843804581641,16.0544020563112
0.00350201367171374,16.0565871268983
0.00430236522439172,16.0587724041841
0.00531405243147859,16.061054656479
0.00669918142597648,16.0636507720327
0.00848352258543315,16.0664498417937
0.00998613537867413,16.068486817456
0.0116910554156143,16.0705237931184
0.0133908632814467,16.0723055707641
0.015133809465601,16.0739073525701
0.0170007744355605,16.0754058104404
0.0190283616385015,16.0768198853052
0.0212771509141442,16.0781764289413
0.0237770576710182,16.0794758948369
0.0265788286065664,16.0807278036174
0.0297182788233585,16.0819318224079
0.0332487739802435,16.0830932258882
0.0372206305221192,16.0842138023941
0.0416904293146428,16.0852956567054
0.0467285995772888,16.0863423654466
0.0524136102698238,16.0873568277386
0.0588357546070241,16.0883418586767
0.0661065394184226,16.0893011148446
0.0743575006881829,16.0902381177359
0.0837481114803776,16.0911566508725
0.0944731438619114,16.0920607642883
0.106777551119504,16.0929551750349
0.120970767761176,16.0938451937539
0.137453212061408,16.0947371172084
0.156757461288161,16.0956387581425
0.179619888251344,16.0965604403508
0.206351522802233,16.0974921678581
0.237320022347018,16.0984299138423
0.273347878433281,16.0993844746389
0.315619291917915,16.1003742208877
0.366311675983309,16.1014404895419
0.401603288385479,16.1021377548225
0.43753313442859,16.102835020103
0.469548723091471,16.1034686031569
0.497708084970465,16.1040616654116
0.522248441874402,16.1046407592435
0.542922741827201,16.1052289350991
0.55895317904568,16.105853765977
0.568559020045256,16.1065629679176
0.567962334667954,16.1073255226329
0.555362168354168,16.1081174172569
0.529261159724211,16.1089587172383
0.4881970301479,16.1098523770426
0.432647132530091,16.1107715625701
0.380418902792279,16.1114916486703
0.321512488196941,16.1122117347705
0.270524507186355,16.1127902229291
0.228311364044398,16.1132545127419
0.192027630377938,16.1136528880733
0.159929576006304,16.1140121479775
0.131059314789576,16.1143472928233
0.10481257394942,16.1146683056059
0.0807366627140135,16.114983353032
0.0584082179290405,16.1153011175277
0.037260663164417,16.1156349048973
0.0158761447226306,16.1160206766964
0.00681461771949096,16.1162049438031
-0.0015222996985444,16.1163892109098
-0.00980052485399386,16.1165897626602
-0.0164634224428854,16.1167672179754
-0.0225515036854064,16.1169451459841
-0.028706925416912,16.1171444484972
-0.0346679382668256,16.1173615377198
-0.0402656726555276,16.1175941883584
-0.0454056542383921,16.1178415747548
-0.05003818615541,16.1181038029478
-0.0541406443627207,16.1183816462484
-0.0577070403696892,16.1186764174548
-0.060741423004929,16.1189899251718
-0.0634019774329144,16.1193494846181
-0.0653284158211049,16.1197067755699
-0.06675651780333,16.1200911724655
-0.0677028118788338,16.1205074180705
-0.0681796106125479,16.1209610426384
-0.0681952937639784,16.1214590643938
-0.067752102593265,16.1220105929189
-0.0668406616246898,16.1226291054684
-0.0654353221890033,16.1233325445888
-0.0634831469605921,16.1241479722563
-0.0608730156110176,16.1251223533836
-0.0573182538399657,16.1263630647204
-0.053140194844585,16.127776068044
-0.0490796209438657,16.1291438923476
-0.0451913065806676,16.1304718475315
-0.0415031011014477,16.1317621686623
-0.0380299121114242,16.1330156059405
-0.0347792149331322,16.134232164357
-0.0317534504560668,16.1354114959021
-0.0289512751169783,16.1365531066355
-0.0263683621928873,16.137656464113
-0.0239980177630229,16.1387210489755
-0.0218317098607826,16.1397463734144
-0.0198595455307404,16.1407319786808
-0.0180707039698212,16.1416774183632
-0.0164516667716453,16.1425834755619
-0.0148886229031289,16.143512493363
-0.0133867255906087,16.1444655885366
-0.0119499758276835,16.1454447026846
-0.0105822068198369,16.1464521007838
-0.00928702623722077,16.1474904543438
-0.00806776404473166,16.1485629438157
-0.00692741755168694,16.1496733950424
-0.00586859358928111,16.1508264649068
-0.00489344724068736,16.1520279002696
-0.00400361581509436,16.1532849098805
-0.00320014549398453,16.154606717613
-0.00248340572326124,16.1560054213446
-0.00185298167454026,16.1574973993331
-0.00130752457776713,16.1591057766176
-0.000869916451180712,16.1607550004087
-0.000523336820591609,16.1624603418038
-0.000252410141411221,16.1642405554203
-4.27830208159744e-05,16.1661200468101
0.000119284231472385,16.1681323190299
0.000247486266487296,16.1703267149366
0.000356456992923907,16.1727834595069
0.000464105512686353,16.1756553071999
0.000600628972380064,16.1793417408973
0.000756576604106444,16.1831492100311
0.000955114497555902,16.1874346117344
0.00118028836182458,16.1918732214579
0.00140901350373874,16.1961756003812
0.0016458245358543,16.2005652974659
0.00190730985450028,16.2054328629379
0.00216869482108605,16.2103517631646
0.00242742933687848,16.2152689346992
0.00266899534322859,16.2198740321564
0.00288344232272494,16.2239464965836
0.00308835633082077,16.2278047029891
0.00329165874055775,16.2315822622098
0.00349809422850555,16.2353515651295
0.00371128436525275,16.2391615300933
0.00393446208646745,16.2430503324172
0.00417080423706363,16.2470505882161
0.00442367392888763,16.2511926908223
0.00469680386413686,16.2555067269414
0.00499448663441754,16.2600237929849
0.00532185188197292,16.2647772683341
0.0056853217231134,16.2698041376049
0.00608328961700747,16.2750166814313
0.0064956239191455,16.2801040346577
0.00693150191132787,16.2851481144338
0.00739147192857793,16.2901109365202
0.00788066347688914,16.295002211197
0.00840422857703445,16.2998237204093
0.00896838920735219,16.3045804771889
0.00957994236311562,16.3092751201159
0.0102463597947784,16.3139085627833
0.0109865697699133,16.3185441846212
0.0118189182366377,16.3232098215408
0.0127620841943537,16.3279117629768
0.0138425630282664,16.3326735729947
0.0151006031548186,16.3375477249918
0.0166104658095267,16.3426644641195
0.018568373783798,16.3484368530133
0.0204601005457623,16.35339163273
0.0220479767065493,16.357272065897
0.0236740486176085,16.361152499064
0.0250716510096418,16.3645741513623
0.0262490530892369,16.367704695469
0.0272209481394741,16.3707190016876
0.0279388522358336,16.3735988697223
0.0283906393863044,16.3764046319139
0.0285645811681604,16.3792656604821
0.0284072120745501,16.3823813945795
0.0276955009112583,16.3863735016108
0.0268504507778298,16.3893054562208
0.0257844574557157,16.3922374108308
0.0247069199054105,16.3948136220478
0.0236333453743636,16.3971788987545
0.0225590493249743,16.3994334385643
0.0214852879972526,16.4016268045907
0.0204154071463808,16.4037877213072
0.0193531234520611,16.4059353643524
0.0183020407500862,16.4080838016249
0.0172655178238966,16.4102440817927
0.0162466367770034,16.412425366321
0.0152482013467201,16.4146356103494
0.0142727489423375,16.4168819954816
0.0133225587158272,16.4191712414507
0.0123996641070102,16.4215098286672
0.0115058640708257,16.4239041740497
0.0106427269820416,16.4263607974192
0.00981160553184139,16.4288864435948
0.00901367369941107,16.431488232578
0.00823976772883127,16.4342108949932
0.00747948198754992,16.4371169804082
0.00673661497041318,16.4402277011552
0.00601499659971907,16.4435682342248
0.0053186590333004,16.4471676564913
0.00465178828245771,16.4510596963599
0.00401864576373751,16.4552837148589
0.00342343435593714,16.4598862086627
0.00287009495213143,16.4649233777139
0.0023620297869256,16.4704658588578
0.00190186719259926,16.4766064064148
0.00149250787082135,16.4834499531042
0.00114855923228738,16.4908192537302
0.000863228776253487,16.498820081352
0.000633440360998662,16.5075948823483
0.000484619150036385,16.5158071259055
0.000361754121557352,16.5252640216767
0.000270231552225906,16.5352640216767
0.000206509303702135,16.5452640216767
0.000162582577328551,16.5552640216767
0.000132773328485209,16.5652640216767
0.000112915773357938,16.5752640216767
0.000100007289071462,16.5852640216767
9.19498612814159e-05,16.5952640216767
8.73101356106226e-05,16.6052640216767
8.51171199590281e-05,16.6152640216767
8.47126929997906e-05,16.6252640216767
8.56505960167125e-05,16.6352640216767
8.76305947225229e-05,16.6452640216767
9.04552083759655e-05,16.6552640216767
9.4000486194949e-05,16.6652640216767
9.81958966745925e-05,16.6752640216767
0.000103010532070829,16.6852640216767
0.000108443893947846,16.6952640216767
0.00011452006606104,16.7052640216767
0.000121284425773276,16.7152640216767
0.000128802317786902,16.7252640216767
0.0001371593426286,16.7352640216767
0.000146463104259634,16.7452640216767
0.000156846428470826,16.7552640216767
0.00016847222562875,16.7652640216767
0.0001815403519607,16.7752640216767
0.000196297052423102,16.7852640216767
0.000213047885242797,16.7952640216767
0.000232175493642865,16.8052640216767
0.000254164301405236,16.8152640216767
0.000279635330314563,16.8252640216767
0.000309396156817199,16.8352640216767
0.000344514061476364,16.8452640216767
0.000386425646069762,16.8552640216767
0.000437105470752591,16.8652640216767
0.000496602105959593,16.8748612993557
0.000564114288734784,16.8837297054136
0.000640568330411978,16.8919121986768
0.000727135810338958,16.8994621415036
0.000825167407450213,16.9064294955712
0.000936198691072715,16.9128605928442
0.00106196997954556,16.91879842032
0.00120445224738535,16.9242828814994
0.001365878999768,16.9293510047457
0.0015487803304787,16.9340371495157
0.00175602572399985,16.9383732174789
0.00199087205745268,16.9423888606557
0.00225702438729951,16.9461116587228
0.00255870519500704,16.9495672914343
0.00290074585993405,16.9527797290838
0.00328870173729014,16.9557714304874
0.00372900046659054,16.9585635385673
0.00422914486680299,16.9611761116777
0.00479799429247277,16.9636284062996
0.00544617055117447,16.9659392279464
0.00617597886930332,16.968098552898
0.00698173018525938,16.9700905039823
0.0078740739885367,16.9719490529634
0.00886909374877446,16.9737084470082
0.00999230472645962,16.9754062709713
0.0112902635991871,16.9770935179921
0.0129233665674201,16.9789223734997
0.0154079304799807,16.9812999320307
0.0170071861289755,16.9826728647065
0.0186845784318401,16.9840457973823
0.0202119671392499,16.9852822985855
0.0215792214080878,16.9864218238792
0.0228048447738333,16.987519499063
0.0238840238940099,16.9886151763931
0.0247947833848992,16.9897486233276
0.0254940624760177,16.9909764143096
0.0258905653747626,16.9924180848456
0.025623050904989,16.9945983092631
0.0249056535217599,16.9960898442222
0.0238550079169028,16.9975813791814
0.0226546427800012,16.9989747602822
0.0213083753349571,17.000375238562
0.0198254307834545,17.001831099004
0.0182144897449688,17.0033796387517
0.017168709438638,17.0043888618137
0.0161576456457582,17.0053980848757
0.0141901233714871,17.007513452861
0.0123409098784498,17.0097338219498
0.0103295760454686,17.0124995289117
0.00920809785115328,17.014255898742
0.00819758278743168,17.0160122685723
0.00737661341278153,17.0175913815605
0.00667520789577484,17.0190745972615
0.00603465859926844,17.0205615127097
0.00541554455073658,17.0221461448455
0.00477266895459402,17.0239831655329
0.00398416502757865,17.0265865445766
0.00326778831708362,17.0294196326272
0.00272025254351271,17.0320240201803
0.0022605712108628,17.034644246815
0.0018319683032681,17.037625050723
0.00143474571603613,17.0411374415543
0.00111326426101345,17.0449408741937
0.000869192929206652,17.0490884055884
0.000710433092418569,17.0536592285666
0.000659130843001991,17.058214872349
0.000707214284199735,17.0622797527547
0.000837632602168908,17.0659379308319
0.00104184159436319,17.0692298903071
0.00131645035639869,17.0722057927079
0.0016616491674758,17.0749142218394
0.00208115913360178,17.0774047043597
0.00258357911579567,17.0797303473007
0.00318371046029858,17.0819452251895
0.0039106424381646,17.0841216132397
0.00481034454000655,17.0863366327666
0.00599375216005691,17.0887537656122
0.00761292142262454,17.0915100321265
0.00958308304674862,17.0943302981368
0.01106612142845,17.096173739676
0.0127409072996103,17.0980171812152
0.0144503926770318,17.0996700132562
0.0162699559467836,17.101209307716
0.0182298608108701,17.1026524756801
0.0203887008146432,17.1040297604251
0.022788026486886,17.1053504926781
0.0254676246918039,17.1066194685147
0.0284728672633832,17.1078416118935
0.0318498926308722,17.1090197488724
0.0356444198638788,17.1101550521176
0.0399166418034461,17.1112514985152
0.044730130669577,17.1123116225707
0.050156309481534,17.1133378130364
0.0562844381962342,17.1143337043501
0.0632170689778022,17.1153025231336
0.0710761399773941,17.1162476345664
0.080009173870447,17.1171726974755
0.0901977272358067,17.118081802865
0.101865778065182,17.1189793716049
0.115295277302873,17.1198704211291
0.130847087158845,17.1207607712532
0.148997551214753,17.121657618597
0.170393782675442,17.1225701716222
0.195682401377986,17.1235017033891
0.224948654704224,17.1244361110491
0.258930969830939,17.1253826563805
0.298640286408761,17.1263559320299
0.34573089251267,17.1273850796866
0.382798343186363,17.1281347521321
0.42124223453646,17.1288844245777
0.455351179622033,17.129549998074
0.48522794793751,17.1301580549695
0.511432749754475,17.1307406594848
0.533942701676336,17.1313217315911
0.552246157667583,17.1319255902773
0.565134778351887,17.1325875102855
0.569652176115615,17.1333438511635
0.562625018312337,17.1341198283658
0.542860128418637,17.1349364958432
0.508480980225732,17.1358121060935
0.459770056251332,17.1367149803094
0.396691724400786,17.1376430946629
0.348461839249637,17.1382567845401
0.295982344339307,17.1388704744172
0.249933379961657,17.1393830254299
0.210817350280633,17.1398116195296
0.17664006381802,17.140189365497
0.146135399109049,17.1405359414217
0.118548814586472,17.1408634334336
0.0933641399468398,17.1411806815074
0.0701570505035869,17.1414957766486
0.0484694888992563,17.1418187552936
0.0275184126885534,17.1421688748238
0.00400281208679907,17.1426307995729
-0.00414073675296656,17.1428159997649
-0.0115856346715327,17.1430011999569
-0.0179866306992634,17.1431756301032
-0.0241241791314031,17.1433594655915
-0.0302519110922894,17.1435636141944
-0.0361328459620802,17.1437848117629
-0.0416207963475789,17.1440212498037
-0.0466349573257623,17.1442723757119
-0.0511338449953218,17.144538483918
-0.0550998599583574,17.1448204932573
-0.0585301181315429,17.1451198443504
-0.0614284040720341,17.1454384724044
-0.0639269619369924,17.1458012331611
-0.0657284802482537,17.1461649349793
-0.0670357212954082,17.1465567860416
-0.0678644741144902,17.1469817421518
-0.0682262517001976,17.14744566108
-0.0681281452140502,17.147956012902
-0.0675702133070111,17.1485227226857
-0.0665393782630846,17.1491603840875
-0.0650047582354457,17.1498885843244
-0.062903187523948,17.1507378688079
-0.0600981894912719,17.1517639129086
-0.0561984608482284,17.1531101434771
-0.0520448834818239,17.1545098429214
-0.0480262696240797,17.1558666790523
-0.0441891579079726,17.1571844631166
-0.0405570846274957,17.1584649238422
-0.0371426199005368,17.1597085570486
-0.0339517286327502,17.1609152441209
-0.030985746274015,17.1620845825336
-0.0282424664482676,17.163216060071
-0.0257168763085939,17.1643091441439
-0.0234017429998091,17.1653633228504
-0.0212881273399621,17.1663781169287
-0.0193658487523455,17.1673530729547
-0.0176239068265782,17.1682877435351
-0.0160196964212783,17.1691999117493
-0.0144729151499648,17.1701353163193
-0.0129883857400018,17.1710952988793
-0.0115700684101626,17.1720818824084
-0.0102217398946469,17.1730974340551
-0.00894693744174471,17.1741447526824
-0.00774890588598921,17.1752271793991
-0.00663054195287761,17.1763487456235
-0.0055943355738199,17.1775143758224
-0.00464230748301581,17.1787301724182
-0.00377594152182937,17.1800038286666
-0.00299610858085034,17.1813452494916
-0.00230297626199072,17.1827675282392
-0.00169589253983917,17.1842885733603
-0.00118031738427061,17.1859087168975
-0.000768703515946948,17.187571319606
-0.000443860662786314,17.1892946985364
-0.000190738955387036,17.1910988289018
4.8061820939404e-06,17.1930101256811
0.000156436335625614,17.1950654670727
0.000277972369333469,17.1973204263348
0.000384592402651494,17.1998685259048
0.0004959901822577,17.2028991158824
0.00063677055159561,17.2066326732131
0.000801466101868578,17.2105285194119
0.0010139023258189,17.2149893243937
0.0012402245229695,17.2193780659763
0.00147024608234651,17.2236776190863
0.00171119200709224,17.2281425668818
0.0019839997612994,17.2332369123236
0.00224370271998342,17.2381386902864
0.00250458886914122,17.2431061200235
0.00273491010561761,17.2474933379052
0.00294529658258735,17.2514804234145
0.0031491095063148,17.2553045084901
0.00335292399910374,17.2590734522693
0.00356102701342437,17.2628504319372
0.00377687346344271,17.2666803113098
0.00400365223643226,17.2705992011197
0.00424457265220734,17.2746387530593
0.00450309088757682,17.2788291219489
0.00478308493033298,17.2832005681563
0.00508906260870201,17.2877847356145
0.0054264822315208,17.2926159496935
0.0058022772157339,17.2977324610529
0.00620352003621137,17.3028973268373
0.00662292002593617,17.3079772791248
0.00706547909435718,17.3129962720058
0.00753366018715938,17.3179378834898
0.00803246532475593,17.3228078613272
0.00856742850899696,17.3276097431578
0.00914493893209178,17.332347827985
0.00977199301463318,17.3370242635188
0.010456270826596,17.3416394632894
0.0112225314811489,17.3462867061197
0.0120853071763947,17.3509610846003
0.0130659185585592,17.3556775616598
0.0141937846110933,17.36046502552
0.0155160013480958,17.3653914228497
0.0171266793569422,17.3706328909685
0.0193256921133875,17.3768435348203
0.0210478068728885,17.3812140409417
0.0228636213958009,17.385584547063
0.0244022915354386,17.3892782299673
0.0256866126105443,17.3925302189912
0.0267614577743369,17.3955845763985
0.0276144882354333,17.3985461137936
0.0281988201336809,17.4013744406742
0.0285143717983422,17.4041897485245
0.0285331465781879,17.4071439250778
0.0281535881407412,17.4105478539915
0.02737208251527,17.4139640440851
0.0262522029667191,17.4173802341787
0.0251544641806569,17.420140201319
0.0240786512726997,17.4225800258375
0.0230046458187147,17.4248727785841
0.0219303118190563,17.4270872338011
0.0208583776998202,17.4292588771972
0.0197924978531619,17.431410088998
0.0187363499953498,17.4335567157566
0.0176934017578904,17.435710882588
0.0166668505529704,17.4378824332655
0.0156596156366104,17.4400797575614
0.0146743424953709,17.4423103172073
0.0137134168340505,17.4445809906621
0.0127789730194372,17.4468983329164
0.0118729044412308,17.4492687718377
0.0109968763360447,17.4516987610526
0.0101523279943556,17.4541949407908
0.00934049716740733,17.4567642551261
0.00856197194290318,17.4594158394548
0.00779548669935612,17.4622430085237
0.00704488533680286,17.4652652926677
0.00631390396011437,17.468506425264
0.00560649487088737,17.4719937699269
0.00492678731590988,17.4757590066762
0.00427902376391679,17.4798389973289
0.00366745128389503,17.4842770269296
0.00309614999108935,17.4891248234563
0.00256878568197982,17.4944462003684
0.00208832794438147,17.5003235385188
0.00165692594282509,17.5068670499817
0.00128625775136035,17.5140021036427
0.000977003516187347,17.5217208753152
0.00072253558294541,17.5301489626533
0.00052722941668568,17.5394488655321
0.00041108409365847,17.5473954900255
0.000304785290629725,17.5573954900255
0.000230661212029197,17.5673954900255
0.000179204425810093,17.5773954900255
0.000143991885234225,17.5873954900255
0.000120329624692107,17.5973954900255
0.000104772597045118,17.6073954900255
9.4868504604999e-05,17.6173954900256
8.8924894191017e-05,17.6273954900256
8.57934161476732e-05,17.6373954900256
8.46976001470704e-05,17.6473954900256
8.51114606825126e-05,17.6573954900256
8.66796335428807e-05,17.6673954900256
8.91655624932841e-05,17.6773954900256
9.24171231965135e-05,17.6873954900256
9.6343167258744e-05,17.6973954900256
0.000100897358786369,17.7073954900256
0.000106067205873468,17.7173954900256
0.000111866919516992,17.7273954900256
0.000118333131178807,17.7373954900256
0.00012552278815228,17.7473954900256
0.000133512787333204,17.7573954900256
0.000142401113335632,17.7673954900256
0.000152309422964515,17.7773954900256
0.000163387180048344,17.7873954900256
0.000175817614364195,17.7973954900256
0.000189825982769606,17.8073954900256
0.000205690884456394,17.8173954900256
0.000223759775591364,17.8273954900256
0.000244470420431473,17.8373954900256
0.00026838093745873,17.8473954900256
0.000296212576356723,17.8573954900256
0.00032891179745831,17.8673954900256
0.00036774236008789,17.8773954900256
0.000414425369204807,17.8873954900256
0.000470815917386903,17.8973079143193
0.00053490524133439,17.9064793007842
0.000607498058335615,17.9149415260972
0.000689691061332912,17.9227492003591
0.000782761976924868,17.9299538865898
0.000888167888329646,17.936603400599
0.00100756098728346,17.9427420915186
0.00114281252537482,17.9484111211071
0.00129604219890647,17.9536486940922
0.00146965199213025,17.958490258311
0.0016663637647569,17.9629687153682
0.00188926640547178,17.967114632334
0.00214187010141734,17.9709564341367
0.00242817132444868,17.9745205713664
0.00275273544495819,17.9778317034459
0.00312079914392861,17.9809128968862
0.00353840522727521,17.9837858182867
0.00401257912549908,17.9864709474205
0.00455157257054419,17.9889878378875
0.00516521163534621,17.9913554334571
0.00586541155484661,17.9935924927163
0.00663878685395258,17.9956497376101
0.00749372753842186,17.997559306509
0.0084438849653505,17.9993554681449
0.00951006504052255,18.0010736829816
0.0107277892318654,18.0027574389179
0.0121895698061888,18.0044987847676
0.0142089237354346,18.0065644705809
0.0159261613184386,18.0081192247916
0.0177782891477343,18.0096739790023
0.0194260203768243,18.0110092358677
0.0208753111589803,18.0121927474994
0.0221751051319825,18.0133070033875
0.0233333249120207,18.0143990963749
0.0243368180545526,18.0155071140662
0.0251549722960512,18.016676003544
0.025728305997572,18.0179817647042
0.0259054562065859,18.0196344388943
0.0254709243368622,18.0213509634916
0.0245077872979587,18.0230674880889
0.0233888182800849,18.0245105986384
0.0221280201333735,18.0259001894341
0.0207254753901088,18.0273183944131
0.0191902693623229,18.0288070410373
0.0175291746404852,18.0304042826406
0.015775113242709,18.0321593751342
0.0141140031606198,18.0339665243157
0.012249894376644,18.0362167211758
0.0102509973490689,18.0389833196658
0.00914850037698358,18.0407208694974
0.00815413050701045,18.042458419329
0.00734121480710259,18.0440292660998
0.00664376453596676,18.0455105734431
0.00600501885323384,18.0469999066445
0.00538587397684577,18.0485922848814
0.0047400055008799,18.0504485140527
0.00393465983704972,18.0531316331104
0.00322443440145392,18.0559752236788
0.00268450004557744,18.0585767038944
0.00222796412611772,18.0612148405381
0.00180031061995479,18.0642378722386
0.00140864390130194,18.0677696466981
0.00109271249033311,18.07159575385
0.000854466354537847,18.0757709710184
0.00070255194992166,18.0803761814386
0.000659441598310527,18.0848911544093
0.000713968526047074,18.0889251825032
0.000850015668728016,18.0925553105251
0.00105953740719558,18.0958236337007
0.001339305057329,18.0987782942056
0.00168982657409929,18.1014691542589
0.0021152609172174,18.1039465804452
0.00262413559549881,18.1062613831773
0.00323225833400804,18.1084702441217
0.00397009006824228,18.1106467783971
0.00488600506491186,18.1128703509465
0.00609738430494861,18.1153111031089
0.00774172951508613,18.1180746108138
0.00973484212444437,18.1208937543966
0.0116123238399052,18.1231660655395
0.0133418884783785,18.1249878970186
0.0150827501942092,18.1265938168655
0.0169439842478974,18.128093609673
0.0189711696308907,18.1295130931067
0.0212076775079787,18.1308677970245
0.0237028610715925,18.1321704212985
0.0264913028431097,18.1334218328326
0.0296225283431637,18.1346280757768
0.0331413021055096,18.1357907569114
0.0370977570886867,18.136911951926
0.0415534127258798,18.1379951852896
0.0465749279972291,18.1390430346819
0.0522386059206306,18.1400581287199
0.0586384859604651,18.141044044903
0.0658836502817934,18.1420040797019
0.0741042340206201,18.1429416728823
0.0834586243642648,18.1438606099611
0.0941421490942888,18.1447650969644
0.106397303888253,18.1456597428123
0.12053129934447,18.1465498315848
0.136940532060917,18.1474415771603
0.15615356739132,18.1483427815717
0.178900300114331,18.1492637112115
0.205519057669475,18.150195386262
0.236354156421071,18.1511328291666
0.272221009050522,18.1520867015233
0.314288288012057,18.1530750274837
0.364683472077958,18.1541379795177
0.400109572811967,18.1548389774815
0.436229651966094,18.1555399754453
0.468406990063893,18.1561758095065
0.496705233050419,18.1567698846958
0.52138444248348,18.1573490890388
0.542215580447148,18.157936476464
0.558445326773212,18.1585592580576
0.56835173439432,18.1592638039243
0.568202794623764,18.1600256434031
0.556095095402726,18.1608159969314
0.530558118509731,18.161655030209
0.48999050562387,18.1625488399331
0.435016896988276,18.1634665818553
0.368677074878775,18.164371578296
0.323404232726756,18.1649198885155
0.275227320386234,18.165468198735
0.232631056638746,18.1659374835183
0.195831238526568,18.1663411483043
0.163326944920589,18.1667038540636
0.134131893855032,18.1670411302265
0.10761739633862,18.1673632983046
0.0833204923586029,18.1676786125399
0.0608207295868006,18.1679955614224
0.0395828161959022,18.1683265500948
0.0183844166399562,18.168702443115
0.00914569591767781,18.1688863649794
0.000634073044834217,18.1690702868438
-0.00856845769783328,18.1692889071442
-0.0154374535088275,18.1694690920225
-0.0214749739188391,18.1696427038287
-0.027638716977534,18.1698385182795
-0.0336485527059552,18.1700527078993
-0.0393182218075554,18.1702827310158
-0.04454276575037,18.1705275567381
-0.0492662117201431,18.1707871523104
-0.0534621100796096,18.1710621866294
-0.0571221104635254,18.1713538832706
-0.0602490333104098,18.1716639645952
-0.0629089112029373,18.1720044294543
-0.064945970622145,18.172355985406
-0.0664824417627619,18.1727339712908
-0.0675340492208881,18.1731427465507
-0.0681137161772243,18.1735875670366
-0.0682308563466814,18.1740750790854
-0.0678892990166507,18.174613862339
-0.0670828282076778,18.175216244669
-0.0657898977590843,18.1758990180295
-0.0639652328851338,18.1766866425356
-0.0615153767104227,18.1776200244173
-0.0582155306449962,18.1787852313237
-0.0540207941112956,18.180210238646
-0.0499292124122435,18.1815870358003
-0.0460013145855685,18.1829231849693
-0.0422690046378109,18.1842213903693
-0.0387492950892698,18.185482637165
-0.0354509726787336,18.1867070457158
-0.0323774170779223,18.1878943202075
-0.0295280106727178,18.1890439856668
-0.0268990042412238,18.190155511732
-0.0244841598594407,18.1912283736171
-0.0222752942749278,18.1922620762963
-0.0202627658162242,18.1932561557399
-0.018435916616084,18.19421016481
-0.016783471138842,18.1951236480253
-0.0152084217810276,18.1960477761511
-0.0136934859608314,18.1969957186952
-0.0122428792195415,18.19796925225
-0.0108604738722647,18.198970568687
-0.00954992863859964,18.2000022475393
-0.00831463559649549,18.2010673535968
-0.00715766581291122,18.2021695652508
-0.00608171215425065,18.2033133483049
-0.00508902880376449,18.2045041970749
-0.00418136637727544,18.2057489784308
-0.00335990040002517,18.2070564395767
-0.002625148834231,18.2084379888129
-0.00197687027046358,18.2099089585697
-0.00141392558340109,18.2114907856141
-0.000954687981277548,18.2131307294598
-0.000590102574637298,18.2148227165973
-0.000304335420115274,18.2165852140385
-8.28501834811797e-05,18.2184411931645
8.81831226377259e-05,18.2204218138809
0.000222407066592925,18.222572205078
0.000334132785996595,18.2249639679564
0.000440222934596614,18.2277279033384
0.000566466095343135,18.2311756774437
0.000716298814521246,18.2349416668129
0.000902963944549216,18.2390842005535
0.00112714894867469,18.2435811504391
0.00135506684676618,18.2479003362378
0.00158908382449085,18.2522440702774
0.00184210265835731,18.2569436610659
0.00210608450694831,18.2618983378011
0.0023641431897254,18.2667928109718
0.00261807741619383,18.2716349399895
0.00283661386487119,18.2757897261259
0.00304279378433362,18.2796806790697
0.00324598389440209,18.2834687325707
0.00345138040576008,18.287235084804
0.00366276944480503,18.2910323435732
0.00388343535989183,18.2949005033318
0.00411654639754141,18.2988731192477
0.00436540553168335,18.3029808530595
0.00463364769053154,18.3072537385944
0.00492542056198907,18.3117225408838
0.00524563444435602,18.3164200112607
0.00560037079918395,18.3213822325067
0.00599591280670048,18.326628468504
0.00640310757173381,18.3317195949005
0.00683422988593799,18.3367817215282
0.0072883849865654,18.3417600256706
0.00777079733335809,18.3466672087257
0.00828631732954537,18.3515034388165
0.00884103037075339,18.3562741049385
0.00944158832066977,18.3609822044697
0.0100953157435344,18.3656290578575
0.0108171062130108,18.3702562522596
0.0116280256107968,18.374916047428
0.0125449512958947,18.3796084721819
0.013592585597601,18.3843541519311
0.0148071302172457,18.3891965451443
0.0162521148336185,18.3942411687496
0.0180786524135374,18.3997963276392
0.0205001345058407,18.4062222689781
0.0220651832572621,18.4100438029812
0.0236666511083576,18.4138653369843
0.0250637929720046,18.4172849647352
0.026242309666798,18.4204164280999
0.0272154163960963,18.4234309904356
0.0279349118983892,18.4263116420851
0.0283882974859335,18.4291174945518
0.0285640010173395,18.4319777321986
0.0284089518838667,18.4350909628611
0.0277026368292217,18.439072276118
0.0268584990392644,18.4420094197963
0.0257921914915418,18.4449465634746
0.024714508552765,18.4475251926858
0.0236409346568852,18.4498916057232
0.0225666548358066,18.4521467605651
0.0214928898261952,18.454340470927
0.0204229784220228,18.456501561579
0.019360637129986,18.4586492581849
0.0183094709186767,18.4607976579961
0.0172728412554375,18.46295782574
0.0162538312223588,18.4651389362702
0.0152552474143854,18.4673489500876
0.014279628615177,18.4695950544936
0.0133292556818194,18.471883972176
0.0124061653674216,18.474222180749
0.0115121563190657,18.4766161019801
0.0106487986608696,18.4790722544784
0.00981744784547922,18.4815973774897
0.0090192783096937,18.4841985895258
0.00824529677503208,18.4869199784347
0.00748490725750031,18.4898246484534
0.00674190872950131,18.4929337825071
0.00602013084642037,18.4962725247871
0.00532360228267827,18.4998699302806
0.00465650886744291,18.5037596866938
0.00402311194856146,18.5079811081724
0.00342761542807754,18.5125806310147
0.00287396288706757,18.5176143707043
0.00236556156064281,18.5231528327359
0.0019050458403539,18.5292885734511
0.00149519171580008,18.5361287280303
0.00115079933467361,18.5434939650799
0.000865073963154299,18.5514898357423
0.000634847362481116,18.560258523885
0.000486512607445118,18.5684158250068
0.000362964104835853,18.5778833209594
0.000271071130048979,18.5878833209594
0.000207089376586783,18.5978833209594
0.000162978774064148,18.6078833209594
0.000133039835635556,18.6178833209594
0.000113091508812119,18.6278833209594
0.000100119643332302,18.6378833209594
9.20177183115527e-05,18.6478833209594
8.73463671049975e-05,18.6578833209594
8.51304752264175e-05,18.6678833209594
8.47091175817906e-05,18.6778833209594
8.56341104974292e-05,18.6878833209594
8.76038760306617e-05,18.6978833209594
9.04199805084898e-05,18.7078833209594
9.39577875048476e-05,18.7178833209594
9.8146263377896e-05,18.7278833209594
0.000102954122291823,18.7378833209594
0.000108380568473091,18.7478833209594
0.000114449437088263,18.7578833209594
0.00012120588142168,18.7678833209594
0.000128715027333268,18.7778833209594
0.000137062245145277,18.7878833209594
0.000146354881404762,18.7978833209594
0.000156725460420938,18.8078833209595
0.000168336527308802,18.8178833209595
0.000181387484532248,18.8278833209595
0.000196124002072014,18.8378833209595
0.00021285089713678,18.8478833209595
0.000231949842679174,18.8578833209595
0.000253903971671971,18.8678833209595
0.00027933255969473,18.8778833209595
0.000309040777706743,18.8878833209595
0.000344092525538619,18.8978833209595
0.000385919545865952,18.9078833209595
0.000436489235581759,18.9178833209595
0.000495901408048345,18.9274888105585
0.000563320545341738,18.9363651109204
0.000639669592804912,18.9445548922776
0.000726118118161397,18.9521115494793
0.000824014827290362,18.9590850858699
0.000934893152541499,18.9655218720107
0.00106049101612592,18.9714649303683
0.00120277667916074,18.9769541972995
0.00136398055476426,18.982026731847
0.00154662924857515,18.9867169218207
0.00175358822799294,18.9910566949005
0.00198810977888841,18.995075726926
0.00225389365118821,18.9988016195816
0.0025551561244355,19.0022600726179
0.00289672128572783,19.0054750741187
0.00328413572621392,19.0084690985749
0.00372381644357606,19.0112633022715
0.00422325301226872,19.0138777540947
0.00479128782733509,19.0163317176464
0.00543852031093189,19.0186440010489
0.00616753791385278,19.0208053651083
0.00697240359598035,19.022798977439
0.00786371743342096,19.0246588098645
0.008857490304776,19.0264191026296
0.00997909185417827,19.0281173660822
0.0112747219460817,19.0298043412887
0.0129025555905684,19.0316303022107
0.0153758981808049,19.034001085682
0.0169771394720785,19.0353774222345
0.0186577900253286,19.0367537587871
0.0201882683952425,19.0379925823773
0.0215579368243699,19.0391331968101
0.0227858748284779,19.0402312173113
0.0238675919814001,19.0413266241694
0.0247813921572225,19.0424590713525
0.0254846733927058,19.0436846440089
0.0258874989348896,19.0451209247709
0.0256369511985805,19.0472871096725
0.0249275367437277,19.0487828152478
0.0238807007525468,19.050278520823
0.0226837938659928,19.0516725653213
0.0213408107290692,19.0530722374055
0.0198609153605939,19.0545263967793
0.0182528728612668,19.056072360343
0.0172239956480933,19.0570647891556
0.0162269136078516,19.0580572179683
0.0142546815659122,19.0601701941972
0.0124044133817339,19.0623828424596
0.0104110693104374,19.0651084294666
0.00926917008550685,19.066885229002
0.00824133615817148,19.0686620285374
0.00741205316642376,19.0702497341892
0.00670657177842892,19.0717350328729
0.00606409087781445,19.0732198061207
0.00544482750783715,19.0747972190781
0.00480457044155286,19.0766164057647
0.00403060313113084,19.0791499468243
0.00330841584743298,19.081973424306
0.00275317894251292,19.0845832720022
0.00229028752056259,19.0871891849551
0.00186063570617574,19.0901338947134
0.00145840094288374,19.0936290320668
0.00113193565025546,19.0974122383838
0.000882666921465911,19.1015350959508
0.000717858389800726,19.1060753139159
0.000659156071564769,19.1106678214621
0.000701485946991741,19.1147600442318
0.000826921411778994,19.1184434647339
0.00102653746808772,19.1217577321802
0.00129664992907231,19.1247525864948
0.00163722897728981,19.1274767296701
0.00205174520890978,19.1299796241614
0.00254854955708049,19.1323146662771
0.00314184864552109,19.1345351336152
0.00385937950483676,19.1367114347156
0.00474547767206633,19.138919865427
0.00590552323691041,19.1413176254602
0.00750309086459689,19.1440675624745
0.0094530249883928,19.1468879373409
0.010936646030848,19.1487509063128
0.0126124886679688,19.1506138752848
0.0143181315931518,19.1522795051529
0.0161282249564732,19.1538265949555
0.0180754561464784,19.1552757851898
0.0202172382335374,19.1566573055999
0.0225972006914175,19.157982248497
0.025253488195991,19.1592546987193
0.0282328141241402,19.1604804257952
0.0315794829811774,19.1616616431393
0.0353404212607873,19.1628000867313
0.0395745680645934,19.1638994673033
0.0443443164750966,19.1649621973241
0.0497210749813816,19.1659908390654
0.0557927087571465,19.1669889409971
0.0626604249114231,19.1679597141365
0.0704439958151166,19.1689064517715
0.0792896407291366,19.1698328989315
0.0893757450991565,19.1707430729089
0.100922549673117,19.171641356078
0.11420691936382,19.172532710732
0.129582661869957,19.1734228798742
0.147515920483923,19.174318946229
0.168637872971772,19.1752299186088
0.193652898555894,19.1761615346832
0.222597257773201,19.1770954495673
0.256194779681358,19.1780406713802
0.295428689046346,19.1790112104387
0.341877186240017,19.1800344424182
0.379293671652151,19.1807951971969
0.41823443934862,19.1815559519757
0.452751425637074,19.1822284220378
0.482942924931362,19.182839802952
0.509439914720526,19.18342353005
0.532262011890392,19.1840038782691
0.550939481639646,19.1846048177884
0.564340968349972,19.1852601016292
0.569702963224701,19.1860158640695
0.563585041875238,19.1867895959841
0.544843369911854,19.1876024915561
0.511653587217817,19.1884730869848
0.464071356313705,19.1893736917333
0.401902225908384,19.1903026018657
0.353100797825096,19.1909300398503
0.299753711362347,19.1915574778349
0.253025846633752,19.1920788280852
0.213470477937998,19.1925123342377
0.178985227122312,19.1928929852148
0.148243542344695,19.1932413577018
0.120464413200027,19.1935699145765
0.0951201730742421,19.1938876373455
0.0717836766063899,19.1942025961164
0.0500050825380583,19.1945245473734
0.029047361032943,19.1948715073511
0.00611047236618457,19.1953151900581
-0.00272273331383071,19.1955123816577
-0.0107581349936654,19.1957095732572
-0.0172868198572196,19.195885595305
-0.0234055426023239,19.1960667966809
-0.0295480928132766,19.1962687648308
-0.0354668386763116,19.1964881018239
-0.0410056140967288,19.1967228152518
-0.046077595182462,19.1969722314215
-0.0506376764298701,19.1972365606159
-0.0546660401820834,19.1975166560946
-0.0581584317404398,19.1978139003682
-0.0611189429683656,19.1981301706712
-0.0637044132734511,19.1984936532161
-0.0655598086933316,19.1988545925132
-0.0669190218016205,19.1992431976664
-0.0677983327016629,19.1996643575968
-0.0682096135749081,19.2001237862447
-0.0681605280023397,19.2006287542794
-0.0676521973409855,19.2011887546018
-0.0666730692895982,19.2018180160077
-0.0651946330644588,19.2025353244611
-0.0631583739092688,19.203369639374
-0.0604396007443198,19.2043725860187
-0.0566981386873665,19.2056699721961
-0.0525331814286796,19.2070754047653
-0.0484954263863759,19.2084371203709
-0.0446352269634058,19.2097594393426
-0.0409779563059569,19.2110443057217
-0.0375371923679829,19.2122923239664
-0.0343195585154814,19.2135034280803
-0.031326875092064,19.2146772385461
-0.0285573151498886,19.2158132506402
-0.0260061675425044,19.216910931547
-0.0236664358022031,19.2179697659713
-0.0215293587023119,19.2189892709199
-0.0195848805113998,19.2199689907814
-0.0178220777791066,19.2209084788724
-0.0162112343444355,19.2218179163856
-0.0146571837498536,19.2227504653769
-0.0131648947003361,19.2237073672174
-0.0117383460003495,19.2246906081204
-0.0103813399605859,19.2257025090612
-0.00909744563017269,19.2267458113016
-0.00788994620848522,19.2278237832152
-0.0067617836868107,19.2289403630404
-0.00571550055127366,19.2301003537883
-0.00475317789348996,19.2313096962197
-0.00387636848259714,19.2325758628461
-0.00308602196152625,19.2339084475029
-0.00238239670426862,19.2353200873474
-0.00176494758338185,19.2368279866186
-0.00123577242384986,19.2384441554403
-0.000812787064366419,19.2401006486364
-0.000478437701943179,19.2418158574536
-0.00021754494276081,19.2436091570383
-1.58751091603247e-05,19.2455060398385
0.000140262847365774,19.247541824328
0.000264624786231222,19.2497691810067
0.000372126219505209,19.2522753553529
0.0004815931315935,19.2552319975831
0.00062137795518682,19.2589706521908
0.000782081090501659,19.2628237614599
0.000988411594106834,19.2672063754674
0.00121422504123471,19.2716147375233
0.00144362644480341,19.2759133946484
0.00168263363845083,19.2803423878558
0.00195095703084567,19.2853459737508
0.00221124524151091,19.2902525990895
0.00247102294395982,19.295195228802
0.00270580663256418,19.2996693304124
0.00291783378355677,19.303691504059
0.00312206051476191,19.3075295428111
0.00332559797736456,19.3113016019353
0.00353291966951951,19.3150746567228
0.00374754814526022,19.3188952680559
0.00397268836354242,19.3228004125893
0.00421153248659901,19.3268221353971
0.00446749350160808,19.3309906820804
0.00474438256706116,19.3353362215287
0.00504660840934985,19.3398901390802
0.00537947757909277,19.3446863234674
0.00574968737791725,19.3497624538536
0.00614946378264747,19.3549489119023
0.00656568546689593,19.3600324842558
0.00700521797943932,19.3650627659263
0.00746967537183264,19.3700138877729
0.00796411585531404,19.3748933498106
0.00849390722179272,19.3797039724461
0.0090653650630012,19.384450389631
0.00968539635544748,19.3891349710932
0.0103615863981946,19.3937583446825
0.0111160316275089,19.3984003561808
0.0119649886392567,19.4030706956927
0.0129285648530258,19.4077804111603
0.0140347925034486,19.4125557981969
0.0153274800292903,19.4174573482216
0.0168909402586347,19.4226385293677
0.0189702582638926,19.4286259847366
0.0207624798737267,19.433239932826
0.0226703917817205,19.4378538809154
0.0242500415108993,19.441636685594
0.0255590033226243,19.4449230612794
0.0266558169675885,19.4479906493574
0.0275379793421625,19.4509739623343
0.02815016200795,19.4538110097036
0.0284944978536547,19.456621522446
0.0285470298540817,19.4595515440015
0.0282194858855724,19.4628797834514
0.0272174533447318,19.4672290590908
0.026322528835146,19.4699192932351
0.0252642590564187,19.4726095273795
0.0241916643501112,19.4750620854337
0.0231180175656926,19.477365517621
0.0220436500922191,19.4795861537753
0.0209713058426799,19.4817610669987
0.0199046194325027,19.4839135713768
0.0188472835544583,19.4860600309341
0.0178027921833544,19.4882128803167
0.0167743727178067,19.4903821560927
0.0157649733649095,19.4925763732783
0.0147772681258738,19.4948030724025
0.013813670106617,19.4970691789531
0.0128763391488513,19.4993812732881
0.0119671941393285,19.5017457873367
0.0110879240740932,19.5041691647591
0.0102399913321461,19.5066580206308
0.00942465197624037,19.5092192594115
0.00864300634905818,19.5118602265355
0.00787508849720005,19.5146681095633
0.00712264714132066,19.5176689151393
0.0063894238520081,19.5208859277193
0.00567935040457506,19.5243460990908
0.00499653961823627,19.5280806232335
0.00434522629739096,19.53212577123
0.00372966407146571,19.5365240795331
0.00315395875616548,19.5413262796656
0.00262183987766596,19.546594613921
0.00213635369123444,19.5524091854893
0.00169973434394728,19.5588767967037
0.00132221664942813,19.5659563542225
0.00100682184310503,19.5736085279281
0.000746894791502394,19.5819550049363
0.000544973778002109,19.5911572926355
0.000425651414168899,19.5989916921064
0.000314941419835519,19.6089916921064
0.000237779682144793,19.6189916921064
0.000184132639409139,19.6289916921064
0.000147339005489602,19.6389916921064
0.000122555750964568,19.6489916921064
0.000106215963877487,19.6589916921064
9.5766898221391e-05,19.6689916921064
8.94402586977797e-05,19.6789916921064
8.60347657155641e-05,19.6889916921064
8.47384692767423e-05,19.6989916921064
8.50016304253849e-05,19.7089916921065
8.64526147059373e-05,19.7189916921065
8.88434167036066e-05,19.7289916921065
9.20136923413021e-05,19.7389916921065
9.58663018082155e-05,19.7489916921065
0.000100350456199006,19.7589916921065
0.000105450242805485,19.7689916921065
0.000111177104905865,19.7789916921065
0.000117565273218909,19.7889916921065
0.000124669439798411,19.7989916921065
0.000132564209688639,19.8089916921065
0.000141345074454503,19.8189916921065
0.000151130830500402,19.8289916921065
0.000162067527794478,19.8389916921065
0.000174334202291225,19.8489916921065
0.000188150844271207,19.8589916921065
0.000203789318608127,19.8689916921065
0.000221588329497141,19.8789916921065
0.000241974086167801,19.8889916921065
0.000265489201133166,19.8989916921065
0.000292833750882334,19.9089916921065
0.000324924727232164,19.9189916921065
0.000362983995725179,19.9289916921065
0.000408671663179784,19.9389916921065
0.000464274684904976,19.9489884965756
0.00052749579031518,19.9582410149452
0.000599109626239051,19.9667781538422
0.000680193572895285,19.9746548575354
0.000772006708340674,19.9819231183529
0.00087598626365479,19.9886311500672
0.000983179682925527,19.9943155750336
0.00111333796863465,20
