ecg,time
0.00118688050859569,15.0000226825807
0.00090294844903825,15.0080251344717
0.00072051118186355,15.0151473363833
0.000546533857099996,15.024233600702
0.000417614453307345,15.0335934993116
0.000320543429974735,15.0435934993116
0.000253915485582731,15.0535934993116
0.000208872617083362,15.0635934993116
0.000178949911683419,15.0735934993116
0.000159546812285214,15.0835934993116
0.000147485476274554,15.0935934993116
0.000140610924983884,15.1035934993116
0.000137470459609398,15.1135934993116
0.000137085669206524,15.1235934993116
0.000138801658854969,15.1335934993116
0.000142189477356328,15.1435934993116
0.000146982087019412,15.1535934993116
0.000153031487852633,15.1635934993116
0.000160280049845043,15.1735934993116
0.000168742136847772,15.1835934993116
0.000178493632926126,15.1935934993116
0.000189667865801027,15.2035934993116
0.000202457112863235,15.2135934993116
0.000217119543348633,15.2235934993116
0.000233992171826333,15.2335934993116
0.000253511266252427,15.2435934993116
0.00027624283070444,15.2535934993116
0.000302927546667411,15.2635934993116
0.000334547391256713,15.2735934993116
0.000372425935840402,15.2835934993116
0.000418382740598844,15.2935934993116
0.000473230278372224,15.3033108315873
0.000535841319693027,15.3122965269005
0.000607108872346563,15.3205887609474
0.000688186960661531,15.328240902908
0.000780410237677916,15.3353031742594
0.000885297360788638,15.3418222218268
0.0010045692514844,15.3478413697632
0.00114017425746947,15.3534008652147
0.0012943184615115,15.3585380939876
0.00146949990851948,15.3632877828342
0.00166854882965237,15.367682197019
0.0018946749849916,15.3717513322596
0.00215152505802329,15.3755230949455
0.00244325132523005,15.3790234777095
0.00277459901898279,15.3822767413076
0.00315101632192351,15.3853056044513
0.00357879815416877,15.3881314430132
0.00406527928924269,15.39077451553
0.00461910159841407,15.3932542337154
0.00525059923741209,15.395589504893
0.0059658406583911,15.3977809391956
0.0067560104227818,15.3997997829068
0.0076311437306038,15.4016801650399
0.00860645972140131,15.4034564696811
0.0097057958361674,15.4051656832471
0.0109717361468312,15.4068563563998
0.0125391537161221,15.4086592285348
0.0148907996810462,15.4109706766401
0.0165018668365525,15.412384441899
0.0182047365968107,15.413798207158
0.0197586872429778,15.4150648013331
0.0211448810990932,15.4162198120602
0.0223882595196274,15.4173243547344
0.0234875593460893,15.4184200259766
0.0244237132231384,15.4195456149984
0.0251582650827357,15.4207528654773
0.025613006338675,15.4221424305459
0.0255306416638619,15.4240908232156
0.0249119624844852,15.4256492518129
0.0239005104656028,15.4272076804102
0.0227363179015978,15.4286154885129
0.0214254858888023,15.4300096411481
0.0199754408362602,15.4314476532397
0.0183954324989669,15.4329676459424
0.0173085879880731,15.4340106542146
0.0162450060069637,15.4350536624868
0.0151194504481137,15.4362127634513
0.0126546732136041,15.4390082282951
0.0104390661566593,15.4419284027418
0.00869984126658683,15.4446104185558
0.00730606313836528,15.4471111537886
0.00610283264930252,15.4496201023837
0.00504824051077607,15.452187960863
0.00412896691900769,15.4548161518674
0.00338563428840952,15.4573083045082
0.00277549769780586,15.4596886867713
0.00226449279159892,15.4619935454507
0.00182554785661119,15.4642724290037
0.00143430777749824,15.4666083988341
0.00105937583967405,15.4692002543747
0.000769311752976115,15.4715141143015
0.000514938853766059,15.4738279742284
0.000327932636922804,15.4757398796612
0.000178073133041762,15.4774273907656
4.53857529136176e-05,15.4790565035303
-7.99026120893851e-05,15.48072894007
-0.00020589394775027,15.4825618378321
-0.000345580298785137,15.484799214459
-0.000570911293801885,15.4889600012261
-0.000748987570112628,15.4928606447765
-0.000879124636910278,15.4961548499821
-0.000999250744798818,15.499623073156
-0.00112709794062019,15.5039214400017
-0.00126392395998554,15.5096814485591
-0.00134328850968828,15.514619780776
-0.00137274500868712,15.5191122311911
-0.00134713565932191,15.5231548349614
-0.00126085275713029,15.5267973084816
-0.00110786203384495,15.5300895918714
-0.000881808434751442,15.5330852938066
-0.000574648938815235,15.5358455921042
-0.000174838794124579,15.5384342758942
0.000336518641425486,15.5409233550133
0.000992462905185899,15.5434000987219
0.00186442450347151,15.5460119317199
0.00309648711953076,15.5489817687861
0.00466922040485768,15.5520992040519
0.00607049064840097,15.5544841477295
0.00766589687100162,15.5568690914071
0.00917055365958386,15.5588448958874
0.0107235205666751,15.5606415481666
0.0123229034444055,15.5622667255677
0.014073340381218,15.5638228189192
0.0159868637192987,15.5653030573674
0.0181086959600553,15.566725814337
0.0204705010550742,15.5680942826938
0.0231051458672535,15.5694107568184
0.0260524644969333,15.5706792920458
0.0293471555501459,15.5719000440433
0.0330387960616625,15.5730774389063
0.0371787576671404,15.574214090761
0.0418258484273496,15.5753127410719
0.0470483139880804,15.5763763194679
0.052930672904847,15.5774087125077
0.0595710046734111,15.578413465791
0.0670873058283268,15.579394363066
0.075623380282185,15.5803555112698
0.085355970675662,15.5813013597652
0.0965095922206421,15.5822371859178
0.109372465751473,15.583169137405
0.124325863455664,15.5841047862893
0.141893661078643,15.5850540224995
0.162834667601732,15.586030757648
0.187114137850898,15.5870107246581
0.2153106315239,15.5880014758226
0.248245151348459,15.5890164913935
0.287104226867021,15.5900773433365
0.333122070608077,15.5912081149474
0.37556057207199,15.592181736093
0.410485240522434,15.5929672116635
0.440575169673231,15.5936598473613
0.466885370013349,15.5943066995349
0.489596217444093,15.5949350272099
0.508426340294297,15.5955671631683
0.522624712456989,15.5962278839569
0.53062640258482,15.5969542197552
0.529311491835198,15.5977536679264
0.516578635869778,15.5985732026738
0.491098088515642,15.5994297419263
0.451093724144114,15.6003358628248
0.39456035202059,15.6013001028647
0.348915070278275,15.6019511025982
0.298160179271507,15.6026021023317
0.253117186737967,15.6031432742542
0.214734786270912,15.6035922264789
0.181143392903466,15.6039852971071
0.151121233025205,15.6043439555214
0.123944559258804,15.6046811225385
0.0991264431586039,15.6050059303582
0.0762799868236143,15.6053262628394
0.0550178702403313,15.6056509909008
0.0347744267063389,15.6059946258926
0.0139455596386511,15.6064005965608
0.00131520860945929,15.6066851564885
-0.00609809652287578,15.6068711763727
-0.0128747199264391,15.6070571962568
-0.0187708519602589,15.607234570523
-0.0247995298913792,15.6074347935951
-0.0306887254570956,15.6076540777358
-0.0362494860617065,15.607889656579
-0.0413756049556019,15.6081403783084
-0.0460105382899368,15.6084061514849
-0.0501274418808648,15.6086876191053
-0.0537152567994097,15.6089859962256
-0.0569525941865182,15.609325240194
-0.0594191417649629,15.6096618813893
-0.0613772567037231,15.6100217849261
-0.0628438579661546,15.6104086892101
-0.0638330870268236,15.6108268360927
-0.0643572994734203,15.6112814984917
-0.0644254641767797,15.6117793259872
-0.0640411857374323,15.6123288711494
-0.0631980958540447,15.6129425575882
-0.0618754834262039,15.6136369003503
-0.0600303332480059,15.6144359170442
-0.0575749022416648,15.6153793197996
-0.0543025748218999,15.6165487602819
-0.0502011640123361,15.6179628946811
-0.0462143670889375,15.6193277747049
-0.0423993411106461,15.620650645859
-0.0387850509018573,15.6219344723498
-0.0353863891036233,15.623180429559
-0.0322103558720158,15.6243887876217
-0.029258748857353,15.6255593740898
-0.026529554611087,15.6266918175135
-0.0240178229022117,15.6277856741531
-0.0217163205681449,15.6288404898412
-0.0196160784207287,15.6298558238779
-0.0177068733813461,15.6308312492936
-0.0159776585774704,15.6317663373404
-0.0143865076980905,15.6326786133752
-0.0128532257470686,15.633614107571
-0.011382653138203,15.6345741604689
-0.00997876967253281,15.6355607965305
-0.00864537452279055,15.6365763837889
-0.00738603144443504,15.6376237214324
-0.0062040172911322,15.6387061503034
-0.00510226812213378,15.6398277008802
-0.00408332288960933,15.6409932958647
-0.00314926427369816,15.6422090348312
-0.00230165558531589,15.6434826066676
-0.00154147153490956,15.6448239096597
-0.000869018578717281,15.6462460268962
-0.000283836335844615,15.6477668503632
0.000208807061550641,15.6493871041114
0.000597190303024317,15.6510497522857
0.000898341996458548,15.6527731266189
0.00112714448146575,15.6545771948948
0.00129752282341283,15.6564883578498
0.00142283733627687,15.658543466492
0.00151646257130554,15.6607980399826
0.00159283416289395,15.6633454780916
0.0016701411597163,15.666374767953
0.00177197849994293,15.6701088588177
0.00189976675341935,15.6740042809449
0.00206227154137704,15.6781657884662
0.00223427058354138,15.6820803224362
0.00241317163375115,15.6858866167467
0.00259759392874655,15.6896684009326
0.00278721111049926,15.6934797557638
0.00298269418614309,15.6973613699627
0.00318553401566191,15.7013475088284
0.00339786619742117,15.7054695548595
0.00362233563973873,15.7097582005513
0.00386201891878733,15.714244981201
0.00412044787503218,15.7189636704706
0.00440179210138897,15.7239517112145
0.00471126569375746,15.7292514666442
0.00504736899267041,15.7347734865474
0.00538967608774661,15.7401297659056
0.00574693701966259,15.7454235994409
0.00611936935938573,15.7506122219614
0.00651150122759299,15.7557147912337
0.00692730024542542,15.7607370528826
0.00737136449097423,15.7656879903077
0.00784848242556385,15.7705730354573
0.00836381673298088,15.775395500356
0.00892296422044924,15.7801564023874
0.00953208012234974,15.7848550052881
0.0101979953990704,15.7894893076351
0.0109366504939155,15.7941060410367
0.0117684520830505,15.7987493536586
0.0127109258246475,15.8034202399795
0.0137896859344194,15.8081397607375
0.0150430943410758,15.8129546197483
0.0165403888220611,15.8179801843735
0.018454944627213,15.8235661963093
0.0209210520915052,15.8298521731504
0.0224899338658359,15.833549585088
0.0240876071447965,15.8372469970256
0.0254802817416366,15.8405691859214
0.0266569484285809,15.8436325036074
0.0276267901704112,15.8465970656496
0.0283326801638727,15.8494132666272
0.0287718074323166,15.8521688375932
0.0289300965098338,15.8549939494331
0.0287476985548355,15.8580984420528
0.0279563572372308,15.8622133136688
0.0271046792050251,15.8650133345905
0.0260496316708636,15.8678133555122
0.0249789669334973,15.8703044008787
0.0239089738907387,15.8726070108854
0.0228371190385614,15.8748082342082
0.0217652655940416,15.8769528684291
0.0206968970715672,15.8790674863215
0.0196357364201763,15.8811700619396
0.0185853501186707,15.8832738942465
0.0175490407557886,15.8853894983064
0.0165298264865241,15.887525642344
0.0155304442759499,15.8896899801323
0.0145533629423885,15.8918894615336
0.0136007963295954,15.8941306227101
0.0126747131557526,15.8964198113449
0.0117768525698276,15.8987633540121
0.0109087291611733,15.9011677241901
0.0100716443253288,15.9036396842374
0.00926670068158727,15.9061864150525
0.0084779435054818,15.9088754332657
0.00770201059353072,15.9117466316032
0.00694265470639189,15.9148217465885
0.00620378628400303,15.9181262263072
0.0054895482914841,15.921689553801
0.00480427259222468,15.9255460492772
0.00415241840726189,15.9297358318676
0.00353844919821967,15.9343062725132
0.00296661475388599,15.9393146091086
0.00244067365044699,15.9448325266628
0.00196357713436475,15.9509545316313
0.00154389337275682,15.957691886559
0.00119063101264365,15.9649366351727
0.000907393963741628,15.9728776865337
0.000723403770127396,15.9800203766313
0.000548847086308893,15.9890926073905
0.000419494790107281,15.9984328802953
0.000321836704059827,16.0084328802953
0.000254791794347713,16.0184328802953
0.000209455477478648,16.0284328802953
0.000179328098214442,16.0384328802953
0.000159782391776068,16.0484328802953
0.000147620875959039,16.0584328802953
0.000140674843988781,16.0684328802953
0.00013748226762692,16.0784328802953
0.000137058401885657,16.0884328802953
0.000138743974406069,16.0984328802953
0.000142106934181586,16.1084328802953
0.000146877993620871,16.1184328802953
0.000152907473341728,16.1284328802953
0.000160136438707601,16.1384328802953
0.000168578177525702,16.1484328802953
0.00017830761140113,16.1584328802953
0.000189457122830504,16.1684328802953
0.000202217972466767,16.1784328802953
0.00021684714887626,16.1884328802953
0.000233680213147293,16.1984328802953
0.000253151565224943,16.2084328802954
0.000275824728615009,16.2184328802954
0.000302437000769634,16.2284328802954
0.0003339656272683,16.2384328802954
0.000371727399516705,16.2484328802954
0.00041753190588175,16.2584328802954
0.000472260201039198,16.2681627604066
0.00053473946826578,16.277160521078
0.000605857918912987,16.2854638946083
0.000686766615574197,16.293126299519
0.000778797326633966,16.3001980206567
0.000883465607090568,16.3067257637822
0.00100248890267106,16.3127529074292
0.00113781163247925,16.3183197491094
0.00129163541637996,16.3234637214596
0.00146645325598811,16.3282195946095
0.00166508961216569,16.3326196738605
0.00189074765878408,16.3366939917843
0.0021470664646545,16.3404704886622
0.00243818945444087,16.3439751880163
0.00276885144238017,16.3472323783737
0.00314448815638117,16.3502648030109
0.00357137942066496,16.3530938589135
0.00405684128287558,16.3557398217236
0.00460949177402386,16.3582221153855
0.00523963373743584,16.3605596530832
0.00595373612899248,16.3627542290192
0.00674263593793859,16.3647756505842
0.00761630091343955,16.3666580519
0.00858985403979199,16.3684358183218
0.00968694370601812,16.3701458490809
0.0109497052514667,16.3718363867955
0.012510239021853,16.3736357254596
0.0148376993952631,16.3759297809531
0.0164516020406629,16.3773493558849
0.018159461523872,16.3787689308166
0.019718774748769,16.3800399457026
0.0211089504111553,16.3811970706584
0.0223560154471017,16.3823024105887
0.0234592900116294,16.3833978664599
0.0244001503368287,16.3845221167433
0.0251407952567286,16.3857262734002
0.0256047375375268,16.3871086217826
0.0255468725539216,16.3890261802163
0.0249423198632202,16.3905971903269
0.0239346966597519,16.3921682004375
0.0227748579724849,16.3935786003374
0.0214686374298403,16.3949721682274
0.0200229415440103,16.3964081779147
0.0184470479175809,16.3979249773365
0.0173169228130919,16.3990094351089
0.016211782936179,16.4000938928812
0.015073021881647,16.4012688832741
0.0126054133745054,16.4040753219694
0.010400484964836,16.4069906054461
0.00866941857903499,16.4096682037167
0.00728132296424645,16.4121660694071
0.0060812333378001,16.4146758271616
0.00502927988737009,16.4172450746564
0.00411398221800948,16.4198697915646
0.0033736171495958,16.4223590026057
0.00276564949974607,16.4247372248493
0.00225619359874512,16.4270409246661
0.00181828117293808,16.4293200915308
0.00142752943409247,16.4316590826996
0.00105202415121039,16.4342624729972
0.000765287061359822,16.4365557871671
0.000513525689061838,16.438849101337
0.000327266805151241,16.4407545436551
0.000177614958221628,16.4424403709922
4.4978612581181e-05,16.4440694083655
-8.0355397577427e-05,16.4457430648108
-0.000206506759655206,16.4475791525404
-0.000346625436643881,16.4498251080419
-0.000576265600980193,16.4540772796354
-0.000757793291637313,16.4580799409863
-0.000890049580896794,16.4614621993342
-0.00101174565320354,16.4650244410108
-0.00114184789060214,16.4694859823328
-0.00127265777901229,16.4751539027311
-0.00134755224399564,16.4800512537614
-0.001372075439873,16.4844993658452
-0.00134105793226304,16.4885021451292
-0.00124879658826797,16.4921105083252
-0.00108929247793845,16.4953725111679
-0.000856053816486731,16.4983438941907
-0.000540800629641073,16.501085797905
-0.000131519120112093,16.5036622711474
0.000391793020219188,16.5061469847961
0.00106440568272381,16.5086301527329
0.0019637690107678,16.5112680458872
0.00322422265556621,16.5142495917089
0.00482955318810441,16.5173802822108
0.00620248690445829,16.5196863366696
0.00775979857540978,16.5219923911283
0.00925871133790215,16.523945807398
0.010815836272825,16.5257338504913
0.0124209141356134,16.5273522262284
0.014179779432625,16.5289033455321
0.0161067519957261,16.5303816589147
0.0182410989474177,16.5318005907224
0.0206199252405399,16.5331669361432
0.0232713666122229,16.5344801150593
0.0262378360699774,16.5357455997436
0.0295554019297635,16.5369639323471
0.033271671177533,16.5381386643615
0.0374396189299494,16.5392728669817
0.0421192075943757,16.5403694272906
0.0473783681958607,16.5414310420101
0.053302576542937,16.5424616478976
0.0599911256417099,16.5434648357256
0.0675633630327266,16.5444444043766
0.0761648392727464,16.5454044810712
0.0859755113497554,16.5463496274904
0.0972216982954603,16.5472850246679
0.11019673986032,16.5482169465018
0.125288698514294,16.5491530729123
0.143032142694061,16.5501034708649
0.164197589621011,16.5510820855359
0.188693859996717,16.552062383905
0.217149793686801,16.5530541378678
0.250402026006491,16.5540711456869
0.28966972607014,16.5551357526591
0.335976395313855,16.5562674275418
0.377852173054898,16.557225585863
0.412425030311485,16.558003283456
0.442271546760404,16.5586921297813
0.468366616677143,16.5593371685159
0.490857150042449,16.5599650809242
0.509436568699811,16.5605981547357
0.523319151728781,16.5612615556508
0.530866165062868,16.5619936180245
0.528904439713155,16.5627937232311
0.515459808015502,16.5636150013039
0.489173233638664,16.5644741634233
0.448247240350622,16.5653835080642
0.39067114625355,16.5663514715144
0.345382212859699,16.5669909602917
0.295241238986749,16.567630449069
0.250703746860069,16.568164162331
0.212654653087973,16.5686089199207
0.179298996784478,16.5689994926714
0.149459506993265,16.5693565872938
0.122432302021927,16.5696927985571
0.0977393140151009,16.5700171266045
0.074996434277809,16.5703374455709
0.0538124851349405,16.5706627802036
0.0335994721427054,16.571008292457
0.0125924085681759,16.5714218150355
0.00122109749501442,16.571679787707
-0.00618149643061477,16.5718657283835
-0.0129482557309399,16.5720516690601
-0.0188356305377838,16.572228963273
-0.0248639474963983,16.5724293971552
-0.0307505225445394,16.5726488620276
-0.0363071790157071,16.572884602186
-0.0414283755963826,16.5731354793174
-0.046057968182049,16.5734014111163
-0.0501693543523486,16.5736830472793
-0.0537515049236924,16.5739816083874
-0.0569774471426461,16.5743204269577
-0.05943950857544,16.5746572477636
-0.0613933289028878,16.575017365776
-0.0628557581861317,16.5754045174904
-0.0638409287871819,16.5758229525144
-0.0643611744329957,16.5762779540344
-0.0644254269006716,16.576776185544
-0.0640372337985833,16.5773262192574
-0.063190111845087,16.5779405219851
-0.0618632059770374,16.5786356492555
-0.0600132386836274,16.5794357100268
-0.0575518894461907,16.5803806194025
-0.0542707117514745,16.5815526744082
-0.050169941298734,16.582966329977
-0.0461843030873237,16.5843308604102
-0.0423707493776251,16.5856534169703
-0.0387580920240254,16.586936944001
-0.0353611443329118,16.5881826069074
-0.0321868575386992,16.5893906708309
-0.0292369949713016,16.5905609609517
-0.0265095171794932,16.591693104828
-0.0239994537345382,16.5927866584317
-0.0216995558788864,16.5938411676265
-0.0196008428332796,16.5948561918302
-0.0176930834832352,16.5958313041273
-0.0159652260841724,16.5967660756571
-0.0143745121999412,16.5976785305773
-0.0128417087238471,16.5986142119536
-0.0113716466504271,16.5995744668938
-0.00996830455825288,16.6005613222881
-0.00863547994844999,16.6015771492227
-0.00737673450864583,16.6026247506984
-0.00619534260667123,16.6037074723763
-0.00509423737952013,16.6048293509153
-0.00407595440055113,16.6059953170833
-0.00314257248791671,16.6072114812066
-0.00229565056956567,16.6084855468808
-0.00153615838972682,16.6098274331646
-0.000864396745343818,16.6112502536921
-0.000279898699129087,16.6127719477732
0.000211863643137793,16.6143924686052
0.000599509180856627,16.6160555244668
0.000900043609020113,16.6177794435301
0.00112834059517529,16.6195842338601
0.00129831909129973,16.6214963584756
0.00142333696331922,16.6235527741985
0.0015167720223223,16.6258091985306
0.00159307500658766,16.6283594651623
0.00167048665073158,16.6313938124121
0.00177243112036237,16.635127723355
0.00190049370648506,16.6390260822269
0.00206307563850394,16.6431853088129
0.00223513101775221,16.6470987899617
0.00241407323242156,16.6509047191509
0.00259852842694165,16.6546865450201
0.00278817775518343,16.6584982286059
0.00298369851652437,16.6623804020521
0.00318658645391332,16.6663673036994
0.00339898084114398,16.6704903058385
0.00362352940268874,16.6747801021096
0.00386331115406367,16.6792682375242
0.00412186084913639,16.6839885045811
0.00440335264707135,16.6889783735409
0.00471300856696718,16.694280243117
0.00504912361029897,16.6998011841532
0.00539150964982025,16.7051573225816
0.00574883588160501,16.710450546635
0.00612135968363804,16.7156387016045
0.0065136024653452,16.7207408151013
0.00692953708837508,16.7257626811748
0.00737376197568382,16.7307132589937
0.00785106735516136,16.7355979705929
0.00836661767556646,16.7404201134109
0.00892601224916266,16.7451806940385
0.00953540941669655,16.7498789676477
0.0102016439704969,16.7545129277938
0.0109407558485333,16.7591298394302
0.0117730857492514,16.7637732607246
0.0127162031485081,16.7684443376054
0.0137957661340483,16.7731642027322
0.015050235352456,16.7779797754745
0.0165491098709831,16.7830070091492
0.0184668561038314,16.7885981045636
0.0209330018374156,16.794880409473
0.0225008701715108,16.7985743987446
0.0240970232165736,16.8022683880162
0.0254882231682584,16.8055882517081
0.0266636064496683,16.8086505087761
0.0276321311561751,16.8116148759099
0.0283363209082628,16.81443035247
0.0287737315703765,16.8171859248355
0.0289301099308411,16.8200119979042
0.0287451316219264,16.8231194440688
0.0279469060500987,16.8272487063093
0.0270941469779698,16.8300434211815
0.0260393015363283,16.8328381360537
0.024968753313312,16.8353265344772
0.023898753714843,16.8376278444326
0.0228268865392626,16.8398283558388
0.0217550493818891,16.8419725957238
0.0206867324330191,16.8440870227709
0.0196256582891041,16.8461895526805
0.0185753912148739,16.8482934508098
0.0175392311189256,16.8504092115444
0.0165201934425663,16.8525455899508
0.0155210125332693,16.854710231408
0.0145441547062414,16.8569100806567
0.0135918314397885,16.8591516710803
0.0126660091819887,16.8614413494888
0.0117684249016597,16.8637854431881
0.010900591136389,16.8661904277343
0.0100638072847432,16.8686630690492
0.00925917410679801,16.8712105528756
0.00847051970149452,16.8739012117419
0.00769472619522636,16.8767742353761
0.00693554559059675,16.8798514002456
0.00619689066277568,16.8831581895192
0.0054829064221424,16.8867241280432
0.00479792627434744,16.890583586186
0.00414641018019332,16.8947767439763
0.00353282082112898,16.8993510507027
0.00296140463227753,16.904363856158
0.00243591390125398,16.909887016189
0.00195929135927352,16.9160153050691
0.0015402671282205,16.9227570192965
0.00118759682279478,16.9300069735045
0.000903812182439418,16.9379970966432
0.000721069214452534,16.945123426382
0.000546979333454659,16.9542069671466
0.000417976189721695,16.9635630309537
0.000320791283802113,16.9735630309537
0.000254082396459142,16.9835630309537
0.000208982521460019,16.9935630309537
0.000179020029587776,17.0035630309537
0.000159589191192231,17.0135630309537
0.000147508354285233,17.0235630309537
0.000140619875536676,17.0335630309537
0.000137469245111968,17.0435630309537
0.000137076822680531,17.0535630309537
0.000138786863666423,17.0635630309537
0.000142169814901838,17.0735630309537
0.00014695820129603,17.0835630309537
0.000153003695781944,17.0935630309537
0.000160248413586209,17.1035630309537
0.000168706507676311,17.1135630309537
0.000178453672674921,17.1235630309537
0.000189623049417221,17.1335630309537
0.000202406713469713,17.1435630309537
0.000217062598974994,17.1535630309537
0.000233927430430082,17.1635630309537
0.000253437102373707,17.1735630309537
0.000276157122381468,17.1835630309537
0.000302827493876881,17.1935630309537
0.000334429244987804,17.2035630309537
0.000372284585969136,17.2135630309537
0.000418211073231154,17.2235630309537
0.00047303516241271,17.2332829118421
0.000535620310700097,17.2422710560426
0.000606858559670948,17.2505655495345
0.00068790334535759,17.2582197718766
0.000780088750415938,17.2652839577124
0.000884932819805682,17.2718047660817
0.00100415578927642,17.2778255323858
0.00113970523168274,17.2833865141723
0.00129378634983048,17.2885251069037
0.00146889619471913,17.2932760462651
0.00166786386069086,17.2976716057588
0.00189389781096299,17.3017417886813
0.00215064323043512,17.3055145083911
0.00244225065427558,17.3090157638742
0.00277346326666237,17.312269821605
0.00314972680285374,17.3152994053657
0.00357733321839256,17.3181258954072
0.00406361361166978,17.320769553847
0.00461720517804193,17.3232497950172
0.00524843593618322,17.325585527612
0.00596345320760283,17.3277775943585
0.00675337326237214,17.3297969590889
0.00762821818848871,17.3316777522577
0.00860318847828975,17.3334543587239
0.00970208491419408,17.335163748574
0.0109674045135092,17.3368544134801
0.0125334780120114,17.3386566163441
0.014880385207267,17.3409646854052
0.0164919970246817,17.3423795915086
0.0181958277074435,17.343794497612
0.0197507972893516,17.3450619512456
0.0211377469234615,17.3462173768324
0.0223818265100912,17.3473220799147
0.0234818850418159,17.3484177151809
0.0244189412353158,17.3495430497433
0.0251546670485318,17.350749703328
0.0256111926529028,17.3521378626555
0.025533669735347,17.3540801270645
0.0249177801828463,17.3556409360947
0.0239071537279077,17.3572017451249
0.0227438571042234,17.3586100507037
0.0214339618244626,17.3600040843111
0.0199848012842253,17.3614416940126
0.0184056328480425,17.3629610433505
0.0173106906064076,17.3640118120155
0.0162393065719814,17.3650625806804
0.0151123932320616,17.3662234442362
0.0126472596736008,17.3690204882255
0.010433272994218,17.3719399147345
0.00869527852487869,17.3746212647248
0.00730235584785789,17.3771215690916
0.00609959747151878,17.3796306403087
0.00504540179322874,17.3821987086189
0.00412679035304589,17.384826179593
0.00338393922120926,17.3873177302216
0.00277414189696754,17.3896976765011
0.00226336615804864,17.3920023082058
0.00182455718083524,17.3942812646456
0.00143334956478227,17.3966178778189
0.00105823267495544,17.399212154249
0.000768836809529742,17.4015215595098
0.000514984462806099,17.4038309647706
0.000328106228223335,17.4057414823347
0.000178266155583504,17.4074286312703
4.55685010706829e-05,17.4090577238197
-7.97486717103789e-05,17.4107304143428
-0.000205792243186508,17.4125639824363
-0.000345588997260077,17.4148031640371
-0.000571833161611891,17.4189827043425
-0.000750582406628323,17.422902932267
-0.000881114206709232,17.4262135354751
-0.00100153692046479,17.4296994282139
-0.00112981033729443,17.4340283506093
-0.00126547582502874,17.4397706075619
-0.00134398397438184,17.4447010529481
-0.00137249555917741,17.4491849291854
-0.00134585253363978,17.4532198850188
-0.0012584273065846,17.4568558681106
-0.00110419370042922,17.4601423572263
-0.000876775586965208,17.4631333551378
-0.000568082201189853,17.4658901008545
-0.000166480672839251,17.4684764200671
0.000347129693872614,17.470964616906
0.0010062012053496,17.4734425049076
0.00188329441518804,17.4760592043217
0.00312070470282332,17.4790312405259
0.00469962195902748,17.4821512708467
0.00609536194884816,17.484520904522
0.00768330449504369,17.4868905381974
0.00918663136269824,17.4888618843439
0.0107402758237179,17.4906569000419
0.012340623719184,17.4922807904524
0.014092528760062,17.4938359454616
0.0160084574691106,17.4953158284575
0.018132516358958,17.4967378781827
0.0204974191140895,17.4981059820271
0.0231350790323508,17.4994218520764
0.0260858411434018,17.5006898298224
0.0293845683795153,17.501910111863
0.0330806291762939,17.5030870200394
0.0372256207309172,17.5042232255039
0.0418787883736997,17.5053215467789
0.0471078530065674,17.5063847607762
0.0529977594358146,17.5074168256457
0.0596467866909655,17.5084212909624
0.0671731731230001,17.5094019429911
0.0757210348022641,17.5103628922156
0.0854676896464798,17.5113086081738
0.0966379827302284,17.5122443512778
0.109521043198209,17.5131762910911
0.124499352776991,17.5141120186951
0.14209868648064,17.5150614551849
0.163081185433197,17.5160385719122
0.187399845092724,17.5170185914315
0.215643192229648,17.5180095144883
0.248635013414171,17.5190248775364
0.287567588082383,17.5200863879183
0.333637767205739,17.5212173051406
0.375973924425132,17.5221880872307
0.410835244070687,17.522972140567
0.440881786605061,17.523664083098
0.467153833707851,17.5243105992766
0.489825711462895,17.5249388416728
0.508611567680092,17.5255711334187
0.522754274564349,17.5262323183653
0.530676035100686,17.5269596533827
0.529246668738493,17.527759209079
0.516387889116059,17.5285790457938
0.49076472569189,17.5294360455787
0.450597165267927,17.5303427364791
0.393878943344783,17.5313076357519
0.348295730320484,17.5319565863439
0.297649027546176,17.5326055369359
0.252695106149214,17.5331453841026
0.214371231971156,17.5335935931814
0.18082109217866,17.5339862219135
0.150830836009332,17.534344603522
0.123680241653753,17.5346816007471
0.0988839512198002,17.5350063221717
0.0760555710445338,17.5353266494641
0.0548071406860741,17.5356514794287
0.0345692372715749,17.5359954330253
0.0137113867460747,17.5364026610815
0.00133000321841992,17.5366818961552
-0.0060856487767062,17.5368679425644
-0.0128643767456647,17.5370539889737
-0.0187618469698288,17.5372313743626
-0.0247906126463601,17.537431565265
-0.0306802237775062,17.5376508214565
-0.0362416148404533,17.5378863750799
-0.0413684815801139,17.5381370723689
-0.0460042215258444,17.5384028205589
-0.0501219550640393,17.5386842616707
-0.0537106227289406,17.53898260994
-0.0569498310675791,17.5393219351917
-0.0594170230223165,17.5396585497548
-0.0613757506291594,17.5400184214082
-0.0628429453987506,17.5404052891494
-0.0638327502452429,17.540823393759
-0.0643575239151486,17.5412780067364
-0.0644262405033066,17.541775775746
-0.0640425125180325,17.5423252506629
-0.0631999875252783,17.5429388491243
-0.0618779740163029,17.5436330806913
-0.0600334922328961,17.5444319505418
-0.0575788768502164,17.545375143274
-0.0543077582009685,17.5465442233817
-0.0502062340122389,17.5479584268703
-0.0462192497999178,17.5493233583369
-0.0424039915237395,17.5506462764682
-0.0387894458709409,17.5519301481432
-0.0353905169444087,17.5531761500697
-0.0322142120574646,17.5543845530309
-0.0292623339717227,17.5555551848726
-0.0265328731484961,17.556687674254
-0.0240208824252323,17.5577815774516
-0.0217191310153484,17.558836440275
-0.0196186515043881,17.5598518219938
-0.0177092220455473,17.5608272956214
-0.0159797965133122,17.5617624324216
-0.0143885770204852,17.5626746807917
-0.0128552200401524,17.5636101460484
-0.0113845674386498,17.5645701677188
-0.00998059920338502,17.5655567698889
-0.00864711476244109,17.5665723201204
-0.00738767818851977,17.5676196170131
-0.00620556671686326,17.5687020006658
-0.0051037168555103,17.5698235006031
-0.00408466807567474,17.570989038283
-0.00315050365057992,17.5722047116217
-0.00230278756406149,17.5734782072394
-0.00154249528870279,17.57481942022
-0.000869934148367982,17.5762414289446
-0.000284644766207182,17.5777621181085
0.000208136247650889,17.579382330645
0.000596634941643648,17.5810449159172
0.000897883473214033,17.5827682062186
0.00112676552574341,17.5845721631248
0.00129720711432411,17.5864831777774
0.00142256893782904,17.588538084891
0.00151622505390665,17.590792373103
0.00159260878333609,17.5933393754655
0.00166990125360035,17.5963678870722
0.00177172359925933,17.6001020073153
0.00189947060443496,17.6039969775738
0.00206196756760889,17.6081589232951
0.0022339599422709,17.6120736595899
0.00241285504407146,17.6158800261337
0.00259727136907891,17.6196618057797
0.00278688157836488,17.6234731020067
0.00298235578650803,17.6273546143018
0.00318518409648598,17.6313406131208
0.00339750146483848,17.6354624829561
0.00362195222508006,17.6397509161628
0.00386161237014432,17.6442374463036
0.00412001299876296,17.6489558436184
0.00440132258273659,17.6539435459613
0.00471075338509921,17.6592429100689
0.00504684836802625,17.6647652083502
0.00538913193347436,17.6701215625865
0.00574637095443116,17.6754155638919
0.00611877475363197,17.6806043203663
0.00651087278049522,17.685707018323
0.00692663142231486,17.6907293939922
0.00737064849020911,17.6956804365573
0.007847711833107,17.7005655805761
0.00836298348108142,17.7053881415871
0.00892205940354931,17.7101491397041
0.00953109384327738,17.7148478409027
0.0101969165834055,17.7194822451278
0.0109354387209665,17.7240989265764
0.011767086447536,17.7287422077885
0.0127093725345604,17.7334130386196
0.0137878983765734,17.7381324589022
0.0150409970718445,17.7429471095572
0.0165378301865727,17.7479721870739
0.0184514554569839,17.7535567175874
0.0209175519218277,17.7598437699912
0.022486729868029,17.76354218362
0.0240848475720553,17.7672405972489
0.0254779537519591,17.7705634678231
0.0266549957538884,17.7736270967292
0.0276252224278085,17.7765917167248
0.0283316094763777,17.7794081305269
0.0287712383996821,17.782163702251
0.0289300855379048,17.7849885348741
0.0287484402686184,17.7880921686748
0.0279590939714705,17.7922028796923
0.0271077307268963,17.7950044521268
0.0260526228478519,17.7978060245614
0.0249819237096227,17.8002978420921
0.0239119326199834,17.8026008308155
0.0228400814824387,17.8048022615661
0.0217682234403641,17.8069470108981
0.020699840052932,17.8090616848239
0.0196386543676416,17.8111642743869
0.0185882335044275,17.8132680883354
0.017551880828651,17.8153836477604
0.0165326152813968,17.8175197247295
0.0155331745857193,17.8196839754778
0.0145560282844092,17.8218833513838
0.0136033909056944,17.8241243894507
0.0126772318244276,17.8264134376565
0.011779290820387,17.8287568224118
0.0109110830765966,17.8311610166517
0.0100739105668678,17.8336327817722
0.00926887644916053,17.836179297353
0.00848008964556153,17.8388678414362
0.00770411649318395,17.8417385123351
0.00694470997989983,17.8448130350068
0.00620577986779849,17.8481168474114
0.00549146852741626,17.8516794205286
0.00480610737291248,17.8555350600943
0.00415415540765252,17.8597238676764
0.00354007631375707,17.8642931916315
0.0029681208454213,17.8693002375981
0.00244204939213592,17.8748166413556
0.00196481566402024,17.880936832116
0.00154494094681608,17.8876729284881
0.0011915071293162,17.8949161741179
0.000908403796009879,17.9028440537717
0.00072406943295553,17.9099910846691
0.000549424302534658,17.9190575398911
0.000419947268859496,17.9283944625959
0.000322149780688393,17.9383944625959
0.000255006083750371,17.9483944625959
0.000209600356859866,17.9583944625959
0.000179424614270293,17.9683944625959
0.000159845238471676,17.9783944625959
0.00014766009685117,17.9883944625959
0.000140697235348929,17.9983944625959
0.00013749241678895,18.0083944625959
0.00013705939454991,18.0183944625959
0.000138737858124087,18.0283944625959
0.000142095022100041,18.0383944625959
0.000146861067052956,18.0483944625959
0.000152885917999745,18.0583944625959
0.000160110334477957,18.0683944625959
0.000168547353693899,18.0783944625959
0.000178271674874526,18.0883944625959
0.000189415463929022,18.0983944625959
0.000202169750264151,18.1083944625959
0.000216791255482065,18.1183944625959
0.000233615213420374,18.1283944625959
0.000253075604738661,18.1383944625959
0.000275735397472775,18.1483944625959
0.000302331132771982,18.1583944625959
0.000333839000617415,18.1683944625959
0.000371574282364622,18.1783944625959
0.000417344349144129,18.1883944625959
0.000472045091054546,18.1981270742821
0.000534493868591436,18.2071274650601
0.000605577831851304,18.2154332699988
0.00068644737126012,18.2230979176248
0.000778433595118986,18.2301717059697
0.000883051346406284,18.2367013531212
0.00100201727232214,18.2427302490321
0.00113727488893332,18.2482987018256
0.00129102478970984,18.2534441540354
0.00146575881537227,18.2582013849821
0.00166430009779646,18.2626027084654
0.00188985029248403,18.2666781648873
0.00214604671118412,18.2704557017321
0.00243703073442064,18.2739613490833
0.002767534768041,18.2772194013535
0.00314299165823445,18.2802526069994
0.00356967773259514,18.2830823674174
0.00405490469652162,18.2857289617542
0.0046072850465673,18.2882118163394
0.00523711434761133,18.2905498452606
0.00595095388019445,18.2927451167047
0.00673956018949687,18.2947671047035
0.00761288512343256,18.2966499436578
0.00858602890213246,18.2984280181282
0.00968259514438233,18.3001382055075
0.0109446129890197,18.3018286739249
0.0125035355526579,18.303627143007
0.0148253603370108,18.3059170862857
0.0164399459692267,18.3073380077015
0.0181490016807252,18.3087589291172
0.019709627798258,18.3100309856212
0.0211007803250885,18.3111886008574
0.022348747143408,18.3122941173353
0.0234529884899292,18.3133895098928
0.0243949856192588,18.3145134319002
0.0251370906159004,18.315716848299
0.0256032149160607,18.3170974967514
0.025550993022776,18.3190080160998
0.0249496937075967,18.3205821229649
0.023942817318851,18.3221562298301
0.0227839115493387,18.3235672521358
0.0214787025512997,18.3249606904493
0.0200339583240757,18.3263962507515
0.0184589588666004,18.3279123375978
0.0173180037651184,18.3290071548124
0.0162025182509811,18.3301019720271
0.0150583895280409,18.3312831891714
0.0125897412592988,18.3340932697647
0.0103881804215997,18.3370070240921
0.00865970282735075,18.3396832207464
0.00727341440626427,18.3421801720828
0.00607432564178269,18.3446901867564
0.00502321349901025,18.3472598758457
0.00410905171120848,18.3498838880485
0.00336956038304278,18.3523724865041
0.00276225706328916,18.3547502465365
0.00225330237281911,18.3570536839751
0.00181575837731917,18.3593328782855
0.00142524623923298,18.3616724432102
0.00104976199928427,18.364278090268
0.000763745850034834,18.3665676087315
0.000512558040251911,18.368857127195
0.000326504073333594,18.3707613619069
0.000176941416330346,18.3724468787718
4.43573907317571e-05,18.37407591019
-8.09465559054888e-05,18.3757498068078
-0.000207091123230089,18.3775865099381
-0.00034725339634262,18.3798341127221
-0.000577693381960973,18.3841044949299
-0.00075995427393679,18.3881295868796
-0.000892694922045739,18.3915321450815
-0.00101474475852711,18.3951158482208
-0.00114535753141541,18.3996148890502
-0.00127484591154621,18.4052625626826
-0.00134874825265317,18.4101508604496
-0.00137217626606633,18.4145892535726
-0.00133995432000471,18.4185832073519
-0.00124636063700814,18.4221839131153
-0.00108540091045665,18.4254391840979
-0.000850544394444361,18.4284052434432
-0.000533462747383153,18.4311431101167
-0.000122035627229534,18.4337169103103
0.000403997420774908,18.4362007231321
0.00108042539462536,18.4386854483869
0.00198606907000247,18.4413293057731
0.0032529864555348,18.4443135219977
0.00486565111291294,18.4474470312534
0.00623250108704023,18.4497359592541
0.00778167945647099,18.4520248872548
0.00927975138395554,18.453973658004
0.0108380170946017,18.4557597649431
0.0124445869141071,18.4573765984429
0.0142055893533676,18.4589265862407
0.0161358378499777,18.4604044330311
0.0182732706181057,18.461822470431
0.0206561211950483,18.4631882440876
0.0233116487778576,18.4645006438535
0.0262827683233007,18.4657654050714
0.0296060141998925,18.466983209342
0.0333282757989239,18.4681573099952
0.0375030206360476,18.4692909299084
0.0421903514365218,18.4703869603167
0.047458584959405,18.4714481427917
0.0533929712069761,18.4724783264302
0.0600932437089527,18.4734811447762
0.0676790858888027,18.4744604015076
0.076296478019286,18.4754202290144
0.0861260861557415,18.4763652091161
0.0973948109237803,18.4773005133585
0.110397196498762,18.4782324407697
0.125522984770004,18.4791686982128
0.143309402677329,18.4801193972448
0.164517985905995,18.481097981895
0.189065229269635,18.482078371327
0.2175822924751,18.4830703798831
0.250909537500995,18.4840878816896
0.29027411782695,18.4851534129455
0.336648480606153,18.4862853352897
0.378393030751321,18.4872399403369
0.412882623005356,18.4880158399597
0.442670659527583,18.4887038111409
0.468713660105493,18.4893484396592
0.491150658258489,18.4899762748015
0.509668994033766,18.4906095967838
0.523474439126213,18.4912736690509
0.530909922789862,18.4920071513445
0.528791087765167,18.4928074336282
0.515173505756814,18.4936291481487
0.488691113393741,18.4944889544097
0.447541475096447,18.4953990828172
0.389712772831509,18.4963679501653
0.344512332079646,18.4970046690796
0.294521285841145,18.4976413879939
0.250107290085736,18.498173300172
0.212140054088678,18.498617040898
0.178842586666904,18.499007006743
0.149048319681833,18.4993637217224
0.12205817194253,18.4996997022335
0.0973962201122166,18.5000239168878
0.0746790085210409,18.5003442384772
0.053514329855137,18.5006697320109
0.0333083379652162,18.5010157295719
0.0122522049441504,18.5014312637537
0.00114201517202693,18.5016838335692
-0.00625031846245082,18.5018696807333
-0.0130077373378673,18.5020555278973
-0.0188988984531925,18.5022331069458
-0.0249271135353445,18.5024337652792
-0.0308109885872787,18.5026534138343
-0.0363634697310926,18.5028893184033
-0.041479685480569,18.5031403543571
-0.0461038887204606,18.5034064484505
-0.0502097170009993,18.5036882570387
-0.053786161805709,18.5039870062625
-0.0570003690523802,18.5043253649031
-0.0594579698633841,18.5046623665929
-0.0614075279116868,18.5050227006318
-0.0628658202551364,18.5054101010651
-0.0638469697879245,18.5058288251442
-0.0643632883081433,18.5062841661774
-0.0644236707480886,18.5067828013649
-0.0640316083873492,18.5073333222613
-0.063180504396124,18.5079482383104
-0.06184936225354,18.5086441448494
-0.0599946466008596,18.5094452408299
-0.0575274684286442,18.5103916416373
-0.0542375705174799,18.5115662836072
-0.050137490944817,18.512979462735
-0.0461530593860925,18.514343641749
-0.0423410234122567,18.5156658803932
-0.0387300433987814,18.5169491036765
-0.0353348536750495,18.5181944673322
-0.0321623565150305,18.5194022316946
-0.029214280669525,18.5205722196937
-0.0264885603984518,18.521704057978
-0.0239802047823602,18.5227973022899
-0.0216819492323092,18.5238514985663
-0.0195848011908648,18.5248662063714
-0.0176785213806909,18.5258409988627
-0.0159520531166759,18.5267754470749
-0.0143617884458235,18.5276880849416
-0.0128294765615399,18.5286239577436
-0.0113599388487332,18.5295844192991
-0.00995715263862834,18.5305714989856
-0.00862491372696996,18.5315875710145
-0.00736678168945887,18.5326354422892
-0.00618602835528017,18.5337184634041
-0.00508558387718445,18.5348406773449
-0.00406798037815024,18.5360070231383
-0.00313529273333674,18.5372236221208
-0.00228907539631487,18.5384981929522
-0.00153029304218884,18.5398406759726
-0.000859240692646595,18.5412642161219
-0.000275444720552164,18.5427868012335
0.000215415063686557,18.5444075960664
0.000602304426859663,18.5460710696969
0.000902205727446799,18.5477955468467
0.00112998378054942,18.5496010768819
0.00129955130745459,18.5515141867268
0.00142426369904349,18.5535719418395
0.00151750215084135,18.5558302635462
0.00159373297558197,18.5583834321493
0.00167125027701581,18.5614229776676
0.00177330280868952,18.5651567254098
0.00190164515251318,18.5690581048883
0.00206429719892825,18.5732148138924
0.00223640580431486,18.5771271325963
0.00241538932803001,18.5809326556803
0.00259988030488401,18.5847145232624
0.00278956719254202,18.5885265647101
0.00298513356069005,18.5924093498443
0.0031880801598506,18.5963970872642
0.00340055019332104,18.6005211379582
0.00362519458194256,18.6048121967462
0.00386509530462111,18.6093018192321
0.0041237907636807,18.6140238185076
0.00440546075370359,18.6190156947965
0.00471533682622927,18.6243198856056
0.00505147820746926,18.6298394687286
0.00539397045989369,18.6351953438474
0.00575139003876751,18.6404877790614
0.00612403982967779,18.6456753174445
0.00651643369967216,18.6507768343231
0.00693255081737131,18.6557981774277
0.00737699043169815,18.660748276501
0.0078545453363155,18.6656325409785
0.00837038263858839,18.6704542505332
0.00893010522465412,18.6752143983289
0.00953987576240251,18.679912228735
0.0102065342814047,18.6845457288778
0.010946254072933,18.6891628776217
0.0117792873561534,18.6938064433565
0.012723262268888,18.6984777745782
0.0138038956436585,18.7031981003408
0.0150597803983254,18.708014628827
0.0165607663359402,18.7130440998927
0.0184827907275263,18.7186420292299
0.0209489836978385,18.7249194385427
0.0225154944339539,18.728608860747
0.0241096134357985,18.7322982829513
0.0254988443847538,18.7356150532541
0.0266725113624829,18.7386759012718
0.0276392728925918,18.7416400153859
0.0283411873095988,18.7444545297453
0.0287762993162774,18.7472101116181
0.0289301166223207,18.7500374830439
0.0287416721055635,18.7531489156726
0.0279340888075243,18.757297815056
0.0270798727041614,18.7600854322859
0.0260252865274036,18.7628730495159
0.0249548900452994,18.7653578907766
0.0238848802599251,18.7676574474749
0.022812996405345,18.7698569973703
0.0217411817646367,18.7720007045066
0.0206729353765196,18.7741148739129
0.0196119793029098,18.7762173425349
0.0185618747858074,18.7783213303146
0.0175259180913822,18.7804373036603
0.0165071209775989,18.7825739998134
0.0155082142405345,18.7847390527605
0.0145316608011908,18.7869394002665
0.0135796689291895,18.7891815719025
0.0126542019945469,18.7914719132309
0.0117569940103905,18.7938167524684
0.0108895547301417,18.7962225678917
0.0100531808453202,18.7986961301261
0.00924897059109205,18.8012446313364
0.00846045594979436,18.8039375179659
0.00768485198086251,18.8068130200597
0.00692590963675127,18.8098929684267
0.00618754486309678,18.8132028938798
0.00547390544293297,18.8167723780459
0.00478932687016278,18.8206358594158
0.00413827009744898,18.8248336007454
0.00352519671875419,18.8294131578787
0.00295434857998059,18.8344320329458
0.00242946938644473,18.8399623146693
0.00195349031530531,18.8460991420844
0.0015353602198637,18.8528467833567
0.00118349265718085,18.8601038156931
0.000898978886406089,18.8681601542253
0.000717882361782474,18.8752655639267
0.000544428202933534,18.8843646191795
0.000415908158289901,18.893741741337
0.000319364266907908,18.903741741337
0.000253110159674228,18.913741741337
0.00020833006121227,18.923741741337
0.000178590481782924,18.933741741337
0.000159314896934478,18.943741741337
0.000147343075219224,18.953741741337
0.00014053233341463,18.963741741337
0.00013743833167915,18.973741741337
0.000137088339289687,18.983741741337
0.000138831388803681,18.993741741337
0.000142241309201744,19.003741741337
0.000147053078303599,19.013741741337
0.000153120197676505,19.023741741337
0.000160386200677562,19.033741741337
0.000168866407336336,19.043741741337
0.000178637553391312,19.053741741337
0.000189833799362104,19.063741741337
0.000202648315005854,19.073741741337
0.000217340302705485,19.083741741337
0.000234248046155572,19.093741741337
0.000253809441872894,19.103741741337
0.000276592654032836,19.113741741337
0.000303341308196235,19.123741741337
0.000335041494516766,19.133741741337
0.000373022673713302,19.143741741337
0.00041911306204195,19.153741741337
0.000474066826988181,19.1634484620145
0.000536795380529197,19.1724239430223
0.000608195866643774,19.1807067371364
0.000689424906569821,19.1883501740559
0.00078181970151751,19.1954044235317
0.000886901657701078,19.2019160840838
0.00100639477861394,19.207928435151
0.00114225089697772,19.2134816823549
0.00129668005606608,19.2186131728005
0.00147218477997507,19.2233575973235
0.00167160042746553,19.2277471879942
0.00189814261720941,19.2318119099529
0.00215546481095092,19.2355796414664
0.00244772717344865,19.2390763495547
0.00277968422995893,19.2423262719968
0.00315679528484875,19.2453521072685
0.00358536875685239,19.2481752139956
0.00407275618679128,19.2508158369827
0.00462762082685508,19.253293378542
0.0052603249681543,19.255626742326
0.00597658045738607,19.2578154898326
0.00676788277987968,19.259832143225
0.00764432862333743,19.2617108301968
0.00862122550723468,19.2634859383639
0.00972258527368259,19.2651945395326
0.0109914079996053,19.2668854762052
0.0125651131977425,19.2686917367388
0.0149315853165119,19.2710126191162
0.016540423778218,19.272422016706
0.0182393907069906,19.2738314142958
0.0197890871589045,19.2750946559986
0.0211720775753208,19.2762480839525
0.0224124740911337,19.2773520661203
0.0235085609469528,19.2784479713614
0.024440920982869,19.2795746842855
0.0251705748572017,19.2807844618809
0.0256179181245586,19.282179891131
0.0255153044440174,19.2841540743463
0.0248850362979065,19.2857032376408
0.0238698665967851,19.2872524009353
0.0227018509501725,19.2886583146263
0.0213871076213541,19.2900530611675
0.0199334044237949,19.2914928434527
0.0183499506832279,19.2930156180511
0.0172952394938759,19.2940279467807
0.0162627379946188,19.2950402755103
0.01513671677233,19.2961988803219
0.0126728111430751,19.2989905251506
0.0104532533584369,19.3019125425168
0.00871102876947438,19.3045961949051
0.00731516556060127,19.3070979903025
0.00611078351126785,19.3096066520741
0.00505522412115459,19.312174011311
0.00413470851458857,19.3148028105897
0.00339040673071553,19.317295503591
0.00277951855794817,19.3196763082063
0.00226793347321568,19.321981418095
0.00182854381483479,19.3242603156692
0.00143698290113622,19.3265958562071
0.00106191196712285,19.3291859636747
0.000771175939321251,19.3315029009512
0.000516265110691618,19.3338198382276
0.000329046295598585,19.3357326793216
0.000179077486055997,19.3374204168548
4.63139615418654e-05,19.3390495372495
-7.90305358382537e-05,19.3407217993476
-0.000205060202598568,19.3425542588193
-0.000344751433297641,19.3447904823439
-0.000569616308276736,19.3489394774058
-0.00074735676411704,19.3528282043769
-0.000877302343994682,19.3561125667126
-0.000997281728773975,19.3595701340695
-0.00112489435571485,19.3638500971269
-0.00126243538628823,19.3696208955563
-0.00134231412038882,19.3745640333762
-0.00137233463873916,19.379061733553
-0.0013473457492165,19.3831090349204
-0.00126175596351377,19.3867555303606
-0.00110952912944993,19.3900514134536
-0.000884322879228098,19.3930500655875
-0.000578125233366104,19.3958125962866
-0.000179447470131952,19.3984027619177
0.000330482172021394,19.4008924009866
0.00098445734928224,19.4033684804867
0.00185323369795834,19.4059774298622
0.00308192864669959,19.4089459568307
0.00465077032079367,19.4120618660341
0.00605528307476376,19.414456184765
0.00765510787232669,19.4168505034958
0.00916048447973377,19.4188290741018
0.0107129394638264,19.4206267435043
0.0123116380638437,19.4222527158213
0.0140610924005763,19.4238093951423
0.0159730570819792,19.4252898560238
0.018093445217365,19.4267130532693
0.0204532624488008,19.4280817447103
0.0230859780310141,19.4293985940751
0.0260311020237511,19.4306674749821
0.0293232531982588,19.4318885258386
0.0330120924678766,19.4330662211984
0.0371488693557191,19.4342031475993
0.0417920780697423,19.4353019896261
0.0470103651335789,19.4363657905151
0.0528879461707548,19.4373983830397
0.0595227718541308,19.4384033099517
0.067032683623127,19.4393843532774
0.0755612850340592,19.440345617529
0.0852849634687607,19.4412915402523
0.0964279925396863,19.4422274067379
0.109278016665333,19.4431593514257
0.124215520048923,19.4440949334653
0.141763134119463,19.4450440215594
0.162677472699589,19.4460204867275
0.186931937720956,19.4470004025697
0.215098481669355,19.4479910221816
0.247996272822298,19.4490057876465
0.286808052187192,19.4500661803673
0.332793624042834,19.4511968496177
0.37530136653206,19.4521723311919
0.410268539344507,19.4529587189274
0.440387502605224,19.4536517860021
0.466723201238817,19.454298837429
0.489460028955879,19.4549272030123
0.508319537778911,19.4555592226972
0.522554629962672,19.4562196310691
0.530608567207879,19.4569453165067
0.529368035245921,19.4577446825578
0.516716723026239,19.4585640126415
0.491328207449173,19.4594202489168
0.451428756581649,19.4603260013555
0.3950136983604,19.4612898209819
0.349326195844447,19.4619421688365
0.298498674069132,19.4625945166912
0.253396056000713,19.4631365575991
0.214974476991226,19.4635859950409
0.181355464754169,19.4639793526047
0.151311946375823,19.4643381896462
0.124117813043371,19.4646754653023
0.0992850781090467,19.4650003273864
0.0764264905913809,19.4653206613711
0.055155120809743,19.4656453216545
0.0349076857067501,19.4659887494541
0.0140967701525788,19.4663939156592
0.00129679655464172,19.4666821143322
-0.00611390300917613,19.4668681031698
-0.0128881806358414,19.4670540920075
-0.018782700238857,19.4672314489098
-0.0248113405424114,19.4674317085514
-0.030700095223899,19.4676510238302
-0.0362601481721953,19.4678866302545
-0.0413854114231975,19.4681373784365
-0.0460194124828051,19.4684031785754
-0.0501353503262724,19.4686846748664
-0.0537221746022203,19.4689830833596
-0.0569576335246944,19.4693222661192
-0.0594233727186561,19.4696589390667
-0.0613807107242722,19.470018880448
-0.0628465560445215,19.4704058285602
-0.0638350486197522,19.4708240266812
-0.0643585401282927,19.4712787496165
-0.0644259927058766,19.4717766495077
-0.0640410005095785,19.4723262825472
-0.0631971741167061,19.4729400802782
-0.06187377577148,19.4736345652492
-0.0600277416146666,19.4744337719545
-0.0575712214027388,19.4753774500482
-0.0542972603826533,19.4765473703905
-0.0501959489871994,19.4779614186526
-0.0462093450958705,19.4793262366643
-0.0423945687758237,19.4806490525257
-0.0387805571298798,19.4819328267307
-0.035382188534442,19.483178732784
-0.0322064544501548,19.4843870398701
-0.0292551464688074,19.4855575750792
-0.0265262465898392,19.4866899667582
-0.0240148010572989,19.487783771097
-0.021713574000006,19.4888385339204
-0.0196135942187729,19.48985381454
-0.0177046372422488,19.4908291859894
-0.0159756553537885,19.4917642194973
-0.0143845789265556,19.492676526279
-0.0128513785639582,19.4936120526519
-0.0113808930554237,19.4945721402871
-0.00997710199015403,19.4955588140634
-0.0086438042523581,19.4965744425385
-0.00738456324032335,19.4976218255564
-0.00620265537875132,19.4987043047877
-0.00510101622276552,19.4998259117735
-0.00408218414164275,19.5009915706027
-0.00314824114931392,19.5022073826983
-0.00230074980040812,19.5034810394769
-0.00154068394805615,19.5048224427958
-0.000868349071182521,19.5062446809944
-0.000283283655879431,19.5077656541922
0.000209208997867984,19.5093859537973
0.000597466164518657,19.5110486720241
0.000898512505469673,19.5127721399775
0.00112722886907223,19.5145763323631
0.00129753926949218,19.5164876606175
0.00142280359984161,19.5185429939235
0.00151639697130029,19.5207978854972
0.00159275761151328,19.5233458095654
0.00167008343307354,19.5263759676895
0.00177194001272053,19.5301100260795
0.00189977602174146,19.5340059521929
0.00206229645495469,19.5381671158295
0.00223430637851457,19.5420814912645
0.00241321474809938,19.5458877317829
0.00259764216909131,19.549669524172
0.00278726367352097,19.5534809309902
0.00298275139124056,19.5573626323782
0.00318559701494151,19.561348889563
0.00339793672618593,19.5654710835228
0.00362241582955339,19.569759906968
0.00386211119207508,19.5742468967283
0.0041205549741584,19.5789658294067
0.00440191729649314,19.5839541521272
0.00471141324163337,19.5892542336356
0.00504751444463311,19.5947761374704
0.00538982803182964,19.6001324264127
0.00574709275779081,19.6054262009917
0.00611953178241908,19.6106147816354
0.00651167224537502,19.6157173088467
0.00692748241036836,19.6207395354867
0.00737156027879407,19.6256904420443
0.00784869440218458,19.6305754594351
0.00836404752729982,19.6353978979511
0.00892321660839405,19.6401587737764
0.00953235709244465,19.6448573497414
0.0101983002314485,19.6494916239248
0.0109369948152598,19.6541083727064
0.0117688420147392,19.658751694839
0.0127113711866055,19.6634225975623
0.0137902002865404,19.6681421477899
0.0150436996603056,19.6729570677431
0.0165411293580012,19.6779827747474
0.0184559574955736,19.6835692197838
0.0209220686333637,19.689854883036
0.0224908640732496,19.6935520026007
0.0240884077088812,19.6972491221654
0.0254809564366934,19.7005711122128
0.0266575136547395,19.7036343391667
0.0276272431123034,19.706598884409
0.0283329881383835,19.7094150235184
0.0287719690732841,19.7121705945276
0.0289300953205082,19.714995788188
0.0287474776347025,19.7181005320603
0.0279555526642094,19.7222166222199
0.0271037827012352,19.7250161905821
0.0260487527143625,19.7278157589442
0.0249780980915364,19.7303065790402
0.023908104620354,19.7326090786526
0.0228362487849365,19.7348102416551
0.0217643967484159,19.7369548425774
0.0206960325995604,19.7390694444899
0.0196348792601904,19.7411720164918
0.0185845030222381,19.743275854698
0.0175482062471645,19.7453914724253
0.0165290068593521,19.747527636792
0.0155296416011778,19.7496920008719
0.0145525790776929,19.7518915141091
0.0136000329311294,19.7541327124495
0.0126739716860652,19.7564219435266
0.0117761343055931,19.7587655340055
0.0109080352043242,19.7611699575765
0.0100709756077188,19.7636419769437
0.00926605797722511,19.7661887734686
0.00847730957948739,19.7688779315672
0.00770138855515765,19.7717492855587
0.00694204760569241,19.7748245753535
0.00620319736877681,19.778129252034
0.00548898098262981,19.7816928022139
0.0048037304409594,19.7855495503878
0.00415190502705555,19.7897396208927
0.00353796813591722,19.794310391363
0.00296616927144064,19.7993191092403
0.00244026647519709,19.8048374740939
0.00196321026828116,19.8109600151981
0.00154358268258197,19.8176977417713
0.00119037072648625,19.8249429341008
0.000907074471695545,19.8328886708983
0.000723201927857442,19.8400296829121
0.000548686352754821,19.849102897919
0.000419363829032823,19.8584446198578
0.000321747579819778,19.8684446198578
0.000254732462676328,19.8784446198578
0.000209417161849744,19.8884446198578
0.000179304466578766,19.8984446198578
0.000159769006794662,19.9084446198578
0.00014761470180218,19.9184446198578
0.000140673826717126,19.9284446198578
0.000137485020376147,19.9384446198578
0.000137063990151477,19.9484446198578
0.000138751776155431,19.9584446198578
0.000142116548886897,19.9684446198578
0.000146889181972189,19.9784446198578
0.000152920116906589,19.9884446198578
0.000157079557025235,19.9942223099289
0.00016157678114952,20
