ecg,time
0.0132321725253174,15.0003371330173
0.015211731874305,15.00222046659
0.0168583868942883,15.0036412781421
0.018596548295174,15.0050620896942
0.0201526497071036,15.0063138691774
0.0215410759099867,15.0074585923132
0.0227867414531397,15.0085565564533
0.0238871763294586,15.0096485642311
0.0248222607572884,15.0107736739496
0.0255518638098032,15.0119854008124
0.025993058167962,15.0133914151103
0.0258495743522416,15.0154334339058
0.0251965149571368,15.0169562196666
0.0241766612452544,15.0184790054273
0.0230029799110577,15.0198767656767
0.021681687218366,15.0212704756801
0.020221568251746,15.0227131407991
0.0186319508562325,15.0242424066805
0.017619282425597,15.0252166123768
0.0166291063758762,15.0261908180731
0.0154289158665233,15.0274326906071
0.0138113669524242,15.0292366963935
0.0123390920940433,15.0310407021799
0.0111698555340732,15.0326123054366
0.0101771008112958,15.0340666127858
0.00927166216987138,15.0355103686795
0.00839815141290936,15.0370326692293
0.00749760333685667,15.0387666573038
0.00643472469488449,15.0410900402675
0.00543046385147469,15.0436586255119
0.00459869279105139,15.0461744831415
0.00390416776748986,15.0486624245854
0.00326500191767572,15.051407266111
0.00269215195186435,15.0544317588124
0.00221052426204185,15.0576444377901
0.0018162695626045,15.0610785120511
0.00150833832423866,15.0647781395159
0.00129128576348007,15.0687989511419
0.00117975749516804,15.073213035617
0.00119238842497368,15.0772718499175
0.0013057667296791,15.0809154658253
0.00150470227335184,15.0841929061161
0.00178148408772945,15.0871518370981
0.00213308523490452,15.0898371862553
0.0025613364424246,15.0922995733937
0.00307244022965087,15.0945873990489
0.0036785963366531,15.0967508748391
0.0044021878280135,15.0988480910715
0.00528462997228951,15.1009543889928
0.00640532420091912,15.1031792588653
0.00792523300536287,15.1056995773047
0.00988424951311847,15.1084253677803
0.01146861856115,15.1103317907567
0.0132638389004041,15.1122382137332
0.0150786682309642,15.1139301504288
0.0169746740457244,15.1154792963494
0.0189983309806341,15.1169227107849
0.0212104185960987,15.1182940068235
0.0236593873459522,15.1196076642198
0.0263833579931936,15.120867769943
0.029433400835415,15.1220817522076
0.0328521849850571,15.1232508224684
0.0366931365984312,15.1243784769226
0.0410146508446523,15.1254675563315
0.0458791100550271,15.1265200774983
0.0513646392919422,15.1275395611012
0.0575592943907545,15.1285289801676
0.0645659172582446,15.1294913540565
0.0725098110868781,15.1304302553932
0.0815406059918996,15.1313492932102
0.0918406307091016,15.1322523645518
0.103635188291891,15.13314377249
0.11720781951333,15.1340284317175
0.13292037765159,15.1349120103593
0.151246032146415,15.1358013483804
0.172823430701315,15.1367051523447
0.198378021771926,15.1376294003503
0.227942893573454,15.1385557526589
0.262254226725938,15.1394931253043
0.302319355980881,15.1404557173088
0.349788105638643,15.1414721221259
0.387050246281015,15.1422103409396
0.425692775296616,15.1429485597534
0.459987200490137,15.1436042758449
0.490044808183274,15.1442038766234
0.51643192888615,15.1447791401296
0.539123789866247,15.1453538996289
0.557600328920258,15.1459527183157
0.570624868549909,15.1466120137479
0.57511990731247,15.1473626841232
0.567984007744303,15.1481343808695
0.548003280488779,15.1489485265358
0.513249207014335,15.1498239354615
0.465052566161858,15.1507113368791
0.402063088146741,15.1516348275087
0.352927603179674,15.1522573811807
0.299364309592216,15.1528799348527
0.252512686734408,15.1533975744028
0.212869616834908,15.1538284321301
0.178314052236143,15.154207101182
0.147513693040063,15.1545539269262
0.119683810995837,15.1548812628714
0.0942929867050479,15.1551980547855
0.0709088433057105,15.1555124087332
0.0490708437714728,15.1558342634054
0.0280064838144506,15.1561824019885
0.00458675720018767,15.1566364051387
-0.00383369705582496,15.1568251590769
-0.0115188407475051,15.1570139130152
-0.0179872974235434,15.1571881040868
-0.0241356959886671,15.1573700050412
-0.0302912623469904,15.1575723740445
-0.0362110637789593,15.1577918922527
-0.0417437390553118,15.1580266735926
-0.0468053211711004,15.158276111108
-0.0513524159238671,15.1585404587862
-0.0553662699361919,15.1588206018248
-0.0588433143604992,15.159117949497
-0.0617893305094918,15.159434404778
-0.0643535155760717,15.1597970366128
-0.0661969178917225,15.1601582495862
-0.0675442848098684,15.1605473014047
-0.068411828917365,15.1609691181844
-0.0688113529316176,15.1614294820623
-0.0687503347168793,15.1619357612616
-0.068229471006189,15.162497647513
-0.0672365210398912,15.1631295664481
-0.0657417610710532,15.1638507232611
-0.063684166882197,15.1646909213456
-0.0609325661708349,15.1657039617996
-0.0571190397284341,15.1670250723447
-0.0529576510552125,15.1684290728205
-0.0489242745283433,15.1697899781277
-0.0450681115979082,15.1711118158299
-0.0414141317242419,15.1723963945831
-0.037975824164972,15.1736442435834
-0.0347598449387852,15.1748552535368
-0.0317680936063368,15.1760290191317
-0.0289988372658311,15.1771650197364
-0.0264474598466716,15.1782627124017
-0.0241070546633699,15.1793215751881
-0.0219689423571289,15.1803411206401
-0.0200231403523433,15.1813208900974
-0.0182587897544467,15.1822604347795
-0.0166464382981607,15.1831698021369
-0.0150906009021951,15.1841022803399
-0.0135962470577518,15.1850591087469
-0.012167352813228,15.1860422726267
-0.0108077167757627,15.1870540918772
-0.0095209029711214,15.1880973065035
-0.00831018781524681,15.1891751833682
-0.0071785041721135,15.1902916588425
-0.00612838229629297,15.1914515335652
-0.00516188689198407,15.1926607451986
-0.00428054868577674,15.1939267620822
-0.00348528740592689,15.195259172236
-0.00277632021758463,15.1966706043664
-0.00215304385756985,15.1981782497755
-0.00161745491159854,15.199794323284
-0.00118784503130573,15.201450682995
-0.000846608399476695,15.203165720404
-0.000578513342115135,15.2049587989059
-0.000369252762463396,15.2068553932848
-0.000205030485575257,15.2088907926217
-7.19313779922025e-05,15.21111761344
4.52253453605716e-05,15.2136229862996
0.000165787114505463,15.2165782454616
0.000319174852670497,15.2203169899832
0.000493202722936512,15.224169268269
0.000713785348066303,15.2285503983344
0.000982779391066549,15.2334963123498
0.00124301996285757,15.238119880125
0.00148857202862594,15.2424665519547
0.00172983004172944,15.2467832071989
0.00198215921179348,15.2513703832925
0.00225300568960168,15.2563690994225
0.0025157121082858,15.2612564638172
0.00278611273558514,15.2662909885166
0.00301521181883698,15.2705194233815
0.00323003010985052,15.2744381610039
0.0034414375037005,15.2782345348638
0.00365514341731951,15.2819978528553
0.00387520636600536,15.2857839412931
0.00410512389556854,15.2896342705346
0.0043482816760048,15.2935831593133
0.00460821717002855,15.2976614069035
0.00488884827608768,15.3018988882005
0.00519467063297538,15.306325936277
0.00553102368529089,15.3109745641389
0.00590451550873681,15.3158797770606
0.00632127278588265,15.3210510225262
0.00675256547685548,15.326078973325
0.0072107255893885,15.3310788829221
0.00769521136753769,15.3360001896307
0.00821144500271598,15.3408525356414
0.00876469884034583,15.345635290282
0.00936159146712911,15.3503526967208
0.0100094660079034,15.3550072511704
0.0107215762516781,15.3596318012512
0.0115202789667208,15.3642907661962
0.0124216865934827,15.3689818571785
0.0134497109905628,15.3737248487486
0.0146386935794254,15.3785594205551
0.0160473339625971,15.3835805330733
0.0178084939267947,15.3890557363901
0.0202185302538443,15.3955765708373
0.0217996997614605,15.3994892054539
0.0234273411106243,15.4034018400705
0.0248498822217509,15.4068872813699
0.0260489355664585,15.4100545697392
0.0270427251191881,15.4130862116289
0.0277911700089363,15.4159952972716
0.0282734747428247,15.4188150106591
0.0284810381713935,15.4216717980337
0.0283680229422527,15.4247501187113
0.0277559558671514,15.4285571395466
0.0269268516305437,15.4316111477916
0.0258510025622834,15.4346651560366
0.0247685963225425,15.4373010661266
0.0236938230818403,15.4396986167461
0.022618974292499,15.4419747670743
0.0215445159727125,15.4441844088333
0.0204736315730444,15.4463583911793
0.0194100241180141,15.4485169666256
0.0183573251840698,15.4506748317701
0.0173189352460255,15.4528434321003
0.0162979794809214,15.4550321984753
0.0152973080589994,15.4572492660256
0.0143195008304902,15.4595019467676
0.0133668800091966,15.4617970452998
0.0124415220056346,15.4641410901424
0.0115452620630527,15.46654053049
0.0106797071084371,15.4690018815299
0.00984624489247655,15.471531860037
0.00904604757590647,15.474137530301
0.00827404614895453,15.4768484785465
0.00751532520251414,15.4797410303931
0.00677371279029221,15.4828358199999
0.00605305636010668,15.4861575792775
0.00535739997382314,15.4897348560423
0.00469088152060813,15.4936007157906
0.00405771213306997,15.497793712891
0.00346204961543379,15.5023593247422
0.00290780674687503,15.5073523549226
0.00239837930693618,15.5128414270871
0.00193641466363412,15.5189162168646
0.00152377879395369,15.5256970629199
0.00117492925157141,15.5330291562256
0.00088523239191772,15.5409843617904
0.000648158214058875,15.5497018140564
0.000465007301599013,15.5594163212192
0.000362231293202063,15.5673869374493
0.000268762194727927,15.5773869374493
0.000203640365388815,15.5873869374493
0.000158429493203992,15.5973869374493
0.000127516534691944,15.6073869374493
0.000106805671416523,15.6173869374493
9.32730325907593e-05,15.6273869374493
8.47525718219403e-05,15.6373869374493
7.97438631913966e-05,15.6473869374493
7.72279035593913e-05,15.6573869374493
7.65161128733283e-05,15.6673869374493
7.71423544419756e-05,15.6773869374493
7.8791586199658e-05,15.6873869374493
8.12536859005683e-05,15.6973869374493
8.43929504596825e-05,15.7073869374493
8.8127323197342e-05,15.7173869374493
9.24140448226697e-05,15.7273869374493
9.72398492329274e-05,15.7373869374493
0.000102614496520211,15.7473869374493
0.000108566785953642,15.7573869374493
0.000115142435700493,15.7673869374493
0.00012240341872996,15.7773869374493
0.000130428515112565,15.7873869374493
0.000139314983013946,15.7973869374493
0.000149181374010731,15.8073869374493
0.000160171638045544,15.8173869374493
0.000172460797160229,15.8273869374493
0.000186262636045933,15.8373869374493
0.000201840089161727,15.8473869374493
0.000219519339809043,15.8573869374493
0.000239709151451494,15.8673869374493
0.000262927734085601,15.8773869374493
0.000289840694067307,15.8873869374493
0.000321315651557652,15.8973869374493
0.00035850253046079,15.9073869374493
0.000402954449452084,15.9173869374493
0.000456814749149674,15.9273869374493
0.000518977459013179,15.9368142465607
0.000589367214025544,15.9455193358029
0.000668975642386898,15.9535511650023
0.000759009701288288,15.9609624357519
0.000860853895992157,15.9678022442913
0.000976080067163487,15.9741161110196
0.0011064690856548,15.979946272911
0.00125403801435069,15.9853319366835
0.00142107326655202,15.9903094746774
0.00161016487415285,15.9949126337294
0.00182425214570203,15.9991727507337
0.00206667277445333,16.0031189608578
0.00234122600329275,16.0067783644999
0.00265224563703242,16.010176201689
0.00300469485557632,16.0133360489584
0.00340428892552292,16.0162800154579
0.00385765093088016,16.0190289391809
0.00437252789880851,16.0216026284239
0.00495809348771917,16.0240201546409
0.00562538563774696,16.0263002207161
0.00637140395209609,16.0284187315847
0.00719506053348301,16.0303768958885
0.00810790859920798,16.0322085823605
0.00912736664452201,16.0339480765273
0.0102816477960416,16.0356342195104
0.0116240456874878,16.0373225490537
0.0133587028341894,16.039201647941
0.0152805091922489,16.0410183785261
0.0169250089792191,16.0424332863347
0.0186582774282416,16.0438481941434
0.0202072153439259,16.0450944588925
0.0215900785423153,16.0462365396008
0.0228304915044926,16.0473336041689
0.0239252173360831,16.0484261123887
0.0248535093151284,16.049553335901
0.0255742551612404,16.0507697968199
0.026001772807301,16.0521870656785
0.0258152568844454,16.0542865553717
0.0251382321431525,16.0557959001042
0.0241074518985878,16.0573052448366
0.0229242391819982,16.05870037489
0.0215938209105124,16.0600959424278
0.020125231491455,16.061543005513
0.0185276057248998,16.0630790363572
0.0175130934143202,16.0640558369381
0.0165242488487371,16.0650326375191
0.0148174796230489,16.0668316485194
0.0133418967780912,16.0685294872278
0.0119934421918683,16.0702273259363
0.0108869065457337,16.0717507425257
0.00992453414157952,16.0731933091924
0.00903283369680268,16.0746490637908
0.00815885201190101,16.076211819166
0.00723512528677805,16.0780456773943
0.00613311913056103,16.0805536256658
0.00516620458200556,16.083149347239
0.00438725341876093,16.0856243665118
0.00371500224519431,16.0881573725348
0.00308400375577752,16.0910290580233
0.00253880226789702,16.0941075182572
0.00208363541745665,16.0973823234051
0.00171510139762603,16.1008907292672
0.00143352158229741,16.1046799397851
0.00124583805888663,16.1088098740883
0.00117158566386476,16.1132306008013
0.00121694140621794,16.1171523067089
0.00135744087530892,16.1206807665234
0.00158048524178673,16.1238565302071
0.00188010336470459,16.1267282991127
0.00225468304507005,16.1293417576232
0.0027071678043172,16.1317460339047
0.00324538618124788,16.1339903764283
0.00388408870573231,16.1361269217191
0.00465026199674473,16.1382179385636
0.00559317427005539,16.1403447065341
0.0068122279500799,16.1426363727495
0.00849876298839232,16.1452843216019
0.0105703602508781,16.1480158968778
0.0125652045760071,16.1502623720629
0.0144035490487302,16.1520629739387
0.0162523794881436,16.153650021682
0.0182230460562326,16.1551296485104
0.0203609315140534,16.1565269191866
0.0227135296766218,16.1578594919371
0.0253320547226202,16.1591400903125
0.0282532029971532,16.160370143812
0.0315292900918772,16.1615559066189
0.0352067985898705,16.1626988750964
0.0393407290058578,16.1638017830433
0.0439949687750759,16.1648677767788
0.0492388010029979,16.1658992002546
0.0551569834242078,16.1668994033123
0.0618474026301126,16.1678715311196
0.0694254877657286,16.1688188042159
0.0780308451255525,16.1697447941152
0.0878330428292493,16.1706533357531
0.0990401535082391,16.1715485796279
0.11191128477741,16.1724351395836
0.126776195039363,16.1733183863092
0.144061692846657,16.1742046677356
0.1643363862394,16.1751018882793
0.188391403685368,16.176020659183
0.216381107116351,16.1769453492776
0.248818842745191,16.1778773188458
0.286588766108064,16.178828248135
0.33102005715696,16.1798194133001
0.370303677755567,16.180619805806
0.411746483021902,16.181420198312
0.448040191238517,16.1821106433797
0.479550363935988,16.1827265387327
0.507248588941795,16.1833076783167
0.531318183004723,16.1838799971215
0.551423399098917,16.1844668064418
0.56664640881491,16.1850983150038
0.574816867522386,16.1858326331055
0.571895896181361,16.1865944190581
0.556637362403135,16.187391241315
0.527370201789272,16.1882430920101
0.48432367945368,16.1891199580098
0.426374888938998,16.1900360745159
0.374449587820942,16.1907289422483
0.316516196024411,16.1914218099807
0.26634270759309,16.1919829292097
0.224622220489245,16.1924373182713
0.188652329265148,16.1928296005999
0.156781391778962,16.1931847915884
0.128089118506307,16.1935171525006
0.101985499819491,16.1938363698327
0.078019957462496,16.1941505732116
0.0557577032606943,16.1944687317962
0.0345828128159054,16.1948053725194
0.0127680255732008,16.1952041221183
-9.79717644553004e-05,16.1954759523122
-0.00769715700312814,16.1956544592526
-0.0146527221007903,16.195832966193
-0.0207154176775717,16.1960032480671
-0.0268997558456545,16.196194675957
-0.0329745034046226,16.1964050389728
-0.0387353459438967,16.1966315172321
-0.0440651511699013,16.1968728595515
-0.0489006210316124,16.1971288824144
-0.0532108592831858,16.197400141285
-0.0569847967991086,16.1976877632747
-0.0602236121986593,16.1979933782856
-0.0629315942980115,16.1983191146849
-0.0651803248487013,16.198680719447
-0.0668155455951547,16.1990530010583
-0.0679618447797763,16.1994550536019
-0.0686336283402207,16.1998921122481
-0.0688411433014311,16.2003705566457
-0.0685894252676928,16.2008985907178
-0.0678745453003444,16.2014877120707
-0.0666778585500079,16.2021539612009
-0.0649590994607018,16.2029201025661
-0.0626356112921944,16.2038233183352
-0.0595163186063755,16.2049379880934
-0.0553117545200082,16.2063737639476
-0.0511965108870328,16.2077585050263
-0.0472354127551325,16.2091021547784
-0.0434642792740218,16.210407747488
-0.0399022241070161,16.2116764290304
-0.0365594124437452,16.2129083923684
-0.0334402615693848,16.2141033681542
-0.0305449909195933,16.2152608842354
-0.027870540810895,16.2163804017141
-0.0254112377347625,16.2174613830003
-0.0231593484460206,16.2185033203852
-0.0211055752926825,16.2195057402126
-0.0192395071880318,16.2204681909018
-0.0175500276076662,16.2213902194144
-0.0159616796035573,16.2223094973293
-0.0144321132179354,16.2232523516037
-0.0129657805609775,16.2242203837537
-0.0115665871745768,16.2252157156088
-0.0102382358381514,16.2262408386653
-0.00898417202542371,16.2272987073701
-0.00780752960542903,16.2283928599401
-0.00671107359713632,16.2295275812552
-0.00569713955240669,16.2307081276195
-0.00476756849720743,16.2319410454799
-0.00392363526947305,16.2332346383066
-0.00316596613594952,16.2345996778883
-0.00249443774495276,16.2360505417933
-0.00190804130339507,16.2376071477102
-0.0014204039710871,16.2392385931749
-0.00103082404145704,16.2409181577329
-0.000722917409595624,16.2426641532125
-0.000481892949396853,16.2444982611052
-0.000293725027414751,16.2464495724291
-0.000144661864039014,16.2485595721675
-2.04375052755301e-05,16.2508926436178
9.53603114084356e-05,16.2535622446369
0.000226270176943818,16.2568192877984
0.000384895718312518,16.2605611468538
0.000575386789629196,16.264589968213
0.000821528445155179,16.2693019420599
0.00109280865791946,16.2741965774818
0.00134610802476653,16.2786781121359
0.00158843006702876,16.2829820482454
0.0018318959133284,16.2873657595487
0.00209681161149361,16.2922154163657
0.0023622661122683,16.2971349614182
0.00262598431446023,16.3020476634377
0.00287486453225552,16.3066688412301
0.00309658516114273,16.3107459344198
0.00330924628234855,16.3146046399529
0.00352096458758957,16.3183806348966
0.00373661736863801,16.3221469526223
0.00395997381297215,16.3259527452346
0.00419445296814994,16.3298362730581
0.00444346478088804,16.333830110081
0.00471066794833833,16.3379645297434
0.00500017117035898,16.3422694275448
0.00531674855029301,16.3467756182506
0.00566615295217197,16.351516076553
0.00605562609825129,16.3565272319116
0.0064774147330169,16.3616444023258
0.00691849416497847,16.366665940123
0.00738592803996303,16.3716373432612
0.00788157300494637,16.376533547923
0.00841074972417414,16.381359842429
0.00897928198314542,16.3861181128993
0.0095940712050892,16.3908121267783
0.0102627509452581,16.3954438893149
0.0110052881040913,16.400082700215
0.0118394708827785,16.4047517520605
0.0127843989446126,16.4094591768064
0.0138669079087815,16.4142294223996
0.0151279124564399,16.419116813711
0.0166433713298244,16.4242562758378
0.0186173665276261,16.4300818234806
0.0204819467858928,16.4349786150416
0.0220591951014175,16.4388522076847
0.0236713871134526,16.4427258003278
0.0250560754847074,16.4461459985735
0.0262220027720669,16.4492811567102
0.0271825124156466,16.4523043509633
0.0278876503881557,16.4551912623619
0.0283267309289879,16.4580077442637
0.0284870004604179,16.460884914535
0.0283124373433802,16.4640283854686
0.0275632616542148,16.4681055166709
0.0267105809645446,16.4710174379485
0.0256448289058598,16.4739293592261
0.0245670708807599,16.476501091216
0.0234927016365934,16.4788692403214
0.0224177580410543,16.4811297210092
0.021343690685558,16.4833307250383
0.0202738786200166,16.4855004652424
0.0192120369511078,16.4876578866322
0.0181617604085563,16.4898169455066
0.0171263991027624,16.4919886361764
0.0161090272577369,16.4941820993863
0.0151124424111555,16.4964052885597
0.0141391771440405,16.4986653952116
0.0131915056590757,16.5009691587786
0.0122714576247358,16.5033230821803
0.0113808273005683,16.5057336095246
0.0105211783993963,16.5082072874505
0.00969385772471165,16.5107508876747
0.00889999877703147,16.513371552181
0.00813020637468971,16.5161152183996
0.00737441419337325,16.519044102734
0.00663642796474522,16.5221796195906
0.00592015543390237,16.5255471726378
0.00522965361645349,16.5291760947658
0.00456908016472812,16.5331004047991
0.00394264774901013,16.5373598310794
0.00335448425936721,16.5420013878038
0.00280843036644398,16.5470820315706
0.00230775270528753,16.5526737263466
0.00185494482350398,16.558871154161
0.00145310746272934,16.5657751610216
0.0011159215679219,16.5732163309385
0.000836642258233159,16.5813035947211
0.00060881081231665,16.5901838957432
0.000467340145022389,16.5980989281626
0.000349885096322635,16.6073125583736
0.000259996023671446,16.6173125583736
0.000197377237633342,16.6273125583736
0.000154058258742206,16.6373125583736
0.00012455885439392,16.6473125583736
0.000104862353777574,16.6573125583736
9.20356205574662e-05,16.6673125583736
8.4002492198901e-05,16.6773125583736
7.93343872333502e-05,16.6873125583736
7.70621151924179e-05,16.6973125583736
7.65294025721349e-05,16.7073125583736
7.72910657654379e-05,16.7173125583736
7.90462202955482e-05,16.7273125583736
8.15947450734088e-05,16.7373125583736
8.48081903341013e-05,16.7473125583736
8.86098236154335e-05,16.7573125583736
9.29608458103047e-05,16.7673125583736
9.78510195696546e-05,16.7773125583736
0.00010329253701946,16.7873125583736
0.000109316287021892,16.7973125583736
0.000115969928751724,16.8073125583736
0.000123317382567674,16.8173125583736
0.000131439517755425,16.8273125583736
0.000140435955656961,16.8373125583736
0.000150428028208375,16.8473125583736
0.000161563052012107,16.8573125583736
0.00017402021481213,16.8673125583736
0.000188018546000034,16.8773125583736
0.000203827684391174,16.8873125583736
0.00022178250826191,16.8973125583736
0.00024230322380204,16.9073125583736
0.000265923334043643,16.9173125583736
0.000293329229103382,16.9273125583737
0.000325417300854504,16.9373125583737
0.000363378130985383,16.9473125583737
0.000408823638957423,16.9573125583737
0.000463984471862814,16.9673125583737
0.000527120294450198,16.9766512556431
0.000598579936243802,16.9852711789885
0.00067939481447008,16.9932243963856
0.000770794531174733,17.0005632563308
0.000874185958589185,17.0073364040648
0.00099116532385956,17.0135889434272
0.00112354082803268,17.0193627285341
0.00127336057791722,17.0246966094436
0.00144294617458501,17.0296266261866
0.00163492767314152,17.0341862192413
0.00185229022921975,17.0384064459019
0.00209842455858298,17.0423161841753
0.00237719067501094,17.0459422972214
0.00269299404731142,17.0493098107172
0.00305088242535798,17.0524421118033
0.00345667270318155,17.0553611429975
0.00391711257559467,17.0580876023658
0.00444010484771327,17.060641191578
0.00503502398937294,17.0630409147928
0.00571317612685532,17.0653054621482
0.00646827747445655,17.067402477258
0.00730217591622641,17.0693432626007
0.00822703920011312,17.0711617365674
0.00926123935761292,17.0728924044462
0.0104349828703053,17.0745752511843
0.01180874042087,17.0762718725287
0.0136177264356464,17.0781952170669
0.0154409107413056,17.0798960318683
0.0174429856473729,17.0815968466696
0.0191714878092919,17.0829956434912
0.0206654026177924,17.0842024231415
0.0220018452123606,17.0853250846683
0.02319695277283,17.0864166378528
0.0242415327057952,17.0875156395077
0.0251092588893823,17.0886640716131
0.0257493049101832,17.0899272973359
0.026044839278715,17.0914626124496
0.02560105485216,17.0936091981613
0.0245958618161598,17.0953828423693
0.0234609426139415,17.0968305720367
0.0221911233240607,17.09822028343
0.020780629524839,17.0996405125793
0.0192377283826186,17.1011334935217
0.017568859042189,17.102737812708
0.0158092777499799,17.104503983075
0.0137335734699102,17.1068006871512
0.0121816791505807,17.1087171888741
0.0110351109135318,17.1102753582065
0.0100571565896904,17.1117235238926
0.00915863668440099,17.1131721496943
0.00828540450618683,17.1147123150273
0.00737507684838097,17.1164901271612
0.00626340332682618,17.1189712726379
0.00527974070463488,17.1215564930861
0.00447992297143331,17.1240431568924
0.00379881993670511,17.1265519513516
0.00316453749490185,17.1293636109264
0.00260692750491206,17.1324172564064
0.00213985593310857,17.1356635563672
0.00175971311352727,17.1391378473042
0.001466174754673,17.1428859154291
0.00126505187785536,17.146965682224
0.00117337818286743,17.1514525938612
0.00120569729607553,17.1554258503342
0.00133530309587338,17.1590010955372
0.00154859827395043,17.1622177576288
0.0018389168231003,17.1651244501545
0.00220407281410698,17.1677665816364
0.00264662932374063,17.1701942420888
0.00317360242334186,17.1724556079923
0.00379901397875132,17.1746033141502
0.00454767689866538,17.1766967855559
0.00546739343030489,17.1788187907313
0.00664581898000763,17.1810826081886
0.00826372953858513,17.1836786133311
0.0102908358760595,17.1864096469698
0.0118685301428675,17.1882510079925
0.0136529223949865,17.1900923690151
0.0154744278261354,17.191743438994
0.0173943799259979,17.1932678354076
0.0194536329123549,17.1946937733561
0.0217130605339762,17.1960521930973
0.024217440290177,17.1973540013697
0.0270072972091578,17.1986039180934
0.030132046461808,17.1998079800396
0.0336378807002511,17.2009683442126
0.0375761319365512,17.2020873521213
0.0420081600839158,17.2031683643476
0.0469989182861666,17.2042135713812
0.0526281348884379,17.2052263086319
0.0589873106175128,17.2062096602024
0.0661836135364657,17.2071667411467
0.0743465624573862,17.2081010616604
0.0836324329241764,17.2090163313213
0.0942319691554286,17.2099165375226
0.10638112852174,17.210806064381
0.120378305512605,17.2116899789055
0.136605942589882,17.2125741622694
0.155567102537537,17.2134657826222
0.177947071208984,17.2143741125471
0.204300402078505,17.2152981995735
0.234805076331933,17.2162260279961
0.270241337081378,17.217167297899
0.31170514189855,17.2181381040497
0.361104603825843,17.2191729823005
0.397373675972107,17.2198816586483
0.434606609651681,17.2205903349961
0.467738125476186,17.2212279641921
0.496865211554531,17.2218190690331
0.522364970532897,17.2223921125112
0.544088975158125,17.2229702977016
0.561379350731959,17.2235797707525
0.572715013346873,17.2242631598049
0.574505808089534,17.2250168549861
0.564436202718143,17.2257968154569
0.541127371281629,17.2266240282579
0.5033466835688,17.2274992738378
0.451622283104185,17.2283971708751
0.386174277421642,17.229315631257
0.338793891379571,17.2298986071641
0.28781814923459,17.2304815830712
0.242997963346592,17.230973613948
0.204682487803045,17.2313900337267
0.171066457941217,17.2317601098477
0.140993034273888,17.2321016282611
0.113754803909456,17.2324258668559
0.0888535622892053,17.2327413861796
0.0658630011215015,17.2330564222229
0.0442901118490165,17.2333819550811
0.0231812335972206,17.2337415678955
0.00691966608508409,17.2340594372721
-0.00220932850068132,17.2342599267779
-0.0105020316198542,17.2344604162838
-0.0171245979261498,17.2346364618464
-0.0232451436569231,17.2348150481071
-0.0294162801530775,17.2350146924627
-0.0353812737662097,17.2352318997911
-0.0409759557362206,17.2354645504249
-0.0461086296062488,17.2357118841015
-0.0507312520174976,17.2359740488829
-0.0548222232597731,17.2362518480817
-0.0583762146274998,17.2365466189967
-0.0613979328805038,17.2368601933092
-0.063949476284385,17.2372044794778
-0.0658868577069443,17.2375606374699
-0.0673263818548153,17.2379440476322
-0.0682835377115086,17.2383592748933
-0.0687707185475987,17.2388118513711
-0.068796375159677,17.2393088036858
-0.0683627849618049,17.2398592578392
-0.0674605873506715,17.2404767063086
-0.0660639931257699,17.241179158878
-0.0641196630633175,17.2419938079364
-0.0615153498525862,17.2429679640664
-0.0579599520276173,17.2442104136332
-0.0537811423411082,17.245624518167
-0.0497170528860719,17.2469936576857
-0.0458229980430904,17.2483231096405
-0.0421272749625787,17.2496150679969
-0.0386451653932097,17.2508702551037
-0.0353844787817573,17.2520886554897
-0.0323479578990877,17.2532699051688
-0.0295345288498207,17.2544134972723
-0.0269401013430728,17.2555188887808
-0.0245581834673507,17.2565855518208
-0.0223804112191503,17.257612992063
-0.0203970270242906,17.2586007462882
-0.0185973150873808,17.2595483657958
-0.0169699931466916,17.2604553893296
-0.0154021821629146,17.2613831124994
-0.0138949950106368,17.2623348362496
-0.0124524707751675,17.2633124670872
-0.0110784492959561,17.2643182502562
-0.00977654653113532,17.2653548326064
-0.00855010185262974,17.2664253636242
-0.00740212269679215,17.2675336296987
-0.00633522618164734,17.2686842365749
-0.00535157705624982,17.2698828634692
-0.00445282057997204,17.2711366274248
-0.00364000760832651,17.2724546241843
-0.00291350668449461,17.2738487657328
-0.00227289294945166,17.2753351473085
-0.00171679267945502,17.2769364346446
-0.00126722511790299,17.2785831297901
-0.000909339913637553,17.2802848620808
-0.000627598929231073,17.2820602963576
-0.000407535712680043,17.2839334469831
-0.000235292681366499,17.2859371739288
-9.70465710950022e-05,17.2881196547052
2.19836789476717e-05,17.290558700109
0.000139863067055341,17.2934007818089
0.000286639371589667,17.297018911731
0.000454157940199711,17.3008135937856
0.000663462780979389,17.305058072956
0.000928826341047201,17.3099960663634
0.00119279285476545,17.3147036920504
0.00144056248364364,17.3190859995661
0.0016816818743757,17.3233883327113
0.00193008557613703,17.3278892055237
0.00220471169346827,17.3329462518133
0.00246800493644691,17.3378393605146
0.00273568767760465,17.3428254028908
0.00296969551701592,17.3471537566805
0.00318623359463817,17.3511151133223
0.00339777955633037,17.3549276895711
0.003610643495991,17.3586925577208
0.00382909789452654,17.3624702403563
0.00405670680320382,17.3663043673056
0.00429685354385551,17.3702303651864
0.00455302330361541,17.3742794962498
0.00482904063758827,17.37848170739
0.0051292634116954,17.3828671347243
0.00545882904840378,17.3874673414269
0.005824037678587,17.3923166063718
0.0062329729173289,17.3974530716478
0.00666058162967849,17.4025048655312
0.00711316239764211,17.407514589292
0.00759179675695507,17.4124520364124
0.00810102233195996,17.4173189869285
0.00864604597875007,17.422115893727
0.00923326454324049,17.4268466608608
0.00986987077885594,17.4315141693721
0.0105655666809498,17.4361308264157
0.0113451967908741,17.4407846498788
0.0122233088701489,17.4454675295735
0.013222455149514,17.450197436894
0.0143740165674312,17.455007612085
0.0157295591654625,17.4599766236212
0.0173972540324853,17.4653144015604
0.0197712946363449,17.4719003441961
0.0214111666034729,17.4760159767807
0.0231184436614616,17.4801316093654
0.0245944769127854,17.4837195570487
0.0258344011931287,17.4869325173056
0.0268678061305056,17.4899789144763
0.0276681946928235,17.4929188987459
0.0282015742667619,17.4957467477925
0.0284638569601822,17.4985851469953
0.0284191553781703,17.5015997209012
0.0279358962923556,17.5051772702417
0.027132213411821,17.5084114986069
0.0260383394203296,17.5116457269722
0.0249485274559637,17.5143537524214
0.0238728876928334,17.5167813117329
0.0227981282678558,17.5190729247855
0.0217234123754916,17.5212910974942
0.0206516770664211,17.5234694107077
0.0195865985676739,17.5256294175086
0.0185318377492903,17.5277865351112
0.0174908377460233,17.5299526468644
0.0164667704853219,17.5321374590029
0.0154625319493419,17.5343492841416
0.0144807456283051,17.5365955477021
0.0135237770568087,17.5388831180555
0.0125937416422011,17.541218558865
0.011692514099589,17.543608321536
0.0108217406346356,17.5460588953519
0.00998284292702179,17.5485769598688
0.00917702952425493,17.5511695092794
0.00840314112017411,17.553851778207
0.00764189727768954,17.5567124970001
0.00689714578953412,17.5597716216661
0.00617268180280251,17.5630533087945
0.00547253090888079,17.5665854152362
0.0048008143392349,17.5704001869954
0.00416173782642219,17.5745351736166
0.00355947971689544,17.5790345549354
0.00299801079145014,17.5839513283826
0.00248083434469604,17.5893513542909
0.0020107332158632,17.5953201393164
0.00158969331084748,17.601972166958
0.00123010335707721,17.6092084951803
0.000930784842502614,17.6170485208251
0.000685167849165182,17.6256242804581
0.000493611492380385,17.6351106963896
0.000369156977908059,17.6442388123205
0.000273585725869905,17.6542388123205
0.000207025549887718,17.6642388123205
0.000160774700589126,17.6742388123205
0.000129106705244825,17.6842388123205
0.000107858161176609,17.6942388123205
9.39493474236748e-05,17.7042388123205
8.51669590553703e-05,17.7142388123205
7.99742414833314e-05,17.7242388123205
7.73266513570423e-05,17.7342388123205
7.65184969012492e-05,17.7442388123205
7.70722332126809e-05,17.7542388123206
7.86650352904871e-05,17.7642388123206
8.10813153116069e-05,17.7742388123206
8.41814491903449e-05,17.7842388123206
8.78805258146325e-05,17.7942388123206
9.213367191328e-05,17.8042388123206
9.69260089682236e-05,17.8142388123206
0.000102266007347541,17.8242388123206
0.00010818136506568,17.8342388123206
0.000114716785204493,17.8442388123206
0.000121933229975867,17.8542388123206
0.000129908401833268,17.8642388123206
0.000138738345688869,17.8742388123206
0.000148540190449839,17.8842388123206
0.000159456167556532,17.8942388123206
0.000171659176606262,17.9042388123206
0.000185360334166996,17.9142388123206
0.000200819168696138,17.9242388123206
0.000218357452108115,17.9342388123206
0.000238378150389296,17.9442388123206
0.000261391736646299,17.9542388123206
0.000288053319341595,17.9642388123206
0.000319216011737699,17.9742388123206
0.000356009278392949,17.9842388123206
0.000399956715079613,17.9942388123206
0.000453157938885303,18.0042388123206
0.00051482439782974,18.0137121674606
0.000584668437280253,18.0224615141862
0.000663661567107426,18.0305341967466
0.000752999143857446,18.0379831000891
0.000854054249820812,18.0448575548634
0.00096838629422068,18.0512032980649
0.00109776221353651,18.0570627656091
0.00124418325613604,18.0624753491818
0.00140991786898035,18.0674775937277
0.00159753572217913,18.0721034053351
0.00180995272890338,18.0763842663371
0.00205047963806077,18.080349445427
0.00232288474682038,18.0840261663852
0.00263146543191283,18.0874397809394
0.00298114198799471,18.0906139644237
0.0033775781298347,18.0935709130631
0.00382733393051515,18.0963315384143
0.00433807782037323,18.0989157054399
0.00491888236745414,18.1013425224138
0.00558065105593821,18.1036307018603
0.00632204914077313,18.1057604793735
0.00714050893054969,18.1077277800734
0.00804728020721597,18.109566457235
0.00905932014256781,18.1113107116104
0.0102038927752317,18.1129988609286
0.0115318661422787,18.1146846942238
0.0132318396511944,18.1165437527958
0.0152115644220202,18.1184272737189
0.0168582238151655,18.1198480979606
0.018596396391487,18.1212689222023
0.0201525169815082,18.1225207153072
0.0215409582480126,18.1236654447856
0.0227866379621011,18.1247634108017
0.023887088099545,18.1258554168822
0.0248221904741562,18.1269805207994
0.02555181662193,18.1281922352278
0.0259930460572325,18.129598220757
0.0258496675824602,18.1316400999475
0.0251966673310079,18.1331629210962
0.024176838848702,18.1346857422448
0.0230031798164201,18.1360835092635
0.0216819085173524,18.137477214716
0.0202218092104233,18.1389198691294
0.0186322101447812,18.1404491186763
0.0176195451858231,18.1414233184155
0.0166293648826737,18.1423975181547
0.0154297948712876,18.1436387124194
0.0138119033280491,18.1454430276047
0.0123393374797789,18.14724734279
0.0111699661117323,18.1488191049591
0.0101771704007278,18.1502734597273
0.00927173656731452,18.1517171962616
0.00839826880154227,18.1532394040573
0.00749782230952257,18.1549731582154
0.00643525313047494,18.1572957364718
0.0054309297255229,18.15986426164
0.00459901320222976,18.1623803508789
0.00390445122672941,18.1648682271897
0.00326529819937267,18.1676127514528
0.00269239934038842,18.1706371528772
0.00221072385078026,18.173849729654
0.0018164220663266,18.1772836817997
0.00150844181479634,18.180983162294
0.00129133372776579,18.1850037952471
0.00117973488060107,18.1894176593398
0.00119229224223772,18.1934768314133
0.00130560918215705,18.1971207358063
0.00150448964415361,18.2003984343089
0.00178121847449772,18.2033575846945
0.00213276647905309,18.2060431207263
0.00256096134532788,18.2085056596451
0.0030720016126872,18.2107935991523
0.00367808151169811,18.212957148204
0.00440157382707408,18.2150543878074
0.00528387410522218,18.2171606408738
0.00640433656650601,18.2193853492787
0.00792382851299902,18.2219053164299
0.00988255628280913,18.2246310629099
0.0114669769081477,18.2265377779745
0.0132622754023355,18.2284444930391
0.0150770964491165,18.2301366003254
0.0169730225918443,18.2316858467179
0.0189965601472201,18.2331293353697
0.0212084737566844,18.2345006803009
0.0236572423797788,18.2358143851282
0.0263809705683914,18.237074530279
0.0294307387591062,18.238288551363
0.0328491985961242,18.2394576546039
0.0366897900263899,18.2405853427449
0.0410108948459213,18.2416744536376
0.0458748866474854,18.2427270035622
0.0513598833712208,18.2437465136391
0.0575539290385539,18.2447359566518
0.0645598503342023,18.2456983516741
0.0725029342220941,18.2466372714535
0.0815327872727274,18.2475563247373
0.0918317065126106,18.2484594081432
0.103624959453813,18.249350824712
0.117196032718934,18.2502354885073
0.132906706851732,18.2511190669466
0.151230045724904,18.2520083988642
0.172804538544436,18.2529121890783
0.198356202568848,18.2538364397368
0.227917637789091,18.2547627890544
0.262224873447996,18.2557001504962
0.302284950055747,18.2566627169569
0.349746870010175,18.2576790631066
0.387012593871782,18.2584173958022
0.42566024194849,18.2591557284978
0.459958866576548,18.2598115155931
0.49001973008898,18.2604111508909
0.516409890446221,18.2609864260026
0.539105021390457,18.2615611774035
0.557585517835822,18.2621599638371
0.570615581877674,18.2628191843474
0.575119741967331,18.2635698478844
0.567993698594658,18.2643415195493
0.548024116678205,18.2651556231862
0.513283076075083,18.2660309759413
0.465098721911548,18.2669183491917
0.402119546841519,18.2678418422281
0.352977761804221,18.2684645462096
0.299404930505819,18.2690872501911
0.252545913766154,18.2696049854094
0.212898098519703,18.270035896336
0.178339227003421,18.2704145968059
0.147536331439872,18.2707614420005
0.119704393620296,18.2710887895174
0.0943118691308716,18.2714055866533
0.0709263510290039,18.2717199392423
0.0490873930496287,18.2720417829333
0.0280229980557065,18.2723898873746
0.00460977248383276,18.2728436893249
-0.00381798500433451,18.2730325687863
-0.0115093958853466,18.2732214482476
-0.0179792781896093,18.2733956568271
-0.0241274580118956,18.2735775280475
-0.0302831893945685,18.2737798724746
-0.0362034178498772,18.2739993697319
-0.0417366686221156,18.274234131665
-0.046798906178417,18.2744835499468
-0.0513466950459546,18.2747478776111
-0.0553612565462024,18.2750279991123
-0.0588390061823892,18.2753253230643
-0.0617857157275288,18.2756417517843
-0.0643497763893848,18.2760042069706
-0.0661940475107344,18.2763653724344
-0.0675422666554796,18.2767543712645
-0.0684106398292548,18.2771761260672
-0.068810975512804,18.277636416588
-0.0687507609744556,18.2781426077711
-0.0682307103494033,18.2787043842585
-0.0672386080801998,18.2793361656602
-0.0657447695551917,18.2800571439691
-0.0636882474181976,18.2808970964179
-0.060938064446978,18.2819097571703
-0.0571271506811005,18.2832300615733
-0.0529655824704512,18.2846341557767
-0.0489318981944858,18.2859951405362
-0.0450753618464743,18.2873170520551
-0.0414209732804692,18.2886017025189
-0.0379822383796792,18.2898496229039
-0.0347658240052462,18.2910607047781
-0.0317736377025912,18.2922345432065
-0.0290039528266147,18.2933706176795
-0.026452158293919,18.2944683852426
-0.024111351339468,18.2955273238985
-0.0219728555693812,18.2965469461277
-0.0200266905027706,18.2975267932306
-0.0182619985535222,18.2984664164334
-0.0166495394468449,18.2993757392443
-0.0150935839784569,18.3003081708866
-0.0135991040472166,18.30126494908
-0.012170076001708,18.3022480584991
-0.0108102988643705,18.3032598182958
-0.00952333717876978,18.3043029675452
-0.0083124679869511,18.3053807719366
-0.00718062489316396,18.3064971663394
-0.00613033901322266,18.3076569494374
-0.00516367604256525,18.3088660562949
-0.00428216784244768,18.3101319517099
-0.00348673544110077,18.3114642187224
-0.00277759750706179,18.3128754787577
-0.00215415255484266,18.3143829119199
-0.00161834019250717,18.3159989222917
-0.0011885437153218,18.3176551841732
-0.000847151185917782,18.3193700906168
-0.000578928819389046,18.321162995463
-0.000369568067792596,18.3230593588948
-0.000205272290143214,18.3250944454289
-7.21274418007049e-05,18.3273208262084
4.50429565076816e-05,18.3298255348373
0.000165572410837009,18.3327796384226
0.000318947672116856,18.336518505977
0.000492910974557332,18.340370119628
0.000713394939460581,18.3447500447635
0.000982351673977484,18.3496957550007
0.00124261837983517,18.3543199288154
0.0014881858574544,18.358666842642
0.00172944067390328,18.3629833420046
0.00198173454385536,18.3675697508604
0.00225260821996441,18.3725688774032
0.00251531696993012,18.3774562458015
0.00278569292326015,18.3824903337412
0.00301482831319871,18.3867195190841
0.00322965901475655,18.3906385810684
0.00344106642697745,18.3944350746731
0.00365476442448846,18.3981983958041
0.00387481312731614,18.4019844068366
0.00410471055426147,18.4058345948891
0.00434784230042872,18.4097832872472
0.00460774534720385,18.4138612866285
0.00488833677124065,18.4180984682931
0.0051941110052926,18.4225251634691
0.00553040571948339,18.4271733811665
0.00590382628493046,18.432078120438
0.0063205602680678,18.4372496094636
0.00675180840333701,18.4422775850783
0.00720992680346823,18.4472776264704
0.00769436250957283,18.4521990496136
0.00821053820519493,18.4570515174592
0.00876372350384309,18.4618343855859
0.00936053584146529,18.4665519006342
0.0100083169518914,18.4712065605191
0.0107202909771271,18.4758310457746
0.011518835255641,18.4804899673165
0.0124200491236565,18.4851809886698
0.0134478325751976,18.4899238674265
0.01463650095225,18.4947582259868
0.0160446892741066,18.4997788759506
0.0178050241861585,18.5052528183781
0.020215026865465,18.5117748349275
0.0217966204535557,18.515688917107
0.023424842287279,18.5196029992865
0.0248478025472987,18.5230892097223
0.0260471898728576,18.526256845151
0.0270413091552444,18.5292885885769
0.0277901846019822,18.5321979109916
0.0282729160909495,18.5350176729752
0.0284809417852346,18.5378742817076
0.0283685159079072,18.540952013815
0.0277576499186817,18.5447567795509
0.0269287671843981,18.5478122327801
0.0258527951570827,18.5508676860092
0.0247703355169033,18.5535042140297
0.0236955566453217,18.5559020359085
0.0226207087170836,18.5581783286488
0.0215462474610548,18.5603880490061
0.0204753543147488,18.5625620706716
0.0194117321225926,18.56472065809
0.0183590127615162,18.5668785145422
0.0173205971285845,18.569047089585
0.0162996108508368,18.5712358166544
0.0152989045423047,18.5734528325349
0.0143210584717604,18.5757054503049
0.0133683952681415,18.578000475157
0.0124429917259206,18.58034443591
0.0115466834655915,18.5827437817691
0.0106810777881954,18.5852050276679
0.00984756278059939,18.5877348899809
0.00904731094878648,18.5903404323207
0.00827529086662871,18.5930511010729
0.0075165450907601,18.5959433426266
0.00677490186685981,18.5990377845048
0.00605420814922378,18.6023591529704
0.00535850781827448,18.6059359890882
0.00469193861185607,18.6098013503089
0.0040587116280018,18.6139937811054
0.00346298489716994,18.6185587460145
0.00290867178816577,18.6235510306555
0.00239916915612305,18.6290392310149
0.0019371256882885,18.6351129811047
0.00152440848397006,18.6418925617149
0.0011754558222693,18.6492237111613
0.000885666597611851,18.6571777809194
0.000648510435546402,18.6658938344621
0.000465373395322945,18.6755996610274
0.00036249480939448,18.6835707509969
0.000268944696669498,18.6935707509969
0.000203767270497713,18.7035707509969
0.000158516896136073,18.7135707509969
0.000127575744232754,18.7235707509969
0.000106844964349321,18.7335707509969
9.32983883666626e-05,18.7435707509969
8.47681833855037e-05,18.7535707509969
7.97526029507911e-05,18.7635707509969
7.723171967881e-05,18.7735707509969
7.6516325862175e-05,18.7835707509969
7.71398594990749e-05,18.7935707509969
7.87869857264982e-05,18.8035707509969
8.12473766146014e-05,18.8135707509969
8.43851821351708e-05,18.8235707509969
8.81182390706871e-05,18.8335707509969
9.24037093784007e-05,18.8435707509969
9.72282668882731e-05,18.8535707509969
0.000102601623613645,18.8635707509969
0.000108552537753517,18.8735707509969
0.000115126689619489,18.8835707509969
0.000122386014493405,18.8935707509969
0.00013040925226899,18.9035707509969
0.000139293615874993,18.9135707509969
0.000149157603833303,18.9235707509969
0.000160145101983832,18.9335707509969
0.000172431053175785,18.9435707509969
0.000186229142516349,18.9535707509969
0.000201802177297065,18.9635707509969
0.000219476176053028,18.9735707509969
0.000239659685621959,18.9835707509969
0.000262870626776411,18.9935707509969
0.000289774213237944,19.0035707509969
0.000321237522286543,19.0135707509969
0.000358409711707322,19.0235707509969
0.000402842793871884,19.0335707509969
0.000456678469619503,19.0435707509969
0.000518822676833474,19.0529997663164
0.000589192086636224,19.0617064954624
0.00066877757513711,19.0697398384028
0.000758785667794133,19.0771525035266
0.000860600444352408,19.0839935957597
0.000975793282115024,19.090308643526
0.0011061445325977,19.0961398911725
0.00125367066912977,19.1015265522758
0.00142065743570748,19.106505005574
0.00160969410487879,19.1111090038053
0.00182371911345612,19.1153698892516
0.00206606914945367,19.1193168020303
0.00234054230200957,19.1229768471111
0.00265147101694196,19.1263752686591
0.00300381687302814,19.1295356468647
0.0034032932125825,19.1324800940994
0.00385652076464718,19.1352294510733
0.00437124361748487,19.1378035281688
0.00495663164651393,19.1402213981837
0.00562371775344124,19.1425017643254
0.0063695637253293,19.1446206914731
0.00719302630807999,19.1465791930453
0.00810564729479986,19.1484111370864
0.00912482769832217,19.1501508056439
0.0102787444968356,19.1518370196424
0.01162059815565,19.1535252493703
0.0133539300268773,19.1554035748358
0.0152777810009074,19.157222680088
0.0169223891878974,19.1586378393899
0.0186558760108692,19.1600529986918
0.0202050926831137,19.1612994769549
0.0215881718384791,19.1624416591727
0.0228287893287494,19.163538757819
0.0239237379005734,19.1646312456218
0.0248522953120192,19.1657583855315
0.0255733880076932,19.1669746595715
0.0260014439027971,19.1683914819977
0.025816680548693,19.1704886103074
0.0251406194074805,19.1719984569653
0.0241102995892921,19.1735083036233
0.0229274816259904,19.1749035294144
0.0215974381233959,19.1762990164788
0.0201291962992021,19.177745895925
0.0185318995484093,19.179281645535
0.0175174631900357,19.1802583372652
0.0165285645895837,19.1812350289955
0.0148644516047811,19.1829866959456
0.013378613323495,19.1846921087218
0.0120211714406468,19.186397521498
0.0109099631415475,19.187924364629
0.00994528280271289,19.18936763758
0.0090525892657817,19.1908221461503
0.00817882171258574,19.1923811384179
0.00725741739297066,19.1942055980875
0.00615266322842623,19.1967121829978
0.00518321051320948,19.1993063789469
0.00440130015244245,19.2017826054852
0.00372779263495118,19.20431152313
0.00309633061519826,19.2071736509444
0.00254922282236594,19.2102482417713
0.00209222331633663,19.2135186090562
0.00172189747336368,19.2170217023633
0.00143846411080655,19.2208045026028
0.00124868471537021,19.2249266144355
0.00117175734547995,19.2293579913426
0.00121510765480844,19.2332876024511
0.00135392443863097,19.2368232953283
0.00157546126578191,19.2400054223692
0.00187364999778631,19.2428826996941
0.00224677287289463,19.2455006051975
0.00269769725563447,19.247908387007
0.00323416574214518,19.2501553572149
0.00387074206617043,19.2522934470271
0.00463408319701855,19.2543846083429
0.00557297742615415,19.2565098604267
0.0067853228405047,19.2587967689826
0.00846079752815574,19.2614364644373
0.0105253623075695,19.2641681306706
0.0121006979925571,19.2659750291842
0.0138810644533901,19.2677819276977
0.0157089559954428,19.2694116577174
0.0176440466117567,19.2709223119743
0.0197250042506306,19.2723383190434
0.0220134861041396,19.2736896025644
0.0245511890882894,19.2749845318205
0.0273811177037557,19.2762287335429
0.0305506816911853,19.2774270028127
0.0341089377530866,19.2785823496168
0.0381055593604606,19.2796963225812
0.0426039071810334,19.2807726470906
0.0476709332671269,19.2818136964396
0.0533865429325694,19.2828225322348
0.0598447037189037,19.2838023836895
0.0671554631729565,19.2847564514471
0.0754505037886355,19.2856881555452
0.0848903688972876,19.2866012926601
0.095670891993226,19.2874998984335
0.108034978050898,19.2883884359492
0.122289816553126,19.2892720350847
0.138830843582327,19.2901567224711
0.158179927696706,19.2910498747173
0.181052534905184,19.2919611466562
0.207891238154604,19.2928852844922
0.238968120319257,19.2938141841173
0.275092142915935,19.2947580757345
0.317420309266443,19.2957343890959
0.368051267235955,19.2967820476213
0.40373501050575,19.2974742638986
0.440138698832168,19.2981664801759
0.472575117200411,19.2987941673885
0.501120288820739,19.2993807532646
0.526047518061869,19.2999530907327
0.547132198526163,19.3005342631033
0.563619020396533,19.3011517979441
0.573761314124847,19.3018535406859
0.573722101347323,19.3026099787652
0.56164866250166,19.3033961380183
0.536048983100462,19.3042326636366
0.496293122742568,19.3051069166896
0.442151163573861,19.3060123250479
0.375567997479304,19.3069215671587
0.329319953516159,19.3074806033278
0.279962257679123,19.3080396394969
0.236439532206793,19.3085157512826
0.198997192358099,19.308922962182
0.166013893360152,19.3092874709015
0.136436538944101,19.3096255537771
0.109604436348068,19.3099478475188
0.0850389172182241,19.3102627091836
0.0623141320094931,19.3105785518717
0.0409045329889655,19.3109073322097
0.0196699216718172,19.3112775103944
0.00160879316724287,19.3116446138108
-0.00634037693597345,19.3118281655191
-0.013603618787227,19.3120117172273
-0.019800888483178,19.3121832938985
-0.0259814035609358,19.312371679352
-0.0320880488193377,19.3125794548557
-0.0379046230241238,19.3128036501114
-0.0433034775975941,19.3130428169732
-0.0482149553686374,19.3132966391366
-0.0526043028408103,19.3135655758953
-0.0564580748125119,19.3138506756803
-0.0597759834054831,19.3141534952947
-0.0625632771488869,19.3144760873038
-0.0649425069120819,19.3148430601459
-0.0666398707747179,19.3152120345609
-0.0678458867368542,19.3156101232228
-0.0685758535557136,19.3160425263751
-0.0688405189508008,19.3165154379586
-0.0686456926987229,19.317036799583
-0.0679889339403617,19.3176175421134
-0.066853607762918,19.3182731817725
-0.065202883436098,19.3190253223135
-0.062961362045106,19.3199086672066
-0.0599592132036085,19.3209902938636
-0.055749156490695,19.3224331290966
-0.0516209183827516,19.323822418178
-0.047641532432412,19.325170151955
-0.0438493866844548,19.3264796322398
-0.0402648368345557,19.3277521435739
-0.0368987816405637,19.328987947918
-0.0337561464102343,19.3301868079285
-0.0308375380575088,19.3313482639447
-0.0281402049183957,19.3324717794902
-0.0256587190457453,19.3335568146565
-0.0233855382833568,19.3346028578679
-0.0213115065506611,19.3356094320949
-0.0194263092384749,19.3365760842791
-0.0177188857711876,19.3375023628516
-0.0161247108211053,19.3384192397337
-0.0145887790150665,19.3393595771009
-0.0131156644366946,19.340324889178
-0.01170929035354,19.3413172639036
-0.0103733833565365,19.3423391501638
-0.0091114182258961,19.343393449062
-0.00792656393983463,19.3444836311689
-0.0068216267451486,19.3456138942578
-0.00579898992806548,19.3467893803825
-0.00486054929484564,19.3480164827602
-0.00400764234601633,19.3493032936641
-0.0032409672937452,19.3506602837471
-0.00256048451671927,19.3521013823289
-0.00196528553908751,19.3536458013579
-0.00146636579496266,19.355273277706
-0.00106737587741627,19.3569469521586
-0.000751660130422794,19.3586851071407
-0.000504326349911884,19.3605088250562
-0.000311288696771335,19.3624462490892
-0.000158796328675709,19.364537218768
-3.26902553163563e-05,19.3668429302649
8.30862833527124e-05,19.3694694749718
0.000210814179661785,19.3726440368002
0.0003676775179326,19.3763795661999
0.000553714914505553,19.3803596167288
0.0007928656712762,19.3849781364974
0.00106609229898736,19.3899283587348
0.00132110752273468,19.3944429241331
0.00156404761126396,19.3987535065137
0.00180671332830232,19.4031158188424
0.00206788301644123,19.4078887447352
0.00233433186568338,19.4128221467223
0.00259748833483751,19.4177234156906
0.00285148362712675,19.422443412482
0.00307488520127993,19.4265558675524
0.00328800549635687,19.4304287170518
0.00349957040286823,19.4342091369507
0.00371464766824782,19.4379739510985
0.00393707261226975,19.4417739118573
0.00417028122559556,19.4456480811359
0.00441767253600078,19.4496294397612
0.0046828701033591,19.4537483776692
0.0049699285830848,19.4580347660822
0.00528354339267255,19.4625192737533
0.00562935006092605,19.4672345982245
0.00601441014426353,19.4722167754138
0.00643483575108128,19.4773488720237
0.00687324720416685,19.4823725204497
0.00733813097616882,19.4873517744465
0.00783069664117556,19.492254824338
0.00835629372625164,19.4970881407019
0.00892059988321915,19.5018529854877
0.00953044448586799,19.5065533002063
0.0101933815982832,19.5111912187728
0.0109275038328031,19.5158261300139
0.0117518569551101,19.5204923158646
0.0126847013897499,19.5251950640011
0.0137520068740816,19.5299573485402
0.014992710302153,19.5348290494292
0.0164773721239699,19.5399325624546
0.0183859114252819,19.5456453921871
0.0207993989295262,19.5519797600004
0.0223308020371913,19.5557132966121
0.0238836510303398,19.5594468332239
0.025233120939491,19.5628082338854
0.0263698917036343,19.5659182984484
0.0273005683954374,19.5689368150706
0.0279672178759557,19.5718067601593
0.0283673925506231,19.574623219215
0.0284842602643746,19.5775228062461
0.0282507716301398,19.5807355093029
0.0273444856199085,19.5851420962364
0.0264684190594805,19.587933218121
0.0254078112122465,19.5907243400057
0.0243329309049825,19.5932359327651
0.0232586684051037,19.595574516131
0.0221837119695254,19.5978188784975
0.0211102799765473,19.6000110806585
0.0200419052748223,19.6021767292189
0.0189822985537258,19.6043334297229
0.0179350068820115,19.60649436502
0.0169033221716838,19.6086700503074
0.0158902571460255,19.6108693234732
0.0148985516016178,19.6130999395058
0.0139306805754292,19.6153689702427
0.0129888643211872,19.6176830865114
0.0120750818236919,19.620048761211
0.0111910749503076,19.6224724523481
0.0103383590879974,19.6249607458556
0.0095182358604986,19.627520477192
0.00873179317277689,19.6301588874321
0.00796471660124567,19.6329411536499
0.00721248084402977,19.6359129222731
0.00647887121923888,19.6390965408805
0.00576785242749364,19.6425182020365
0.00508349614087317,19.6462081966062
0.00442998165736026,19.6502016798629
0.00381151710280775,19.6545398033612
0.00323218577589773,19.6592714787947
0.00269573512763716,19.6644563398401
0.00220527181746897,19.6701705578336
0.00176311228381854,19.6765150387117
0.00137573800879898,19.6835255186053
0.00105151845990414,19.6910943510639
0.000783771869758507,19.6993376168531
0.000568061815415959,19.7084108464091
0.000438053456725315,19.7163490728054
0.000322843553426938,19.726169727167
0.00024111641825731,19.736169727167
0.000184238769793664,19.746169727167
0.000145051901407396,19.756169727167
0.000118503991094586,19.766169727167
0.000100882923167025,19.776169727167
8.95026831318264e-05,19.786169727167
8.24803704851508e-05,19.796169727167
7.8527420357078e-05,19.806169727167
7.67705597472709e-05,19.816169727167
7.66178798622584e-05,19.826169727167
7.76677934723786e-05,19.836169727167
7.9649631601306e-05,19.846169727167
8.23846690557593e-05,19.856169727167
8.57598385560542e-05,19.866169727167
8.97096210445346e-05,19.876169727167
9.4203565743086e-05,19.886169727167
9.92378757988504e-05,19.896169727167
0.000104829985024376,19.906169727167
0.000111015354459756,19.916169727167
0.000117845952909268,19.926169727167
0.00012539008075137,19.936169727167
0.000133733356225921,19.946169727167
0.000142980816158216,19.956169727167
0.000153260202447239,19.966169727167
0.000164726628266472,19.976169727167
0.000177568962441247,19.986169727167
0.000187468513505657,19.9930848635835
0.000198180635259939,20
