ecg,time
0.00398157430288319,15.0035513864293
0.00425189237120826,15.0074851242294
0.00453832409627021,15.0115321769433
0.00484511605159714,15.0157231934098
0.00517707069263292,15.0200884634541
0.00553982911302617,15.0246592430242
0.00594028258085362,15.0294689935652
0.00638722230901332,15.0345545155497
0.00685259296292897,15.0395404910888
0.00734559374787079,15.0444931825398
0.00786693691810298,15.0493759820731
0.00842175097096772,15.054190940296
0.00901561748968978,15.0589361485746
0.00965552497203951,15.0636141321554
0.0103493905530012,15.068226938674
0.0111225748990938,15.0728704484839
0.011989683250762,15.0775403645421
0.0129721838654151,15.082252524384
0.0140994001062542,15.0870356725508
0.0154178065856665,15.0919561720386
0.0170190708407058,15.0971843498335
0.0191877244965928,15.1033391684797
0.0209275532022657,15.1077743523205
0.0227654066996912,15.1122095361613
0.0243138082513985,15.115931231884
0.0256036184066378,15.1191973448852
0.0266830501903763,15.1222603159589
0.0275422154886499,15.1252325302016
0.0281322582348638,15.1280682765836
0.028453628506936,15.1308879410399
0.0284792409831323,15.1338424910568
0.0281105065661879,15.1372362831298
0.0273303491962358,15.140686155306
0.0262053431124507,15.1441360274822
0.0251064327452275,15.1469079058414
0.0240306402770166,15.14935448785
0.0229568626682811,15.1516527791458
0.0218828265772147,15.1538723003351
0.0208112499466427,15.1560487679311
0.0197457936626548,15.1582046746282
0.0186901471501459,15.1603559286517
0.0176477899511036,15.1625146926916
0.0166219332070503,15.164690827924
0.0156155094483993,15.1668927290832
0.0146311776986572,15.1691278498129
0.0136713380405434,15.1714030453007
0.0127381367466932,15.1737248381447
0.0118334805852256,15.1760996026378
0.0109590468506605,15.1785337202747
0.0101162851388028,15.1810337371483
0.00930643272316734,15.183606474194
0.00852985110272829,15.1862615383082
0.00776534464290841,15.1890922788278
0.00701675866766168,15.1921181980819
0.00628782655749719,15.1953630018134
0.00558249514397992,15.198854011885
0.00490488326580992,15.2026228567606
0.00425921671933194,15.2067063415006
0.0036497180498413,15.2111477039961
0.00308055002465738,15.2159986550392
0.00255537180364021,15.2213230854912
0.00207708670604854,15.2272035547439
0.00164778711682461,15.2337505134404
0.00127869133542231,15.2408973589828
0.000970899773425605,15.2486303046564
0.000717769265697633,15.2570756168582
0.000513096118820034,15.2664008648792
0.000382801306127712,15.2750808505124
0.00028362563140681,15.2845224673265
0.000209862773724546,15.2945224673265
0.000158399883044538,15.3045224673265
0.000122738628195754,15.3145224673265
9.83867425337868e-05,15.3245224673265
8.20457167866748e-05,15.3345224673265
7.13074510767876e-05,15.3445224673265
6.44679024899074e-05,15.3545224673265
6.03535895329481e-05,15.3645224673265
5.81664780632251e-05,15.3745224673265
5.73638687767656e-05,15.3845224673265
5.75751057963172e-05,15.3945224673265
5.85469052832616e-05,15.4045224673265
6.01075881648713e-05,15.4145224673265
6.21430379858191e-05,15.4245224673265
6.45800786805556e-05,15.4345224673265
6.73748539459076e-05,15.4445224673265
7.05047583724822e-05,15.4545224673265
7.39629369960989e-05,15.4645224673265
7.77546356828207e-05,15.4745224673265
8.18948791781012e-05,15.4845224673265
8.64071099192898e-05,15.4945224673265
9.13225425161321e-05,15.5045224673265
9.66800791446988e-05,15.5145224673265
0.00010252669706817,15.5245224673265
0.000108918269503813,15.5345224673265
0.000115920822434564,15.5445224673265
0.000123612268488979,15.5545224673265
0.000132084699537778,15.5645224673265
0.000141447367062759,15.5745224673265
0.000151830539531502,15.5845224673265
0.000163390506942334,15.5945224673265
0.000176316115984269,15.6045224673265
0.000190837382479921,15.6145224673265
0.000207236968506799,15.6245224673265
0.000225865674154774,15.6345224673265
0.000247163651344236,15.6445224673265
0.000271689922928604,15.6545224673265
0.000300164198390052,15.6645224673265
0.000333527299204298,15.6745224673265
0.000373030443472992,15.6845224673265
0.000420370523955252,15.6945224673265
0.000476844705463963,15.7043528248345
0.000540738381897581,15.7134559807598
0.000612798167428085,15.7218649937493
0.000694032133454949,15.7296321835698
0.000785613891813338,15.7368069792336
0.00088887946539471,15.7434353036359
0.0010053420246802,15.7495598492207
0.00113671365462345,15.7552203524851
0.00128493311039398,15.7604537731185
0.00145219565308246,15.7652944233898
0.00164098603401659,15.7697741617355
0.0018541220007766,15.773922623593
0.00209480417802549,15.7777674129357
0.00236666835537544,15.7813342009313
0.00267385724646522,15.7846468855635
0.00302110570251967,15.7877278077361
0.00341385207572529,15.790597898271
0.0038583741343693,15.7932768265324
0.00436197699873797,15.7957832323854
0.00493325276124917,15.7981349535561
0.00558243899177024,15.8003492940522
0.00631414229041476,15.8024232056181
0.00711926909035201,15.8043311286413
0.00800694515137471,15.8061040979887
0.00899068237935876,15.8077726548706
0.0100907401154834,15.8093680899594
0.0113409580568005,15.8109280262695
0.0128497283159134,15.8125524713408
0.0148796204684057,15.8144321483488
0.0168273266689036,15.8160192858601
0.0189504527520094,15.8176064233713
0.0207412776102404,15.818891656765
0.0223051473756143,15.8200192962075
0.0237110692418808,15.8210798068285
0.0249703601804447,15.8221195914925
0.0260707298881257,15.8231755838421
0.0269816811040797,15.8242914374133
0.0276433760023018,15.8255413920093
0.0279055774423809,15.8269520260238
0.0276727850841404,15.8283612822877
0.0269620724540049,15.8298478813424
0.0259487533972962,15.8312457172969
0.0247437175339928,15.8325924037548
0.0233725212657618,15.8339562263063
0.0218485455621475,15.8353810666997
0.0201809566856756,15.8369045673385
0.018975397213285,15.838010404749
0.0178032882616024,15.8391162421595
0.0164536381190672,15.8404642900988
0.0142736663698077,15.8428586542998
0.011954978893714,15.845807342274
0.0101250105488918,15.8485630297199
0.00869256582232617,15.8511128331519
0.00751149543283235,15.8535974280142
0.00650106237191389,15.8561294053683
0.00564046815898633,15.8587358740784
0.00491684746147181,15.8614397769275
0.00432256544865801,15.8642646100564
0.00385520462831655,15.8672359504595
0.00351881903451911,15.8703828715965
0.00332704657215843,15.8737395866678
0.00330339535079674,15.8770281363684
0.00342807440999278,15.8799845983406
0.00367440050490184,15.8826646629349
0.00402854123204944,15.8851163805034
0.00448636143447364,15.887387964932
0.00505375782312192,15.8895322565217
0.00574783347226857,15.8916050181111
0.00660624863161528,15.8936807369087
0.0077083432623007,15.8958730818051
0.00923727236658565,15.8983926161687
0.0112139265542668,15.9011136728016
0.0128443882737671,15.9030534290314
0.0146910398066181,15.9049931852612
0.0165453198258649,15.90670549457
0.0184508473077014,15.9082512410197
0.0204847205045217,15.9096955128149
0.0227015261625817,15.9110667575931
0.0251470954169296,15.9123784536343
0.0278685995962916,15.9136394936165
0.0309055924442807,15.9148520220903
0.0343084904862372,15.9160207558308
0.038127648574396,15.9171480585048
0.0424158987847796,15.9182355235462
0.0472401858664262,15.9192866735321
0.052672878494458,15.9203040237223
0.0588008157870068,15.9212907364402
0.0657252176735594,15.9222499322027
0.0735658965750595,15.9231848436241
0.0824675881391225,15.9240990096117
0.092605210127856,15.924996144497
0.104193819422125,15.9258803226829
0.117500995377285,15.9267560658878
0.132864776750458,15.927628513362
0.150721038512134,15.9285037279524
0.171646750663446,15.9293891941371
0.196440271775829,15.9302949502166
0.225316430454823,15.9312075426112
0.258763009856749,15.9321268390185
0.297689521925743,15.9330645803297
0.343494480219291,15.9340430532839
0.382340449395729,15.9348034649265
0.42312568752653,15.9355638765691
0.459225727843861,15.9362295770234
0.490698100595936,15.9368281201882
0.518400659947822,15.9373961275961
0.542465908635693,15.9379586584061
0.562510266446382,15.9385393759165
0.577525319319229,15.9391707935336
0.584998752112897,15.9399104544965
0.580925030542416,15.9406671705046
0.56424401454468,15.9414632898459
0.533153869372129,15.9423193550287
0.489663186661553,15.9431737607108
0.430945645122217,15.9440802639304
0.378039780495936,15.94477317337
0.319152595350667,15.9454660828095
0.268362509335843,15.9460259259523
0.226254719772159,15.9464785376347
0.190006439921781,15.9468690848
0.157915159752779,15.9472227053357
0.129038408240147,15.9475536717505
0.102773612843114,15.9478716753909
0.078660457677292,15.9481848795145
0.0562525125883412,15.9485023688856
0.0349083365327002,15.9488390938682
0.0127627717144774,15.9492415708489
0.000668429929444814,15.9494951102781
-0.00696583496938732,15.9496722983106
-0.0139564719709085,15.9498494863431
-0.0200536446053457,15.9500185404279
-0.0262791168993348,15.9502086740695
-0.0324003440710942,15.9504176990094
-0.0382108481918591,15.9506427963039
-0.0435920718377435,15.9508827091661
-0.0484798609411059,15.9511372457434
-0.0528428609429827,15.9514069518823
-0.0566698196681828,15.9516929440333
-0.0599619305691528,15.9519968403021
-0.0627280069506141,15.9523207558846
-0.0650538628661624,15.9526825697654
-0.066747938735066,15.953052801141
-0.0679544495893469,15.9534526193143
-0.0686886531080018,15.9538872642284
-0.068961603715746,15.9543630891206
-0.0687793190301629,15.9548882658225
-0.0681392407252012,15.9554741991227
-0.0670244456873821,15.956136900488
-0.0653969446841088,15.9568990448742
-0.0631776349690771,15.9577976556927
-0.0601824937905934,15.9589067220508
-0.0561024800493976,15.960345352446
-0.05209947883551,15.9617328057759
-0.0482397592011864,15.9630793792181
-0.0445600586326294,15.9643880854468
-0.0410800511745206,15.9656600500202
-0.0378104015641473,15.9668954457087
-0.0347560581413397,15.9680939836812
-0.0319178202225842,15.9692551736105
-0.0292932471175353,15.9703784601943
-0.026877303646971,15.9714632916291
-0.0246628941382921,15.9725091486067
-0.022641339753268,15.9735155489165
-0.0208028152926787,15.9744820359041
-0.0191367472841943,15.9754081553929
-0.0175799974465132,15.9763250722987
-0.0160792685864534,15.9772654550038
-0.0146390359444068,15.9782308198984
-0.0132631421683728,15.9792232554957
-0.0119552351484126,15.9802452115434
-0.0107187113472096,15.9812995903353
-0.00955665955234822,15.9823898640482
-0.00847180089716921,15.9835202326082
-0.00746642446195904,15.9846958409689
-0.00654231697636481,15.9859230863043
-0.00570068379139927,15.9872100664024
-0.00494205581036675,15.9885672598349
-0.00426617226438151,15.9900086077552
-0.00367181898740457,15.9915533407716
-0.00316978800966547,15.9931808925282
-0.00276369350762029,15.9948546960337
-0.00243693909301566,15.9965930322598
-0.00217455963130817,15.9984169984621
-0.00196223213038377,16.0003547616298
-0.00178573365851815,16.002446202874
-0.00163004426528745,16.0047525988438
-0.00147747367731338,16.0073802255011
-0.00130207994295192,16.0105568487409
-0.00110197488565646,16.0140364534527
-0.000875741415399156,16.0176705221023
-0.000620886883343463,16.0214782677514
-0.000340067642070469,16.025479827991
-3.82214487060161e-05,16.02969629098
0.000279668623804513,16.0341501202378
0.000609991773789722,16.0388660863537
0.000916734329812198,16.0433575270501
0.00120541055839801,16.0476935507363
0.00149334249561118,16.0521187737999
0.00180626592882183,16.0570245443929
0.00211877981805102,16.0619911032815
0.00242918375557848,16.066957942456
0.00272042812435811,16.0716155637054
0.00297951678516563,16.0757328645189
0.00322741290730409,16.0796336564353
0.00347350948797967,16.0834533334071
0.00372345611680802,16.0872651729494
0.00398161132211806,16.0911186255235
0.00425193179704099,16.0950523863028
0.00453836671011029,16.0990994692152
0.00484516270552724,16.1032905228677
0.00517712235689002,16.1076558371773
0.00553988694123208,16.1122266684907
0.00594034801027144,16.1170364789308
0.00638729722209466,16.1221220698657
0.0068526693211353,16.1271080172261
0.00734567446244752,16.132060706069
0.00786702170346685,16.1369434929854
0.00842184085094448,16.1417584402188
0.00901571345714964,16.1465036374031
0.00965562827382386,16.1511816106024
0.0103495025783278,16.1557944072822
0.0111227001538265,16.1604379231187
0.011989824194507,16.1651078442126
0.0129723443612528,16.1698200124664
0.0140995856456545,16.1746031754455
0.0154180265678057,16.1795237050083
0.0170193464888318,16.1847519555522
0.0191881453601178,16.1909070488981
0.0209278946805518,16.195341957242
0.022765643837721,16.1997768655859
0.0243139963681995,16.2034984557492
0.0256037760835145,16.2067645270099
0.0266831804967985,16.2098274821267
0.0275423095644502,16.2127996697473
0.0281323175966109,16.2156354057208
0.0284536518884269,16.2184550767217
0.0284792219637179,16.2214096579343
0.0281104212973272,16.2248035484109
0.0273302553494006,16.2282532529384
0.0262052813490782,16.2317029574659
0.025106379064947,16.234474795623
0.0240305875061123,16.236921366267
0.0229568099014242,16.2392196524198
0.0218827738518009,16.241439170826
0.0208111974293222,16.2436156369824
0.0197457415353304,16.2457715431473
0.0186900955871221,16.2479227973125
0.0176477391148636,16.2500815620269
0.0166218832450506,16.2522576983819
0.0156154604955857,16.2544596010536
0.0146311298758442,16.2566947236527
0.0136712914556254,16.2589699213476
0.0127380914957631,16.2612917167263
0.0118334367514502,16.2636664840852
0.0109590045070679,16.2661006049242
0.0101162443465484,16.2686006253547
0.00930639353365398,16.2711733663332
0.0085298124376358,16.2738284387739
0.00776530668789065,16.2766591885309
0.00701672160288573,16.2796851181274
0.00628779057486018,16.2829299334699
0.00558246044389964,16.2864209566231
0.00490485005636445,16.2901898162834
0.004259185212254,16.2942733177922
0.00364968845312797,16.2987146993994
0.00308052257344168,16.3035656723959
0.0025553466515816,16.3088901283783
0.00207706396880976,16.3147706278682
0.00164776687373474,16.321317623124
0.00127867433100775,16.328464495624
0.000970885665541952,16.3361974736603
0.000717757726852177,16.3446428255453
0.000513086849296336,16.3539681228975
0.000382810790054402,16.3626469352387
0.000283625739275296,16.3720892828126
0.000209862937907015,16.3820892828126
0.000158400081723517,16.3920892828126
0.000122738884750458,16.4020892828126
9.83870631237097e-05,16.4120892828126
8.20460900373509e-05,16.4220892828126
7.13078611930059e-05,16.4320892828126
6.44683371666442e-05,16.4420892828126
6.03540414630586e-05,16.4520892828126
5.81669436122686e-05,16.4620892828126
5.736434640837e-05,16.4720892828126
5.75755951046004e-05,16.4820892828126
5.85474065642806e-05,16.4920892828126
6.01081022578228e-05,16.5020892828126
6.21435662033453e-05,16.5120892828126
6.45806227604927e-05,16.5220892828126
6.73754160152212e-05,16.5320892828126
7.05053409287796e-05,16.5420892828126
7.39635429098148e-05,16.5520892828126
7.77552682193583e-05,16.5620892828126
8.18955420381269e-05,16.5720892828126
8.64078072963401e-05,16.5820892828126
9.13232791723181e-05,16.5920892828126
9.66808605068936e-05,16.6020892828126
0.000102527529348586,16.6120892828126
0.000108919159850521,16.6220892828126
0.000115921779119533,16.6320892828126
0.000123613301143896,16.6420892828126
0.000132085819451527,16.6520892828126
0.000141448587559483,16.6620892828127
0.000151831876455219,16.6720892828127
0.000163391979284169,16.6820892828127
0.000176317746702949,16.6920892828127
0.000190839199587703,16.7020892828127
0.000207239006525187,16.7120892828127
0.000225867976093505,16.7220892828127
0.000247166271433436,16.7320892828127
0.000271692930455442,16.7420892828127
0.000300167683188906,16.7520892828127
0.000333531379679699,16.7620892828127
0.000373035278602651,16.7720892828127
0.000420376331729708,16.7820892828127
0.000476851257940359,16.7919195583948
0.00054074574924109,16.8010226354423
0.000612806448736008,16.809431575484
0.000694041445718599,16.8171986979794
0.000785624369026241,16.824373431536
0.000888891259638794,16.8310016986746
0.00100535530847653,16.8371261914985
0.00113672862366828,16.8427866461921
0.00128494998707732,16.8480200221431
0.00145221468931874,16.8528606313397
0.00164100751633698,16.8573403319623
0.00185414625439874,16.8614887592181
0.0020948315735266,16.8653335168628
0.00236669931445025,16.8689002758605
0.00267389225075569,16.8722129340134
0.00302114530505173,16.8752938320658
0.00341389691282462,16.8781639006921
0.00385842494387055,16.8808428091309
0.00436203464439563,16.8833491971491
0.00493331826443575,16.8857009023981
0.00558251357995826,16.8879152288483
0.00631422436617,16.8899891206252
0.00711935947226258,16.8918970273154
0.00800704506605158,16.8936699837259
0.00899079358978168,16.8953385309648
0.0100908653786527,16.8969339600144
0.0113411022820278,16.8984938950962
0.0128499104270506,16.9001183551888
0.014879890417222,16.9019980819334
0.0168275321537424,16.9035851465517
0.01895057194511,16.90517221117
0.0207413715242673,16.9064574252931
0.0223052303660072,16.9075850586321
0.0237111435270665,16.908645566912
0.0249704256021396,16.9096853514759
0.026070785223203,16.9107413459208
0.0269817239264827,16.9118572046604
0.0276434013294955,16.9131071706563
0.0279055738402913,16.9145178155171
0.0276727528617925,16.9159270671783
0.0269620304115973,16.9174136416279
0.0259487052769711,16.9188114696378
0.024743662942213,16.9201581551478
0.0233724604227386,16.9215219792508
0.0218484788377096,16.9229468226994
0.020180884290887,16.9244703278849
0.0189753797791506,16.925576115041
0.0178033230495256,16.926681902197
0.0164536804377108,16.9280299394347
0.0142737494003252,16.9304242486354
0.0119551241316918,16.9333728300865
0.0101251290625716,16.9361285211827
0.00869265816191009,16.9386783362916
0.00751157209230835,16.9411629286803
0.00650112523357319,16.9436949010803
0.0056405181661661,16.9463013629965
0.0049168849913894,16.9490052572396
0.00432259031044402,16.9518300798411
0.00385521592625018,16.9548014075761
0.00351881484740078,16.9579483135678
0.00332702330493127,16.9613050105345
0.00330335049624352,16.9645936277858
0.0034280120987602,16.9675501447731
0.00367432272039303,16.97023025586
0.00402844858319234,16.9726820117965
0.00448625298620956,16.9749536248959
0.00505363102868994,16.9770979352502
0.00574768310940332,16.9791707034028
0.00660606410773628,16.9812464110988
0.00770810103843249,16.9834387135816
0.00923691324621783,16.9859581400392
0.0112134897861679,16.9886791784569
0.0128439703308581,16.990619013349
0.0146906496062151,16.9925588482411
0.0165449375379076,16.9942712059429
0.0184504513805496,16.9958169785876
0.0204842978138605,16.9972612674839
0.0227010664705985,16.9986325250685
0.0251465893998742,16.9999442316227
0.0278680396070211,17.001205281491
0.0309049683994083,17.0024178185547
0.034307794322782,17.0035865608497
0.0381268687986521,17.0047138711906
0.0424150250191069,17.00580134369
0.0472392051938154,17.0068525006233
0.0526717753629645,17.0078698571017
0.0587995731326557,17.0088565756232
0.0657238147248423,17.0098157765743
0.0735643089847899,17.0107506925875
0.0824657864658559,17.0116648625162
0.0926031584109868,17.0125620006314
0.104191473723691,17.0134461813002
0.117498300737761,17.0143219261459
0.132861663424456,17.0151943742966
0.150717416330182,17.0160695884286
0.171642499123479,17.0169550527226
0.196435220441484,17.0178608048924
0.225310594283793,17.0187733975158
0.25875624664522,17.019692692593
0.297681634132852,17.0206304299287
0.343485130924223,17.0216088931771
0.382332432061408,17.0223693427489
0.423119409511215,17.0231297923206
0.45922033941186,17.0237955093566
0.490693303859227,17.0243940601829
0.518396382732567,17.0249620707425
0.542462171436306,17.0255246012187
0.562507165259352,17.0261053144427
0.577523076498928,17.0267367212906
0.584998027330269,17.0274763820563
0.580925929144954,17.02823309463
0.564246735566702,17.0290292074449
0.533158721848414,17.0298852633419
0.489669950838865,17.0307396656821
0.430954568513242,17.0316461629986
0.378047650864749,17.0323391009105
0.319158745492588,17.0330320388224
0.268367384942818,17.0335918990714
0.226258826214959,17.0340445197838
0.190010039406251,17.034435072089
0.157918382621384,17.0347886957827
0.129041330767729,17.035119664132
0.102776288367705,17.0354376687817
0.0786629317918804,17.0357508730286
0.0562548377382672,17.0360683613587
0.0349106104624407,17.036405082912
0.0127654306143843,17.0368075455212
0.000668906275573793,17.0370611270808
-0.00696542166813682,17.0372383157337
-0.013956116033065,17.0374155043865
-0.0200533335563514,17.0375845589292
-0.0262788041183381,17.0377746915629
-0.0324000419189764,17.037983715654
-0.0382105649098143,17.0382088122054
-0.0435918120521663,17.038448724362
-0.0484796270898539,17.0387032602252
-0.0528426541321606,17.0389729656079
-0.0566696401793585,17.0392589569334
-0.0599617781712038,17.0395628522815
-0.062727881101279,17.0398867668215
-0.0650537488428637,17.040248576599
-0.0667478537884913,17.0406188063394
-0.0679543930014242,17.0410186226413
-0.068688624120897,17.0414532653457
-0.0689616017978975,17.0419290875959
-0.0687793440132913,17.0424542610917
-0.0681392931470003,17.0430401903387
-0.0670245270604551,17.043702886534
-0.0653970582097427,17.0444650240374
-0.063177787489581,17.045363624968
-0.0601827031466112,17.0464726745221
-0.0561026862144474,17.0479113082537
-0.0520996780084595,17.0492987637178
-0.0482399487987336,17.0506453390576
-0.0445602373283263,17.05195404708
-0.0410802182554887,17.0532260134123
-0.037810556681956,17.0544614108595
-0.0347562012004602,17.0556599506072
-0.0319179513201716,17.0568211423351
-0.0292933665035429,17.0579444307426
-0.0268774116926071,17.0590292640256
-0.0246629913088535,17.0600751228746
-0.0226414265833937,17.0610815250773
-0.0208028923640293,17.0620480139789
-0.0191368152054645,17.0629741354035
-0.0175800616802915,17.0638910512173
-0.0160793289074535,17.0648314327779
-0.0146390921861287,17.0657967964359
-0.0132631941758513,17.066789230689
-0.0119552827808999,17.0678111852659
-0.0107187544806107,17.068865562436
-0.00955669808180327,17.0699558343458
-0.00847183473983861,17.0710862008821
-0.00746645356005003,17.072261806947
-0.00654234130052049,17.0734890496455
-0.00570070334464921,17.074776026671
-0.00494207063300366,17.0761332164597
-0.00426618244045958,17.0775745599649
-0.00367182465429228,17.0791192874799
-0.0031697880866446,17.080746837465
-0.00276368893755806,17.0824206383281
-0.00243693069176751,17.0841589710341
-0.00217454817113446,17.0859829325716
-0.00196221836240218,17.087920689509
-0.0017857183471716,17.0900121222298
-0.00163002824940335,17.0923185059836
-0.00147745801329006,17.094946113534
-0.00130206641122856,17.0981227007173
-0.00110196188044996,17.1016023120131
-0.000875729095764071,17.1052363881499
-0.000620875061137171,17.1090441421806
-0.00034005600004521,17.113045711731
-3.82096815033633e-05,17.1172621850086
0.000279680746056205,17.1217160256097
0.000610004403663172,17.1264320042813
0.000916745747600401,17.1309234312346
0.00120542160486074,17.135259452667
0.00149335420560874,17.1396846891229
0.00180628036118937,17.1445905060901
0.00211879371607715,17.1495570589218
0.0024291980676709,17.1545239062158
0.00272043919034888,17.1591814752621
0.00297952667466878,17.1632987568943
0.00322742237903065,17.1671995412179
0.00347351892373796,17.1710192160698
0.00372346577552717,17.1748310568851
0.0039816214174598,17.1786845132355
0.00425194252909263,17.1826182798575
0.0045383782822412,17.1866653704527
0.00484517533995055,17.1908564335682
0.00517713630701537,17.1952217591443
0.00553990250862787,17.1997926036283
0.00594036557068536,17.2046024293151
0.0063873172673025,17.2096880378002
0.00685268979608645,17.2146739777962
0.00734569612295902,17.2196266658387
0.00786704448567398,17.224509449392
0.00842186502772822,17.2293243936816
0.009015739294381,17.2340695878942
0.00965565610387666,17.2387475583015
0.0103495327718634,17.2433603523247
0.0111227339234328,17.2480038697809
0.0119898622004477,17.2526737922222
0.0129723876429538,17.2573859627325
0.0140996356820901,17.262169129694
0.0154180858919647,17.2670896673554
0.0170194208220989,17.2723179375049
0.0191882588485048,17.2784731049129
0.0209279867695184,17.2829079389876
0.0227657077991043,17.2873427730623
0.024314047112028,17.2910643347641
0.0256038186185624,17.2943303947695
0.0266832156501683,17.2973933455839
0.0275423349459267,17.3003655260244
0.0281323336150078,17.3032012591906
0.0284536582020195,17.3060209319567
0.0284792168404322,17.3089755215837
0.0281103983036835,17.3123694386043
0.0273302300410987,17.3158190979162
0.0262052646922703,17.3192687572282
0.0251063645878175,17.3220405845402
0.0240305732740359,17.3244871521172
0.0229567956702841,17.3267854368814
0.0218827596317575,17.3290049545358
0.0208111832654094,17.3311814203027
0.0197457274767039,17.3333373263227
0.0186900816808975,17.3354885805247
0.0176477254049762,17.3376473454196
0.0166218697713922,17.3398234820755
0.0156154472946818,17.342025385153
0.0146311169804205,17.3442605082539
0.0136712788949345,17.346535706541
0.0127380792958818,17.3488575025999
0.0118334249349805,17.3512322707273
0.0109589930938867,17.3536663924247
0.0101162333533374,17.3561664138081
0.00930638297447062,17.3587391558393
0.00852980201981237,17.3613942305234
0.0077652964615155,17.3642249827691
0.00701671161654388,17.367250915152
0.00628778088030136,17.3704957336227
0.00558245109517045,17.3739867603003
0.00490484110957733,17.377755623944
0.0042591767245048,17.3818391299709
0.0036496804805009,17.3862805167277
0.00308051517789977,17.3911314956398
0.00255533987495694,17.3964559585025
0.00207705784261702,17.4023364661426
0.00164776141962427,17.4088834712548
0.00127866975027255,17.416030351018
0.000970881866131053,17.4237633377743
0.00071775462058633,17.4322087003526
0.000513084355424619,17.4415340109993
0.000382813060901862,17.4502125278482
0.000283625668895854,17.459655060638
0.000209862908085237,17.469655060638
0.000158400079088523,17.479655060638
0.000122738909713709,17.489655060638
9.83871133355259e-05,17.499655060638
8.20461598644322e-05,17.509655060638
7.13079447181381e-05,17.519655060638
6.44684299452285e-05,17.529655060638
6.0354140721616e-05,17.539655060638
5.81670477837295e-05,17.549655060638
5.73644546454882e-05,17.559655060638
5.75757069757305e-05,17.569655060638
5.85475219045458e-05,17.579655060638
6.0108221100998e-05,17.589655060638
6.21436887446411e-05,17.599655060638
6.45807493305148e-05,17.609655060638
6.73755470610201e-05,17.619655060638
7.05054770021294e-05,17.629655060638
7.3963684662624e-05,17.639655060638
7.77554164053976e-05,17.649655060638
8.18956975201656e-05,17.659655060638
8.6407971058148e-05,17.669655060638
9.13234523354841e-05,17.679655060638
9.66810443528676e-05,17.689655060638
0.000102527725346765,17.699655060638
0.000108919369693619,17.709655060638
0.000115922004767986,17.719655060638
0.0001236135448817,17.729655060638
0.000132086083956779,17.7396550606381
0.000141448875994104,17.7496550606381
0.000151832192580012,17.7596550606381
0.00016339232760777,17.7696550606381
0.000176318132676695,17.7796550606381
0.000190839629863539,17.7896550606381
0.000207239489301406,17.7996550606381
0.000225868521584752,17.8096550606381
0.000247166892519567,17.8196550606381
0.000271693643592643,17.8296550606381
0.000300168509713427,17.8396550606381
0.000333532347712945,17.8496550606381
0.000373036425901207,17.8596550606381
0.000420377710063467,17.8696550606381
0.000476852813255936,17.8794853167779
0.000540747498223012,17.8885883751061
0.000612808414935951,17.8969972978354
0.000694043656936023,17.9047644043527
0.000785626857096583,17.9119391231694
0.00088889406069091,17.9185673767172
0.00100535846349002,17.9246918570191
0.00113673217912249,17.930352300185
0.0012849539957861,17.9355856655312
0.00145221921110173,17.9404262649792
0.00164101261922742,17.9449059566486
0.00185415201560917,17.949054375692
0.00209483808103265,17.9528991258136
0.00236670666835701,17.9564658779289
0.00267390056539217,17.9597785297972
0.00302115471168597,17.9628594221249
0.0034139075624919,17.9657294855515
0.00385843701169494,17.9684083892855
0.00436204833538255,17.9709147730709
0.00493333382099686,17.973266474541
0.005582531293417,17.9754807976575
0.00631424385744462,17.9775546847379
0.00711938093561554,17.9794625875518
0.00800706879257882,17.9812355408919
0.00899081999787906,17.9829040858421
0.0100908951226256,17.9844995134583
0.0113411365269951,17.9860594482483
0.0128499536642178,17.9876839119055
0.0148799545022094,17.989563650454
0.0168275809256173,17.9911506977611
0.018950600221939,17.9927377450683
0.0207413938066547,17.9940229546207
0.0223052500605921,17.9951505865129
0.0237111611597983,17.9962110942379
0.0249704411355192,17.997250878778
0.0260707983674016,17.9983068737194
0.0269817341066329,17.9994227336838
0.0276434073649276,18.0006727023814
0.0279055730204603,18.002083349688
0.0276727452818652,18.003492600322
0.0269620203323252,18.0049791692533
0.0259486936778542,18.0063769954165
0.0247436497677899,18.007723680706
0.0233724457336204,18.0090875051865
0.0218484627248901,18.0105123493767
0.0201808668062365,18.0120358556659
0.0189753756020159,18.0131416306575
0.0178033315177227,18.0142474056492
0.016453690719055,18.0155954403129
0.0142737689376574,18.017989736918
0.0119551578199692,18.0209382939986
0.0101251565374239,18.0236939859807
0.00869267957816126,18.0262438037976
0.00751158988278511,18.0287283956138
0.00650113983509218,18.0312603668669
0.0056405297984635,18.0338668272101
0.00491689374365732,18.0365707194608
0.00432259614110034,18.0393955396249
0.003855218631668,18.042366864427
0.00351881398837806,18.0455137669122
0.00332701805787778,18.0488704596873
0.00330334028754243,18.0521590924142
0.00342799787891884,18.0551156219994
0.00367430494635269,18.0577957437314
0.00402842739688877,18.0602475084564
0.00448622817395421,18.0625191281185
0.00505360200843,18.064663442769
0.00574764868618067,18.0667362124251
0.00660602185751158,18.0688119175826
0.00770804557546448,18.0710042103648
0.00923683103270053,18.0735236121501
0.0112133897926545,18.0762446464058
0.0128438746398694,18.0781844993091
0.0146905602571421,18.0801243522124
0.0165448499919765,18.081836720997
0.0184503606969919,18.0833824996371
0.0204842009908205,18.0848267924501
0.0227009611626725,18.0861980529678
0.0251464734719932,18.0875097619304
0.0278679113072347,18.0887708140637
0.0309048254180286,18.0899833530956
0.0343076348119658,18.0911520973506
0.0381266901248108,18.0922794094481
0.0424148248040122,18.0933668836563
0.0472389804772802,18.0944180421812
0.0526715225811018,18.0954354001003
0.0587992883744115,18.0964221199513
0.0657234932296114,18.0973813220909
0.0735639451721663,18.0983162391557
0.0824653735877506,18.0992304099869
0.0926026882249216,18.1001275488416
0.104190936158196,18.1010117300786
0.117497683194637,18.1018874752994
0.132860949915373,18.1027599236039
0.150716586183636,18.1036351376294
0.171641524712392,18.1045206014885
0.196434062687556,18.10542635276
0.225309256634986,18.1063389454345
0.258754696502464,18.1072582402052
0.297679826209431,18.1081959766276
0.343482987979283,18.1091744376487
0.382330594580275,18.1099348959157
0.423117970902656,18.1106953541827
0.459219104808826,18.111361075019
0.49069220495208,18.1119596276005
0.518395402971535,18.1125276388815
0.542461315518745,18.1130901692801
0.562506455191741,18.1136708815205
0.577522563252414,18.1143022858989
0.584997862123884,18.1150419466185
0.580926136115769,18.115798658404
0.56424736032823,18.1165947697222
0.533159835226019,18.1174508234901
0.489671502582022,18.1183052250617
0.430956615365147,18.1192117210233
0.378049456120417,18.1199046654651
0.319160156134789,18.1205976099068
0.268368503222396,18.1211574740788
0.226259768059105,18.1216100968619
0.190010864960998,18.1220006503457
0.157919121785224,18.1223542747635
0.129042001036917,18.1226852435563
0.102776901976835,18.1230032484373
0.0786634991980859,18.1233164527124
0.0562553709686853,18.1236339408037
0.0349111319283886,18.1239706615707
0.0127660403117735,18.1243731208849
0.00066901538462121,18.1246267121076
-0.0069653269950836,18.1248039009024
-0.0139560344952557,18.1249810896971
-0.0200532622985536,18.1251501443445
-0.026278732466171,18.1253402767474
-0.0323999727029851,18.125549300644
-0.0382105000172691,18.125774397025
-0.0435917525423587,18.1260143090199
-0.0484795735209576,18.1262688447195
-0.0528426067573347,18.126538549929
-0.0566695990629887,18.1268245410653
-0.0599617432602699,18.1271284362023
-0.0627278522714687,18.1274523505035
-0.0650537226972872,18.1278141593364
-0.0667478343098233,18.1281843887017
-0.0679543800252304,18.1285842045745
-0.0686886174734076,18.1290188467721
-0.0689616013572326,18.1294946684165
-0.068779349740874,18.1300198411772
-0.0681393051661247,18.1306057694949
-0.0670245457179281,18.1312684645049
-0.0653970842395043,18.1320306004302
-0.0631778224602004,18.132929199094
-0.0601827511476474,18.1340382447962
-0.0561027334859234,18.1354768792928
-0.0520997236789419,18.1368643352464
-0.0482399922759756,18.1382109110214
-0.0445602783082136,18.1395196194552
-0.0410802565745412,18.140791586191
-0.0378105922602313,18.1420269840416
-0.0347562340159728,18.1432255241966
-0.0319179813950991,18.1443867163371
-0.0292933938950887,18.145510005163
-0.0268774364857625,18.14659483887
-0.0246630136101845,18.1476406981483
-0.0226414465153634,18.1486471007853
-0.0208029100598865,18.1496135901261
-0.0191368308046542,18.1505397119948
-0.017580076435961,18.151456627558
-0.0160793427678834,18.1523970088561
-0.0146391051130749,18.1533623722303
-0.0132632061337079,18.1543548061751
-0.0119552937373151,18.1553767604145
-0.0107187644070469,18.1564311372126
-0.00955670695413111,18.1575214087086
-0.00847184253897012,18.1586517747806
-0.00746646027263956,18.1598273803189
-0.00654234691974083,18.1610546224124
-0.00570070787109761,18.1623415987329
-0.00494207407581899,18.1636987876857
-0.00426618481881753,18.1651401301779
-0.00367182599959332,18.1666848564308
-0.00316978815078162,18.1683124060095
-0.00276368793665582,18.1699862062663
-0.00243692881282311,18.1717245381647
-0.00217454559115113,18.173548498632
-0.00196221525353552,18.17548625414
-0.00178571488463259,18.1775776849053
-0.00163002462545848,18.1798840658565
-0.00147745447009767,18.1825116690234
-0.00130206335699631,18.1856882479345
-0.00110195894832406,18.1891678607107
-0.000875726322560794,18.1928019385311
-0.000620872404038846,18.1966096944465
-0.000340053386497092,18.2006112660907
-3.82070415395142e-05,18.2048277416818
0.000279683465159962,18.2092815848335
0.00061000723686497,18.2139975663284
0.000916748308173703,18.218488990187
0.0012054240821483,18.2228250111121
0.0014933568325664,18.2272502505839
0.0018062836013326,18.2321560779941
0.0021187968359337,18.2371226294623
0.00242920128069124,18.2420894785851
0.0027204416722851,18.2467470358772
0.0029795288914908,18.2508643131905
0.00322742450154394,18.2547650958047
0.00347352103787827,18.2585847701795
0.00372346793955652,18.2623966112817
0.00398162367944017,18.2662500684829
0.00425194493402058,18.2701838364208
0.00453838087584114,18.2742309287464
0.0048451781721754,18.2784219939932
0.00517713943482426,18.2827873221067
0.00553990599979971,18.2873581695571
0.00594036950967106,18.2921679986778
0.00638732176463646,18.2972536111155
0.00685269438908804,18.3022395494563
0.0073457009815925,18.3071922373209
0.0078670495954006,18.3120750201195
0.00842187044978872,18.3168899637488
0.00901574508842247,18.3216351572947
0.00965566234448998,18.3263131270759
0.0103495395422263,18.3309259205035
0.0111227414954764,18.3355694383229
0.0119898707222687,18.3402393610665
0.0129723973476537,18.3449515320829
0.0140996469013213,18.3497346999376
0.0154180991937152,18.3546552394151
0.01701943748929,18.359883513961
0.0191882842955638,18.3660386979764
0.0209280074183729,18.3704735153984
0.0227657221411614,18.3749083328205
0.0243140584903215,18.3786298881405
0.0256038281561699,18.3818959456221
0.0266832235325496,18.3849588954717
0.0275423406371284,18.3879310743023
0.0281323372066973,18.390766806839
0.0284536596175685,18.3935864800009
0.0284792156914449,18.3965410715148
0.028110393147515,18.3999349944876
0.0273302243658716,18.403384643661
0.0262052609568909,18.4068342928344
0.0251063613411839,18.4096061177145
0.0240305700823542,18.4120526846038
0.0229567924788141,18.4143509690567
0.0218827564427772,18.4165704865425
0.0208111800890172,18.418746952222
0.0197457243239212,18.4209028582095
0.0186900785622884,18.4230541124199
0.0176477223303915,18.4252128773552
0.0166218667497758,18.4273890140786
0.0156154443342236,18.4295909172472
0.0146311140884569,18.4318260404607
0.0136712760780228,18.4341012388806
0.0127380765598681,18.436423035092
0.0118334222849305,18.438797803392
0.0109589905342548,18.4412319252819
0.0101162308878619,18.4437319468791
0.00930638060630057,18.4463046891466
0.00852979968334504,18.4489597643338
0.00776529416798323,18.4517905171376
0.00701670937684258,18.4548164501455
0.006287778706036,18.4580612693178
0.00558244899846237,18.4615522967858
0.00490483910301037,18.4653211613229
0.00425917482088323,18.4694046683631
0.00364967869240247,18.4738460562748
0.0030805135192442,18.4786970365136
0.00255533835511927,18.4840215009194
0.00207705646865932,18.4899020103873
0.00164776019639731,18.49644901771
0.00127866872291026,18.5035958991022
0.000970881013986228,18.5113288878141
0.000717753923881504,18.5197742527907
0.000513083796049135,18.529099566419
0.000382813574865515,18.5377780166579
0.000283625654736753,18.5472205911795
0.000209862902611653,18.5572205911796
0.00015840007942221,18.5672205911796
0.000122738916042246,18.5772205911796
9.83871251970897e-05,18.5872205911796
8.20461760374223e-05,18.5972205911796
7.13079639025104e-05,18.6072205911796
6.44684511625371e-05,18.6172205911796
6.03541633629325e-05,18.6272205911796
5.81670715071803e-05,18.6372205911796
5.73644792681409e-05,18.6472205911796
5.75757324060691e-05,18.6572205911796
5.85475481096315e-05,18.6672205911796
6.01082480916032e-05,18.6772205911796
6.21437165672024e-05,18.6872205911796
6.45807780615055e-05,18.6972205911796
6.73755768028512e-05,18.7072205911796
7.05055078806323e-05,18.7172205911796
7.39637168261062e-05,18.7272205911796
7.77554500251019e-05,18.7372205911796
8.18957327919336e-05,18.7472205911796
8.64080082051718e-05,18.7572205911796
9.13234916121404e-05,18.7672205911796
9.66810860497288e-05,18.7772205911796
0.000102527769796975,18.7872205911796
0.000108919417280918,18.7972205911796
0.000115922055936779,18.8072205911796
0.000123613600149714,18.8172205911796
0.000132086143931058,18.8272205911796
0.00014144894139134,18.8372205911796
0.000151832264252629,18.8472205911796
0.000163392406577683,18.8572205911796
0.000176318220179471,18.8672205911796
0.000190839727406861,18.8772205911796
0.000207239598743428,18.8872205911796
0.00022586864524063,18.8972205911796
0.000247167033308519,18.9072205911796
0.000271693805244457,18.9172205911796
0.000300168697063958,18.9272205911796
0.000333532567135905,18.9372205911796
0.000373036685954137,18.9472205911796
0.000420378022480057,18.9572205911796
0.000476853165784226,18.9670508429127
0.000540747894644405,18.9761538969981
0.000612808860588328,18.9845628158035
0.000694044158120092,18.9923299186993
0.00078562742102787,18.999504634175
0.000888894695558087,19.0061328846425
0.00100535917858136,19.0122573621061
0.00113673298497278,19.0179178026592
0.001284954904366,19.0231511656017
0.00145222023597002,19.0279917628401
0.00164101377580462,19.0324714524803
0.0018541533213964,19.0366198696623
0.00209483955597095,19.0404646180786
0.00236670833513651,19.0440313686341
0.0026739024499276,19.0473440190779
0.00302115684373159,19.0504249101081
0.00341390997628254,19.0532949723561
0.0038584397469252,19.0559738750238
0.00436205143852125,19.0584802578498
0.00493333734699148,19.0608319584634
0.00558253530830128,19.0630462808243
0.00631424827529194,19.0651201668402
0.00711938580046064,19.0670280687755
0.00800707417040492,19.0688010214197
0.00899082598352678,19.0704695658511
0.0100909018644106,19.0720649931425
0.0113411442890243,19.0736249278664
0.0128499634645424,19.0752493923317
0.0148799690282966,19.0771291335559
0.0168275919808405,19.0787161769394
0.0189506066317181,19.0803032203228
0.0207413988574771,19.0815884288391
0.0223052545246694,19.0827160604034
0.0237111651563655,19.0837765680026
0.0249704446560726,19.0848163525373
0.0260708013462331,19.0858723475913
0.0269817364134101,19.0869882078333
0.0276434087319758,19.0882381771435
0.0279055728332758,19.0896488250065
0.027672743561687,19.0910580754068
0.0269620180481026,19.0925446430823
0.025948691050257,19.0939424688263
0.0247436467836802,19.0952891540658
0.0233724424066207,19.0966529786316
0.0218484590755895,19.0980778229898
0.0201808628463739,19.0996013295288
0.0189753746550154,19.1007071017664
0.0178033334336533,19.101812874004
0.016453693045416,19.103160908085
0.0142737733684967,19.1055552018277
0.0119551654681174,19.1085037533699
0.0101251627751888,19.1112594455525
0.0086926844402367,19.1138092639843
0.0075115939215134,19.1162938556704
0.00650114314963958,19.1188258266631
0.0056405324387009,19.1214322866492
0.00491689572980403,19.1241361784475
0.0043225974636706,19.1269609980582
0.00385521924436325,19.1299323221944
0.00351881379137886,19.1330792238834
0.00332701686403388,19.1364359157068
0.00330333796648362,19.1397245519504
0.00342799464656815,19.1426810843984
0.0036743009065116,19.1453612085495
0.00402842258177179,19.1478129752718
0.00448622253499027,19.1500845964252
0.00505359541335893,19.1522289120521
0.00574764086343889,19.15430168205
0.00660601225625367,19.1563773866307
0.0077080329718088,19.1585696772085
0.00923681235004859,19.1610890733868
0.0112133670696136,19.1638101066965
0.0128438528946421,19.1657499636928
0.0146905399532149,19.167689820689
0.016544830097937,19.1694021919921
0.0184503400901828,19.1709479719947
0.0204841789890341,19.1723922656977
0.0227009372329628,19.1737635268819
0.0251464471291903,19.1750752363918
0.027867882153249,19.1763362890398
0.0309047929280124,19.177548828519
0.0343075985660481,19.1787175732193
0.0381266495245374,19.179844885716
0.0424147793090057,19.1809323603125
0.0472389294149164,19.1819835191991
0.052671465141579,19.1830008774455
0.0587992236690259,19.1839875975986
0.0657234201766282,19.1849468000083
0.0735638625036132,19.1858817173121
0.0824652797703047,19.1867958883484
0.0926025813857102,19.1876930273712
0.104190814008741,19.1885772087372
0.117497542872373,19.1894529540433
0.13286078778747,19.1903254023828
0.15071639755312,19.1912006163842
0.171641303301917,19.1920860801444
0.196433799617989,19.1929918312119
0.225308952689271,19.193904423898
0.258754344273441,19.1948237185991
0.297679415407238,19.1957614548141
0.343482501053743,19.1967399153291
0.382330177061629,19.1975003755719
0.423117644015199,19.1982608358147
0.459218824273906,19.1989265575145
0.490691955248297,19.1995251104949
0.518395180338401,19.2000931219398
0.542461121023481,19.2006556523208
0.562506293834423,19.2012363643377
0.57752244661418,19.2018677681551
0.584997824563956,19.2026074288642
0.580926183118549,19.2033641404707
0.564247502257903,19.2041602514488
0.533160088175229,19.205016304733
0.489671855130072,19.20587070613
0.430957080405953,19.2067772017838
0.378049866272325,19.2074701477092
0.319160476631213,19.2081630936345
0.268368757294356,19.2087229586979
0.226259982045279,19.2091755819514
0.19001105252643,19.209566135703
0.157919289722784,19.2099197602853
0.129042153321803,19.2102507291789
0.102777041388851,19.2105687341124
0.0786636281130014,19.2108819383939
0.0562554921189987,19.211199426431
0.0349112504061069,19.2115361470193
0.0127661788356909,19.211938605585
0.000669040164338197,19.2121921990033
-0.00696530549403951,19.2123693878303
-0.0139560159774428,19.2125465766573
-0.02005324611554,19.2127156313285
-0.0262787161934831,19.2129057636789
-0.0323999569835419,19.2131147875313
-0.0382104852796733,19.2133398838737
-0.0435917390272679,19.2135797958319
-0.0484795613550796,19.2138343314943
-0.0528425959982224,19.2141040366644
-0.0566695897252618,19.2143900277577
-0.0599617353318539,19.2146939228469
-0.0627278457241655,19.2150178370938
-0.0650537167604919,19.2153796457124
-0.0667478298869102,19.2157498749925
-0.0679543770788634,19.2161496907678
-0.068688615964122,19.2165843328504
-0.0689616012573539,19.2170601543573
-0.0687793510416441,19.217585326951
-0.0681393078955388,19.2181712550576
-0.0670245499547416,19.2188339497985
-0.0653970901503743,19.2195960853655
-0.0631778304013199,19.2204946835145
-0.0601827620476753,19.221603728342
-0.0561027442201949,19.2230423630123
-0.0520997340495777,19.224429819077
-0.0482400021484868,19.2257763949509
-0.0445602876135412,19.2270851034781
-0.0410802652755587,19.2283570703055
-0.037810600338786,19.2295924682478
-0.0347562414670801,19.2307910084952
-0.0319179882237956,19.2319522007294
-0.0292934001143673,19.2330754896503
-0.0268774421149293,19.2341603234536
-0.0246630186734429,19.2352061828294
-0.0226414510405277,19.236212585565
-0.020802914077222,19.2371790750054
-0.019136834345829,19.238105196975
-0.0175800797855081,19.2390221124813
-0.0160793459140616,19.2399624937198
-0.0146391080472043,19.2409278570296
-0.013263208847706,19.2419202909043
-0.0119552962238416,19.2429422450671
-0.0107187666596219,19.2439966217807
-0.00955670896727924,19.2450868931828
-0.00847184430836329,19.2462172591494
-0.00746646179524998,19.2473928645681
-0.0065423481940219,19.2486201065243
-0.00570070889718871,19.2499070826847
-0.00494207485580077,19.2512642714477
-0.00426618535704827,19.2527056137099
-0.00367182630320749,19.2542503396762
-0.00316978816345189,19.2558778891626
-0.00276368770746152,19.2575516892818
-0.00243692838423009,19.2592900209968
-0.00217454500335549,19.2611139812212
-0.00196221454563272,19.2630517364046
-0.00178571409641213,19.2651431667259
-0.00163002380058261,19.2674495470407
-0.00147745366355755,19.2700771492123
-0.00130206266148748,19.2732537262452
-0.00110195828048889,19.2767333393588
-0.000875725690745528,19.2803674175629
-0.000620871798507516,19.2841751739078
-0.000340052790767053,19.2881767460291
-3.82064397209158e-05,19.2923932221474
0.000279684085038241,19.2968470658804
0.000610007882741737,19.3015630480187
0.000916748891923982,19.3060544711723
0.00120542464690565,19.3103904919818
0.00149335743140441,19.3148157321407
0.00180628433985147,19.31972156193
0.00211879754704153,19.3246881130876
0.00242920201301934,19.329654962627
0.00272044223806174,19.3343125172413
0.00297952939687217,19.3384297935707
0.00322742498544362,19.3423305757954
0.00347352151987522,19.3461502500616
0.00372346843292526,19.3499620912292
0.00398162419513163,19.353815548624
0.00425194548228762,19.3577493168618
0.00453838146710263,19.3617964095815
0.00484517881781413,19.365987475314
0.00517714014781953,19.3703528040055
0.00553990679559665,19.3749236521316
0.00594037040751365,19.3797334820346
0.00638732278971244,19.3848190953727
0.00685269543598981,19.3898050333364
0.00734570208904613,19.3947577211604
0.00786705076009991,19.3996405037869
0.00842187168569143,19.4044554472657
0.00901574640912448,19.4092006406597
0.0096556637669922,19.4138786102981
0.0103495410854861,19.41849140359
0.0111227432214776,19.4231349214922
0.0119898726647673,19.4278048443047
0.0129723995597828,19.4325170154365
0.0140996494586785,19.4373001834947
0.0154181022257681,19.4422207233862
0.0170194412884709,19.4474489989342
0.0191882900960688,19.4536041867352
0.0209280121251666,19.4580390003614
0.0227657254103719,19.4624738139876
0.0243140610839602,19.4661953678529
0.0256038303302331,19.4694614247593
0.0266832253293115,19.472524374389
0.0275423419344195,19.4754965528525
0.0281323380254127,19.4783322852457
0.0284536599402408,19.4811519584979
0.0284792154295401,19.4841065504419
0.0281103919721857,19.4875004747715
0.0273302230722224,19.4909501216339
0.0262052601054162,19.4943997684962
0.025106360601116,19.497171592822
0.0240305693548111,19.4996181595545
0.0229567917513196,19.5019164439364
0.0218827557158494,19.5041359613838
0.0208111793649584,19.5063124270434
0.0197457236052449,19.5084683330236
0.0186900778514019,19.5106195872358
0.0176477216295411,19.5127783521803
0.0166218660610005,19.5149544889191
0.0156154436593897,19.5171563921085
0.0146311134292361,19.5193915153476
0.0136712754359109,19.5216667137979
0.0127380759361974,19.523988510044
0.0118334216808555,19.5263632783833
0.0109589899507918,19.5287974003171
0.0101162303258629,19.531297421963
0.0093063800664829,19.5338701642843
0.0085297991507535,19.5365252395862
0.00776529364517873,19.5393559925173
0.00701670886630881,19.5423819256676
0.00628777821041852,19.5456267449998
0.00558244852052374,19.549117772648
0.00490483864561926,19.5528866373888
0.00425917438695851,19.5569701446599
0.00364967828481105,19.5614115328349
0.0030805131411585,19.5662625133762
0.00255533800867622,19.5715869781337
0.002077056155469,19.5774674880183
0.00164775991756582,19.5840144958449
0.00127866848872596,19.5911613776084
0.000970880819742753,19.5988943667661
0.000717753765070649,19.6073397322894
0.000513083668542708,19.6166650465973
0.000382813691875888,19.6253434816632
0.000283625651457868,19.6347860656916
0.000209862901325903,19.6447860656916
0.000158400079469565,19.6547860656916
0.000122738917462389,19.6647860656916
9.83871278826614e-05,19.6747860656916
8.20461797086275e-05,19.6847860656916
7.13079682621456e-05,19.6947860656916
6.44684559869822e-05,19.7047860656916
6.0354168512966e-05,19.7147860656916
5.81670769045695e-05,19.7247860656916
5.73644848709642e-05,19.7347860656916
5.75757381933019e-05,19.7447860656916
5.85475540736425e-05,19.7547860656916
6.01082542347524e-05,19.7647860656916
6.21437228999974e-05,19.7747860656916
6.45807846013122e-05,19.7847860656916
6.73755835729548e-05,19.7947860656916
7.05055149096597e-05,19.8047860656916
7.39637241478086e-05,19.8147860656916
7.77554576784571e-05,19.8247860656916
8.18957408215233e-05,19.8347860656916
8.64080166618076e-05,19.8447860656916
9.13235005537361e-05,19.8547860656916
9.6681095542441e-05,19.8647860656916
0.000102527779916654,19.8747860656916
0.000108919428114935,19.8847860656916
0.000115922067586319,19.8947860656916
0.000123613612732659,19.9047860656916
0.000132086157585623,19.9147860656916
0.000141448956280711,19.9247860656916
0.000151832280570894,19.9347860656916
0.000163392424557523,19.9447860656916
0.000176318240102218,19.9547860656916
0.000190839749615801,19.9647860656916
0.00020723962366165,19.9747860656916
0.000225868673395278,19.9847860656916
0.000241902214629716,19.9923930328458
0.000259668498038147,20
