ecg,time
0.000195915568815696,15.0059571855475
0.000179793541789053,15.0159571855475
0.000170691123782776,15.0259571855475
0.000166644553231899,15.0359571855475
0.000166340882038145,15.0459571855475
0.000168911002848242,15.0559571855475
0.000173795594228863,15.0659571855475
0.000180658811346305,15.0759571855475
0.000189332289058311,15.0859571855475
0.000199779386127759,15.0959571855475
0.000212074272532783,15.1059571855475
0.000226393024751047,15.1159571855475
0.000243015452641177,15.1259571855475
0.000262337706538739,15.1359571855475
0.000284897227383833,15.1459571855475
0.000311413629645243,15.1559571855475
0.000342852114082863,15.1659571855475
0.000380520850791503,15.1759571855475
0.000426222087842019,15.1859571855475
0.000481389570412437,15.1957779089564
0.000544499868434528,15.2048583580906
0.000616449835602037,15.2132338819662
0.000698425014488203,15.2209592097866
0.000791800321389001,15.2280858868345
0.000898140775752114,15.2346617198104
0.00101921930809409,15.2407310538824
0.00115704272844659,15.2463350427501
0.00131388310605386,15.2515118859346
0.00149231379027432,15.2562970465512
0.00169525127042669,15.2607234603092
0.0019260052783932,15.2648217372765
0.0021883391639042,15.2686203536029
0.00248654352129496,15.2721458388817
0.00282552970319846,15.2754229694061
0.00321094898157778,15.2784749718785
0.00364935021065537,15.2813237421115
0.00414839365851701,15.2839900962797
0.00471715164470925,15.2864940791875
0.00536654967844292,15.2888553677258
0.006097054719904,15.2910581246715
0.00690556942147971,15.2930945986536
0.00780394311411044,15.2950007237466
0.00881040142511861,15.2968135490935
0.00995512738445045,15.2985760913317
0.0112973046110247,15.3003527900457
0.0130619646982082,15.3023613645717
0.0147820100798618,15.3040820453879
0.0166646294332369,15.305802726204
0.0183126146260084,15.307240286542
0.019739593042892,15.3084843286891
0.0210141299848422,15.3096415809954
0.0221505920363706,15.3107660098226
0.0231394003439093,15.3118969398417
0.0239543630346775,15.313076942785
0.0245453298468644,15.3143717422559
0.0247979420359989,15.3159373058597
0.0244542466515072,15.3177967057492
0.0235080020584901,15.3196561056388
0.0224072885422022,15.3211572284096
0.0211795900234039,15.3225712959208
0.0198181306580999,15.3240011844686
0.0183308704422015,15.3254920686031
0.0167253623396575,15.3270810768703
0.0150351348569503,15.3288133992773
0.0136094797365368,15.3303899080474
0.0112787433420643,15.3332739963966
0.00935244686133906,15.3360505768264
0.00781846895065945,15.3386244120998
0.00653492957131114,15.3411235549082
0.00541126154545658,15.3436680681238
0.00442276387336349,15.346285873707
0.00355167300021351,15.3490002240758
0.00278656897257732,15.3518224702981
0.00217576641420696,15.3544824870961
0.0016784660532559,15.3570108761741
0.00126322827922275,15.3594520927369
0.000907187365377116,15.3618547225264
0.000593304474017304,15.3642736645793
0.000306835522548863,15.3667889685188
2.60168947910919e-05,15.36960755779
-0.000185228920143609,15.3720065443652
-0.000375329388332146,15.3744055309405
-0.000519812051030243,15.3764003082403
-0.000638741602427304,15.3781635360354
-0.000746779112349357,15.3798660440652
-0.000851682510991926,15.3816149022439
-0.000960682056091486,15.3835348408426
-0.00108682877253844,15.3858894916387
-0.00131506912622464,15.3905067140648
-0.00151032947396077,15.3948131266711
-0.00166363329532305,15.3984191492862
-0.00181652259080118,15.4022199349236
-0.00199669843663168,15.4070251897501
-0.00217729535216802,15.4125202899107
-0.00229478291099512,15.4173161065204
-0.0023440142678649,15.4216422961653
-0.00231383349138687,15.4255222806889
-0.00219653682441242,15.4290231430284
-0.00198599736324562,15.4322173252894
-0.00167582639025545,15.4351745965384
-0.00125751971510804,15.4379585474866
-0.00071838967988114,15.4406288089796
-3.38317113319378e-05,15.4432637311627
0.000857281223732164,15.4460098159698
0.00207974057972513,15.449087645498
0.00362188597300543,15.452342780715
0.00549448674516789,15.4557420412042
0.0067521533239534,15.4577720847949
0.00814049523423554,15.4598021283857
0.00958861983271952,15.4616987812808
0.0110614543958528,15.463413458608
0.0126472238670203,15.465043714456
0.0143877826819746,15.4666118003558
0.0162889825755436,15.4681039020412
0.0184024228563044,15.4695429947247
0.020749283878501,15.4709250116097
0.0233688087821967,15.4722564553695
0.0262954634827514,15.4735387524272
0.0295636326220303,15.4747723920862
0.0332218809181282,15.4759618840161
0.0373209117557549,15.4771100110337
0.0419196714908873,15.4782198468617
0.0470854236120455,15.4792943211544
0.0529021927113291,15.4803374596162
0.0594678070505916,15.4813529592692
0.066900226904579,15.4823447595364
0.0753436685557476,15.4833171484283
0.0849765119551378,15.4842748383947
0.096026303892266,15.4852234216874
0.108787852469297,15.4861695289362
0.123656512639517,15.4871215247724
0.141186209036113,15.4880906590093
0.162002569878304,15.4890844811598
0.186118727782803,15.4900820674883
0.214181594144148,15.4910944944077
0.247068924665262,15.4921376686816
0.28610266117505,15.4932380450233
0.330854680453897,15.4943812139757
0.370364290673521,15.4953327489941
0.403556945181632,15.4961226373386
0.432390368444444,15.4968292728557
0.457574457173697,15.4974929254076
0.479170220596083,15.4981390132495
0.496834943468374,15.4987892098543
0.509770141671582,15.4994676915333
0.51637458465116,15.5002097903328
0.513640917931313,15.5010234753559
0.499615668656481,15.5018555265318
0.472986555634334,15.5027214309112
0.432079673685657,15.5036324251065
0.375051872673142,15.5045973927216
0.33206006157685,15.5052119413597
0.284773972562057,15.5058264899978
0.242485847669948,15.5063452850427
0.205994009334493,15.506783130563
0.173789829449848,15.5071708529319
0.144863828722387,15.507527239214
0.118594057060001,15.507864066724
0.0945455774978357,15.5081899952922
0.0723578509745848,15.508512831363
0.0516484121669667,15.5088418458699
0.0318086821018456,15.5091933405795
0.0108233232045181,15.5096234276921
0.000972770849983799,15.5098556635824
-0.00788499699220465,15.5100878994728
-0.0143634098192255,15.5102759374482
-0.0203013426058245,15.5104655605507
-0.0262459263543427,15.510676494341
-0.0319627264145448,15.5109053074007
-0.0373027398742687,15.5111499395105
-0.0421838788819756,15.5114097077034
-0.0465639676907139,15.5116848446649
-0.0504238365929755,15.5119762436704
-0.0539983708551171,15.5123116594628
-0.0567277557258292,15.5126394786014
-0.0589440087357717,15.5129889746406
-0.0606641738651291,15.5133635747508
-0.0619024830539228,15.5137670448421
-0.0626722666891737,15.514204035389
-0.0629844667676671,15.5146803540674
-0.0628459406693839,15.5152033693154
-0.0622568685535896,15.5157829489204
-0.0612052998386401,15.5164332675387
-0.0596633725092109,15.5171731719845
-0.0575748541540413,15.5180315448983
-0.0548214370123371,15.5190594119949
-0.0510863609934292,15.5203786986613
-0.0470751341494737,15.5217648063513
-0.0432086609045726,15.5231057687004
-0.0395304200988997,15.5244057693933
-0.0360613311707175,15.5256669461878
-0.0328117307967589,15.5268900853651
-0.0297855551461115,15.5280752878642
-0.0269823015758487,15.5292223249164
-0.0243981436280295,15.5303308248805
-0.0220266944502651,15.5314003685956
-0.0198596097841767,15.5324305328376
-0.0178871040813097,15.5334209026155
-0.0160984059262075,15.5343710635275
-0.0144821606720112,15.5352805803101
-0.0129319232654557,15.5362074235812
-0.0114428476277197,15.5371581856564
-0.0100190573634962,15.5381347344883
-0.00866443341643158,15.5391393016653
-0.00738264106486873,15.5401745154176
-0.00617707910282638,15.5412435006493
-0.00505082726138666,15.5423500113796
-0.00400659136726832,15.5434986104778
-0.00304664603281036,15.5446949196321
-0.00217277417797636,15.5459459771767
-0.00138620185133731,15.5472607682645
-0.000687525307871073,15.5486510439492
-7.66243789264093e-05,15.5501326542092
0.000447450084364368,15.5517278670967
0.000865371516834158,15.5533726963312
0.00119014185235526,15.5550715962449
0.00143715628042325,15.5568431782555
0.00162060953968772,15.5587111301992
0.00175395781147897,15.560707772865
0.00185040584940295,15.5628803068388
0.00192369845774649,15.5653045302194
0.00198986955970419,15.5681217474995
0.00207339516566777,15.5716839865367
0.00218044412135532,15.5754693619753
0.00231155282485988,15.5792502677811
0.00246386558793482,15.5830306199022
0.00263372925502457,15.586857163868
0.00281775264304941,15.5907674926455
0.00301378549141568,15.5947944250935
0.00322115768103139,15.5989688452284
0.00344059174386574,15.6033216488159
0.00367400443950062,15.6078851473723
0.00392434233689637,15.6126944750467
0.0041955657790922,15.6177889825298
0.00449290291388471,15.6232135967584
0.00481290478207443,15.628835992659
0.00513774649590783,15.6342848046054
0.00547548286846574,15.639656664062
0.00582677932064984,15.6449146633276
0.0061960115256168,15.6500805365178
0.00658691662963141,15.6551619902389
0.00700371167883721,15.6601692245352
0.00745071390371677,15.6651084281458
0.00793254670093757,15.6699835750472
0.00845421876846595,15.674796402156
0.00902125340130143,15.6795469366727
0.00963978859976673,15.6842337456081
0.0103166845408583,15.6888543598234
0.0110706081865708,15.6934696645055
0.0119202903756541,15.6981082477894
0.0128844964310243,15.7027749086416
0.0139901764746168,15.7074926320005
0.0152787069536152,15.7123141823358
0.0168274447437922,15.7173719917755
0.0188451118891576,15.7230917821977
0.0207494782262052,15.727885551504
0.022364599801703,15.7316800665613
0.0240192327118167,15.7354745816186
0.0254433857973824,15.7388225307909
0.0266461644095848,15.7418890918237
0.0276420775809009,15.7448439183059
0.0283788900621542,15.7476569416961
0.028848914236675,15.7503986119338
0.0290408603239608,15.7531950213622
0.0289019873744344,15.7562399387208
0.0282132161889491,15.7601347127987
0.02738061155043,15.763004185652
0.02632370205018,15.7658736585053
0.0252525159274204,15.7683919250394
0.0241837490619116,15.7707012045789
0.0231129278690346,15.7729004285009
0.0220413864516184,15.7750383868963
0.0209725188194345,15.7771432369304
0.0199100593205003,15.7792337214805
0.0188576081861973,15.7813235582845
0.017818504612812,15.7834235032877
0.0167958000468408,15.7855424669953
0.0157922627765057,15.7876881812125
0.0148103885505652,15.7898676369236
0.0138524165298493,15.7920873829733
0.0129203402193092,15.7943537580891
0.0120159186756641,15.7966730762732
0.0111406911561829,15.7990517762149
0.0102959807121118,15.8014965870292
0.00948291226283137,15.8040146535328
0.00868778736302634,15.8066643438941
0.00790458663718615,15.8094925748353
0.00713706414499682,15.812520513947
0.00638910705774886,15.8157730789127
0.00566484853700069,15.8192791525893
0.00496863207926967,15.8230723619474
0.00430495436453398,15.8271920337231
0.00367835971062066,15.831684539331
0.00309324707746548,15.8366056043813
0.00255358998408727,15.8420245134592
0.00206259980547944,15.8480319188393
0.00162782506889171,15.85466135105
0.00135849558350605,15.8597085582707
0.00114114266115504,15.8647557654913
0.000914617045932906,15.8715908255414
0.000709434777536428,15.8798192667555
0.00054494216876261,15.8887865224175
0.000414468549254146,15.8987865224175
0.000324761117291471,15.9087865224175
0.000264007240895381,15.9187865224175
0.000223609954130555,15.9287865224175
0.00019740446993249,15.9387865224175
0.000181098151584869,15.9487865224175
0.000171769373275983,15.9587865224175
0.000167451112470393,15.9687865224175
0.000166824617630123,15.9787865224175
0.000169013006254652,15.9887865224175
0.000173447630944777,15.9987865224175
0.000179781652672202,16.0087865224175
0.000187833519175939,16.0187865224175
0.000197550423290298,16.0287865224175
0.000208986359087501,16.0387865224175
0.000222291841049535,16.0487865224175
0.000237713823934295,16.0587865224175
0.000255605591362075,16.0687865224175
0.000276447745988243,16.0787865224175
0.000300883202471691,16.0887865224175
0.000329771637412633,16.0987865224175
0.000364272880008208,16.1087865224175
0.000405975538997337,16.1187865224175
0.000457099301541716,16.1287865224175
0.000515826259473744,16.1380715618428
0.000582836892152529,16.1466405638218
0.00065923007435371,16.1545471457486
0.000746294056857314,16.1618431832873
0.000845498077991047,16.1685768973726
0.000958506568046968,16.1747930644572
0.0010872027990421,16.1805332746593
0.00123371766631138,16.1858361629434
0.00140046315747157,16.1907376186355
0.00159017017541183,16.19527098587
0.00180593420180043,16.1994672572442
0.00205126881846617,16.2033552595332
0.00233017149731277,16.206961833069
0.00264720480929012,16.2103120132462
0.003007599189096,16.2134292194708
0.00341738665131866,16.2163354543792
0.00388357800203707,16.2190515242919
0.00441440689030588,16.2215972992317
0.00501967789243559,16.2239920381703
0.00571128462113829,16.2262548287894
0.00647702855709695,16.2283382144691
0.00732471921974023,16.2302725452384
0.00826817822587864,16.232092848142
0.00932865446545752,16.2338356806842
0.0105428257211135,16.2355464730124
0.0120052456276086,16.2373205779095
0.0140574514264677,16.2394559492018
0.0156641295025046,16.240940538636
0.0173870197278577,16.2424251280702
0.0189995388874552,16.2437688940806
0.0204250528488388,16.2449659882454
0.0217028238061587,16.2460925625182
0.0228401531807174,16.2471959182703
0.0238239233689952,16.2483143900527
0.0246237509095805,16.2494929092623
0.025180817341532,16.2508068162625
0.0253470039133903,16.2524611609325
0.0249013409720548,16.254213207635
0.0239183035379431,16.2559652543376
0.0227920525556869,16.2574216147886
0.0215297230289606,16.2588197700108
0.0201288520270684,16.2602450709174
0.0185979895107779,16.2617395984243
0.0169436945335893,16.2633413021896
0.0152025019057229,16.265098968093
0.0130778528289349,16.2674633703903
0.0107847716430768,16.2703876108487
0.00895451289224101,16.2731144123889
0.00749302857013076,16.2756480092833
0.00624948792933969,16.2781506931847
0.00515951236154811,16.280705985274
0.00420050771259176,16.2833398125473
0.00335553148982128,16.2860752953331
0.00261062146836405,16.28893638251
0.00200034875877884,16.2917171065262
0.00150773168034904,16.2943548674469
0.00109879056898885,16.2969007982646
0.000750751604099866,16.2993987904676
0.000450089053859073,16.3018685001104
0.000188378506291075,16.3043106168911
-4.31354339339926e-05,16.3067462649039
-0.000256782359022105,16.3092657397705
-0.000476723447313872,16.3121759326073
-0.000623539938822216,16.3143190419114
-0.000759743545455123,16.3164621512155
-0.000871358002841006,16.3183340278089
-0.000967798575560732,16.3200366005221
-0.00105828755237611,16.3217055452991
-0.00114885175618093,16.3234436314187
-0.00124638020592122,16.3253882003083
-0.00136641845536994,16.3278786437174
-0.00157088902246376,16.3323379381552
-0.00174048987237746,16.3362170685757
-0.0018827532162501,16.3395843579312
-0.00203348519214637,16.3432698960751
-0.00221701292649465,16.3479816866955
-0.00240952750153509,16.3535068062454
-0.00253654528156808,16.3583277254792
-0.00259020842597757,16.3626421935587
-0.0025597189983345,16.3665058303132
-0.00243728367969104,16.3700177081913
-0.00221573833263501,16.3732574895281
-0.00188976382835595,16.3762704803039
-0.00145614654758753,16.37908766039
-0.000907156684715663,16.3817620018252
-0.000219644480616944,16.3843824666262
0.000658371492413932,16.387078068794
0.00186744559530453,16.3901238077176
0.00339326164408523,16.3933564973919
0.00522973577151217,16.3967258265343
0.00649661472125325,16.3988102869036
0.00788622835915983,16.4008947472728
0.00930798853011003,16.4028162311048
0.0107853579000401,16.4045986237283
0.0123250896898557,16.406243273077
0.0140111569824456,16.4078263285076
0.0158513755567335,16.4093345960824
0.0178959096538766,16.41079031636
0.0201654025277922,16.4121887729564
0.0226987394154977,16.413536609421
0.0255283157514843,16.4148344662864
0.0286881322698706,16.4160830487448
0.0322245353921343,16.4172866107925
0.0361859881031514,16.4184478267151
0.0406277210320707,16.419569458581
0.0456156035321366,16.4206548593555
0.0512289336058604,16.4217078442383
0.0575605077766645,16.4227320630263
0.0647219086348254,16.4237313953846
0.0728489267309412,16.4247100231919
0.0821089762062478,16.4256725325709
0.0927144653641556,16.4266243150988
0.104938509383112,16.4275716729424
0.119144108121628,16.4285224518727
0.135833542714539,16.4294870179629
0.155742508089666,16.4304801798671
0.17884489790603,16.4314773461865
0.205692771567986,16.4324861373945
0.237090378686493,16.4335209968981
0.274205089850143,16.4346047142252
0.317603137432486,16.4357455747843
0.359189780460016,16.4367639782165
0.393794533540338,16.4375909409236
0.423657641173695,16.4383176910216
0.449770500590945,16.4389923911605
0.472325804450235,16.4396429480343
0.491087436729436,16.4402913410609
0.505404316632393,16.4409602982512
0.513971532935318,16.4416804005519
0.514076909039533,16.4424934352005
0.503191579509012,16.443319818496
0.480124280066655,16.4441758761105
0.443293230228328,16.4450739179474
0.39089917770039,16.4460228920846
0.346664631396677,16.4466861580565
0.297057638813257,16.4473494240284
0.252785658252215,16.447900495194
0.214967922682529,16.448356850387
0.181815287647878,16.4487558235973
0.152148121206233,16.4491193937814
0.125268268489896,16.4494607187822
0.100707250789101,16.449789018779
0.0780953978957374,16.4501121275785
0.0570694420085995,16.4504386120307
0.0371210909588232,16.4507818332966
0.0169455356048805,16.4511780657325
0.00849535670209645,16.4513647926692
0.000704645889376771,16.4515515196059
-0.00717307928181491,16.4517581505183
-0.0136881158012207,16.4519460855562
-0.0196002499826115,16.4521335252541
-0.0255496320393383,16.4523427878134
-0.0312909148550769,16.4525702506743
-0.0366666157822796,16.4528136778254
-0.0415896396849446,16.4530722749312
-0.0460148345204657,16.4533461997169
-0.0499216217905507,16.453636288886
-0.0535466477254681,16.4539700074938
-0.0563229290701404,16.4542961534806
-0.0585851961313393,16.4546437275512
-0.0603503874541373,16.4550160965031
-0.0616327175433589,16.4554169515739
-0.0624456466071229,16.4558508474004
-0.0628004020439563,16.4563234643086
-0.0627043146656685,16.4568419951577
-0.0621584840084852,16.4574159221283
-0.0611522353754116,16.4580591085805
-0.0596597024646009,16.4587897105206
-0.0576284954807482,16.4596352721013
-0.0549496292090848,16.4606435443216
-0.0513425579861344,16.4619236646477
-0.0473252409796698,16.4633145982169
-0.0434464933171014,16.4646595678315
-0.0397529833502469,16.4659631691536
-0.0362670803071585,16.4672277553068
-0.03299990931778,16.4684542247243
-0.0299559070032362,16.4696427362165
-0.0271349246613415,16.4707930900421
-0.0245334010311502,16.4719049282322
-0.02214515129817,16.472977837376
-0.0199619825600882,16.4740113963758
-0.017974217371312,16.4750051913707
-0.0161711546385205,16.4759588098005
-0.0145414770448371,16.4768718201605
-0.012987230992221,16.4777967232058
-0.0114937322886109,16.4787454444597
-0.0100651987260753,16.4797197816043
-0.00870552767062784,16.4807219374986
-0.00741840567720623,16.4817545041173
-0.00620725731025393,16.4828205607392
-0.00507519284076645,16.483923803204
-0.00402495370244261,16.4850687189995
-0.0030588555506578,16.4862608302338
-0.00217872829682803,16.4875070405491
-0.00138585170908373,16.4888161475249
-0.000680883766629458,16.4901996312984
-6.37762528876761e-05,16.4916729318637
0.000466333626195666,16.4932576574237
0.000891823570223924,16.494898858915
0.0012227171864468,16.4965925150732
0.0014745836548114,16.4983571343392
0.00166168330776068,16.5002158445042
0.00179750025165378,16.5022000544821
0.00189521067251965,16.5043553318876
0.00196842789329587,16.5067541562267
0.00203279623771332,16.5095294923235
0.00211131253188442,16.5130010656592
0.00221362348511152,16.5167713984732
0.00234222774672491,16.5206023206331
0.00249081641529002,16.5243778231589
0.00265569041335354,16.5281589595444
0.00283354377138214,16.5319915056035
0.00302231675687081,16.5359121582488
0.00322137437789245,16.5399532632594
0.00343139033190626,16.5441455772798
0.00365414023919331,16.5485200352601
0.00389230806374873,16.5531091371561
0.00414939693413242,16.557948357034
0.00442983497923068,16.5630775339097
0.00473937999340467,16.5685422261786
0.00506518247420934,16.5740486855049
0.00540043428971004,16.5794347810729
0.00574954088632181,16.5847303084605
0.00611476455946713,16.5899242115469
0.00650020971233513,16.5950303563531
0.00690995352410154,16.6000573955682
0.00734841866514494,16.6050135032489
0.00782025579855702,16.6099038397053
0.00833046841140811,16.6147312147866
0.00888451148269673,16.6194963359601
0.00948840876423457,16.6241982546971
0.0101488626890581,16.6288347909831
0.010879858402346,16.6334419761141
0.0117031597047437,16.6380756415367
0.0126354556569654,16.6427335336448
0.0137015424723893,16.6474350302285
0.0149379480893882,16.6522223524136
0.0164090896034645,16.6571991316152
0.0182686537111594,16.6626681453595
0.0207458507623809,16.6690095623252
0.0223411978751737,16.6727598102473
0.0239763746778645,16.6765100581693
0.0254061417069,16.6798662413256
0.0266152044566891,16.6829384035279
0.027617540248647,16.6858945645728
0.0283627117306298,16.6887114272206
0.0288411089389329,16.6914533616892
0.029042257361129,16.694245517385
0.028915441131121,16.6972774585918
0.0282540396194885,16.7011183003107
0.0274261780894215,16.704014348212
0.026367501820802,16.7069103961133
0.0252954422766946,16.7094408508988
0.024226632551869,16.7117556347269
0.0231558925153286,16.7139576605815
0.0220843634685456,16.7160970088846
0.021015400614435,16.7182023433506
0.0199527370810352,16.7202926517023
0.0188999818468165,16.7223817841013
0.0178604853880061,16.7244805708179
0.0168373118293282,16.7265979599631
0.0158332408587683,16.7287416996702
0.0148507803775585,16.7309187771102
0.0138921808828544,16.7331357230825
0.0129594455729958,16.7353988472176
0.0120543461931329,16.737714411804
0.0111784296238441,16.7400887998848
0.010333027887343,16.7425286633339
0.00951927475916686,16.7450410481424
0.00872372234512813,16.7476831842025
0.00793994514771152,16.7505029697367
0.00717169220872452,16.7535214147002
0.00642284152700528,16.7567632642637
0.00569751921280952,16.7602571885712
0.00500006102401155,16.7640365705506
0.00433496198649033,16.7681404217935
0.0037067690220538,16.7726147219393
0.00311989437614368,16.7775146528156
0.00257833750543674,16.7829086970165
0.00208534959741151,16.7888862388971
0.00164756868417621,16.7954959925768
0.00127809759210467,16.8025892434564
0.000975072715422945,16.8105612782433
0.000783154592628925,16.8175237808969
0.000599673009592759,16.8263655190739
0.000460904112961243,16.8356016724453
0.000355003163545134,16.8456016724453
0.000282604005397826,16.8556016724453
0.000233957449205345,16.8656016724453
0.000201963817678705,16.8756016724453
0.000181583378355329,16.8856016724453
0.000169343655901214,16.8956016724453
0.000162897343005795,16.9056016724453
0.00016067038572342,16.9156016724454
0.000161612950899946,16.9256016724454
0.000165035460506488,16.9356016724454
0.000170503182909681,16.9456016724454
0.000177767988123589,16.9556016724454
0.000186723939138325,16.9656016724454
0.000197379398974669,16.9756016724454
0.000209841744974917,16.9856016724454
0.000224312633516775,16.9956016724454
0.000241093020730427,17.0056016724454
0.000260598370202887,17.0156016724454
0.000283385967780404,17.0256016724454
0.0003101983104997,17.0356016724454
0.000342029631281909,17.0456016724454
0.000380227675004917,17.0556016724454
0.000426651597865317,17.0656016724454
0.000482331543690732,17.07534761735
0.000546019268807788,17.0843563118688
0.000618639948386035,17.0926657407016
0.00070139484886288,17.1003303057935
0.000795673222513722,17.1074011478593
0.000903055279892659,17.1139257002883
0.00102533108078127,17.1199479651452
0.00116452691320624,17.1255087791216
0.00132293704281564,17.1306460473881
0.00150315993954851,17.1353949600465
0.00170814083599122,17.1397882001425
0.00194122228599756,17.1438561444956
0.00220620562630821,17.1476270542123
0.00250742562896555,17.1511272618431
0.00284984575050947,17.15438136498
0.0032391796788202,17.1574124303178
0.00368205218657699,17.1602422133363
0.0041862181716221,17.1628914120572
0.00476087120555889,17.1653799796037
0.00541709754681986,17.1677275353122
0.00615334515109508,17.1699127220509
0.0069682857994193,17.1719344984807
0.00787412351870779,17.1738287352678
0.00888963127239666,17.1756325041592
0.0100461551874689,17.1773894070341
0.0114060427897982,17.1791661632082
0.0132166494992577,17.1811997164462
0.0148987958805511,17.1828642836549
0.0167317195170453,17.1845288508636
0.0183710306262804,17.1859528833795
0.01979715137161,17.1871920743282
0.0210716778953377,17.1883463990758
0.0222079641318913,17.1894688660476
0.0231960734230388,17.1905986671228
0.0240094287500581,17.1917785692574
0.0245971240407,17.1930751161555
0.0248421133474223,17.1946481448546
0.0244884638911236,17.1964978628068
0.0235382852881221,17.1983475807591
0.0224353056787541,17.1998443571056
0.0212045453910756,17.2012568995273
0.0198396082855995,17.2026863466009
0.0183485245417412,17.2041775434122
0.0167387675501653,17.2057676727383
0.0150441951728872,17.2075022245574
0.0135828817303035,17.2091179769156
0.0112527415079681,17.2120044656841
0.00933046586059946,17.2147788352519
0.00779962887207156,17.2173508044127
0.00651788483705194,17.2198498990171
0.0053957697748912,17.2223946713046
0.00440867288535958,17.2250129518169
0.00353886678443327,17.2277279826645
0.00278994360576918,17.2304908374512
0.00218967952741324,17.2330966016692
0.00169903734422882,17.2355760418961
0.00128811667589465,17.2379713836009
0.000934867030479252,17.2403300028752
0.000622395100917849,17.2427086152942
0.000335315259838332,17.2451960621953
4.87100028426999e-05,17.2480375641173
-0.00015287553171308,17.2502959486415
-0.000335110506996508,17.2525543331657
-0.000477586032373984,17.2544815909204
-0.000596401202001595,17.2562075662418
-0.000704871765827894,17.2578840270609
-0.000810556607918052,17.2596146109026
-0.000920847411335233,17.2615267163503
-0.00104985080432044,17.2639041568906
-0.00127713795291623,17.2684632530218
-0.00146729500078837,17.2726380443652
-0.0016180436543454,17.2761774813363
-0.00177003652351928,17.2799571252198
-0.00195084832961743,17.2847815412494
-0.00213374304762282,17.2903120557554
-0.00225555884729229,17.2951343897388
-0.0023121400692025,17.2994845140921
-0.00229238596197491,17.3033864805213
-0.00218839988696846,17.3068991940229
-0.00199387150795004,17.3100967173307
-0.00170223047866665,17.3130498907858
-0.00130501649599272,17.3158228534108
-0.000789174396388371,17.3184791588423
-0.000128626061523613,17.3211040518757
0.000737287223298678,17.3238429806869
0.00192654825491049,17.326904513561
0.00344058021271735,17.3301676645345
0.0053014544639063,17.3336208500914
0.00653736805751927,17.3356657605693
0.007898061031617,17.3377106710472
0.00931564576129656,17.33962286473
0.0107533893150963,17.3413490660371
0.0122980918686658,17.3429881665091
0.0139916169548104,17.3445637061487
0.0158444026246186,17.3460655165317
0.0179052264047307,17.3475145864861
0.0201939451891801,17.3489059797447
0.022750035552689,17.3502468152599
0.0256055838973023,17.3515376413651
0.0287950101118602,17.3527793787703
0.0323647481341316,17.3539762317462
0.03636363939301,17.3551309179403
0.0408478085523363,17.3562463227736
0.0458829208064336,17.357325603752
0.051549184476572,17.3583726317117
0.0579401259199488,17.3593910317899
0.0651681202857439,17.3603846439053
0.0733699136497978,17.3613576096158
0.0827135708552435,17.3623144216715
0.0934121242359191,17.3632603687161
0.105738664530912,17.364201594198
0.120054628370849,17.3651456917422
0.136857026408801,17.3661025999879
0.156866705982217,17.3670863234259
0.180140279545606,17.3680761821725
0.207169247865143,17.369076415468
0.238743473828362,17.3701006313463
0.275994710493674,17.3711700674985
0.320049792505985,17.3723063727398
0.362832882456947,17.3733311878481
0.398090591967606,17.3741535338386
0.428393731976813,17.374872322657
0.454884984908627,17.375538611764
0.47780256111396,17.3761810367319
0.496926736742082,17.3768218844728
0.511610063789886,17.3774842947388
0.520530844812408,17.3781999376043
0.520913628811275,17.3790068856762
0.510213255738109,17.3798284397153
0.487221159650781,17.3806814160086
0.450307991758041,17.3815785649389
0.397603810709971,17.3825288100423
0.35236122102712,17.38320267702
0.301493408112466,17.3838765439978
0.256242848710357,17.3844336584675
0.217757045409808,17.384892614064
0.184116919166487,17.3852924991046
0.154066253326897,17.3856561359696
0.126869952438029,17.3859970337804
0.102040111971837,17.3863245620469
0.0791959024458072,17.3866466030373
0.0579679690438754,17.3869716829547
0.037848279329153,17.387312928621
0.017564072045766,17.3877052759098
0.00899720750491755,17.3878915874371
0.00109860232373564,17.3880778989643
-0.00703682630767635,17.3882881025074
-0.0136168831318653,17.3884752633552
-0.0195443243770989,17.3886604866696
-0.0255245700362787,17.3888676479794
-0.0313064114918438,17.3890930779306
-0.0367273742802762,17.3893344725898
-0.041697322683878,17.3895909888331
-0.0461692854137938,17.3898627473978
-0.0501221923026135,17.3901505538054
-0.0536157493009082,17.3904631719817
-0.0564653345449119,17.3907852473004
-0.0588000731534804,17.3911286247551
-0.0606345050389394,17.3914963543014
-0.0619829246311638,17.391892033983
-0.0628590640686497,17.3923201058865
-0.0632745842743343,17.3927861055195
-0.0632374257013662,17.3932970327799
-0.0627497425379321,17.3938619273589
-0.0618022534303005,17.3944943388442
-0.0603709753768823,17.3952117399511
-0.0584069268740298,17.3960403883186
-0.0558090068711924,17.3970250388219
-0.0523255573787027,17.3982640584025
-0.0482776928548733,17.399663350991
-0.0443596082676134,17.4010158176795
-0.0406220409900051,17.402326737905
-0.0370896369434771,17.4035986658865
-0.0337748596049615,17.4048325892701
-0.0306830760195707,17.4060287003877
-0.0278148517673728,17.4071868050343
-0.0251671955023307,17.4083065375177
-0.0227343762187886,17.4093874716449
-0.0205085518193339,17.4104291733629
-0.018480301184454,17.4114312188288
-0.0166390931095368,17.4123931906818
-0.0149737024632281,17.4133146595225
-0.0134072006185583,17.4142347308276
-0.0119003938424936,17.4151783844353
-0.0104577321063808,17.4161472440063
-0.00908314756926648,17.4171434424582
-0.00778037343028017,17.418169483909
-0.00655289154292093,17.419228337547
-0.00540388053921536,17.4203235593639
-0.00433616170265238,17.4214594563209
-0.00335214250911686,17.4226413129681
-0.00245375731976339,17.4238757129947
-0.00164240401315079,17.4251710106249
-0.000918874098820912,17.4265380495063
-0.000283271506437256,17.4279913137607
0.000265089614012724,17.4295508886416
0.000712941366486244,17.4311835598858
0.00106259498686872,17.4328647795093
0.00133011026750808,17.4346128876088
0.00152995292363522,17.4364497176198
0.00167573409899824,17.4384045982967
0.00178064345401901,17.4405194254127
0.00185811084011659,17.4428593800658
0.00192312372214778,17.4455397840885
0.00199615515391287,17.4488177232534
0.00209308528481905,17.452562272763
0.00221623856694127,17.456395302434
0.0023602317162404,17.4601728479611
0.00252157440519373,17.4639556916619
0.00269670482631659,17.4677897375583
0.00288315636873263,17.471711771246
0.00307988342280039,17.4757542094874
0.00328719828574132,17.4799478532873
0.00350657505122935,17.4843236900569
0.00374044275056704,17.4889142818574
0.00399206859694443,17.4937551821086
0.00426562536933524,17.4988863276076
0.00456654992589216,17.5043534264735
0.00488660629219119,17.509938504947
0.00521347448463037,17.5153738246497
0.00555334487560063,17.5207227206056
0.00590769854452798,17.5259622780763
0.00628073394341383,17.5311107795988
0.00667629789810611,17.5361767949602
0.00709862726532661,17.541169749951
0.00755210673380689,17.5460954939561
0.00804143902797487,17.5509575887091
0.00857173681724331,17.5557574442954
0.00914864642265872,17.5604947891837
0.0097784488806313,17.5651679520409
0.0104681721219113,17.5697743435498
0.0112407427752451,17.574396490779
0.0121121307178713,17.5790395257208
0.0131029814002013,17.5837143780016
0.0142423279757757,17.5884477786004
0.0155763984995013,17.593303136406
0.0171965313876793,17.5984440599763
0.0193830030502034,17.6044563101159
0.0211661421618017,17.6088450316301
0.0230573299372017,17.6132337531444
0.0246496716881072,17.6168996031184
0.025977578657588,17.6201067392093
0.027093102310323,17.6231088853355
0.0279871623214009,17.6260160538251
0.0286108250707651,17.6287851579153
0.0289660276825093,17.6315328853035
0.0290282254931317,17.6344023740312
0.0287073025068984,17.6376714534237
0.0277019271994326,17.6419598243036
0.0268130389808596,17.6445766208533
0.0257617203647626,17.647193417403
0.0246947758109654,17.6495805824674
0.0236251889733232,17.6518238494699
0.0225536582339008,17.6539866052432
0.0214830728378814,17.6561044239721
0.0204171136681854,17.6581997335189
0.0193594729772414,17.660288300471
0.0183136219207849,17.6623821134515
0.0172827503832904,17.6644908585032
0.0162697605614654,17.6666227637171
0.0152772775902279,17.6687851257713
0.0143076610519964,17.6709846711092
0.0133630209907271,17.6732278090287
0.0124452279416114,17.6755208382008
0.0115559231953442,17.6778701183777
0.0106965342024682,17.6802822093509
0.0098682773177085,17.6827640370149
0.00906873769099945,17.6853344879317
0.00827931905810713,17.6880746150682
0.00750380383331909,17.6910037051131
0.00674595618404833,17.6941449962848
0.00600979396599772,17.6975253814035
0.00529956614133546,17.7011760981821
0.00461970574573816,17.7051335964127
0.0039747509911097,17.709440660972
0.00336920556941315,17.7141481079076
0.00280728139034254,17.7193180510956
0.0022925962667399,17.7250296269186
0.00182788075658108,17.7313890558217
0.00142940268753742,17.7382612442121
0.00110533539575233,17.7456675456827
0.000844671952735179,17.7540302571615
0.000666591900457855,17.7618308750334
0.000509796124146153,17.7710943527309
0.0003903220811455,17.7810943527309
0.000308374005276506,17.7910943527309
0.000253087229352447,17.8010943527309
0.000216532218289135,17.8110943527309
0.000193037546001892,17.8210943527309
0.000178669825787058,17.8310943527309
0.000170760738228441,17.8410943527309
0.000167518174949982,17.8510943527309
0.000167744180921315,17.8610943527309
0.00017064689583378,17.8710943527309
0.000175719457740382,17.8810943527309
0.000182661855635922,17.8910943527309
0.000191330048105116,17.901094352731
0.00020170356475351,17.911094352731
0.000213866909234459,17.921094352731
0.000228002287038752,17.931094352731
0.000244392578627734,17.941094352731
0.000263434743980883,17.951094352731
0.000285665335668981,17.961094352731
0.000311801814733241,17.971094352731
0.000342806376562748,17.981094352731
0.000379983873257061,17.991094352731
0.00042513382966031,18.001094352731
0.000479346694497321,18.0108568807079
0.000541362438439399,18.0198843705922
0.000612084261345908,18.028213654001
0.00069268702784282,18.0358986074046
0.000784529328858358,18.0429899622088
0.000889156034554229,18.0495348207369
0.00100831650694626,18.0555769149021
0.0011439902261873,18.0611568592401
0.00129841750781569,18.0663123757353
0.00147413457963773,18.0710785020996
0.00167401448193818,18.0754877917619
0.00190131561648167,18.0795705072189
0.00215974033001622,18.0833548045021
0.00245350601641082,18.0868669142064
0.0027874350259334,18.0901313273214
0.00316706878396695,18.093170989896
0.00359881775275537,18.0960075111152
0.0040901636471562,18.0986613999345
0.00464994137930203,18.1011523513699
0.00528874868606371,18.1034996155121
0.00601009293613612,18.1056962039912
0.00680775996020061,18.107723003612
0.00769256880781072,18.1096149260786
0.00868101053327086,18.1114074613227
0.00979955364227839,18.1131400615835
0.0110974105659689,18.1148675470762
0.0127436540055985,18.1167535821617
0.0147004887070736,18.1187009138006
0.0163072138222779,18.1201488360336
0.018003949769077,18.1215967582667
0.0195236483320644,18.1228726572025
0.0208779202865802,18.1240379871918
0.0220912232124658,18.1251544420316
0.0231610659417845,18.1262635040738
0.0240675495373453,18.1274044702549
0.0247711540403403,18.1286305683115
0.0251908619562502,18.1300472650128
0.0250475371131923,18.1320689366149
0.0243992858243518,18.1336211160235
0.023380063908246,18.1351732954321
0.0222122532847852,18.1365877833556
0.0209014905065785,18.1379920840868
0.0194557744178956,18.1394412015204
0.0178843039436585,18.1409727986871
0.0168953469216659,18.1419353493925
0.0159278736788114,18.1428979000979
0.0146812319711624,18.1442033351089
0.0122369808068013,18.1470357072656
0.010097197151642,18.149917995675
0.00841047089977619,18.1525708221917
0.00704876793731015,18.155058055828
0.00586145846353386,18.1575757021
0.0048185664842403,18.160156300916
0.00390031978520127,18.1628234791856
0.00309097325653705,18.1656004495971
0.00238672207745316,18.1684700607397
0.00182578375788759,18.1711735100762
0.0013680835450356,18.1737518341938
0.000984141179751513,18.1762552691479
0.000654719000016537,18.1787222156297
0.000368018532269858,18.1811713096344
0.000115282568800644,18.1836176623657
-0.000114361543967268,18.1861221310465
-0.000339952636898356,18.1888911249402
-0.000513606914312011,18.1912618069625
-0.000672468004301559,18.1936324889848
-0.000794677881729775,18.1955962391262
-0.000896753738841521,18.1973329963568
-0.00099079996215809,18.1990117187502
-0.00108344034166407,18.2007385215469
-0.00118120413825531,18.2026377339787
-0.00129660323960621,18.2049766751616
-0.00151095158836607,18.2095732642727
-0.00170092201605813,18.2138891840899
-0.00185469533204861,18.217534257026
-0.00201106355895197,18.2213864372094
-0.00220017677940339,18.2263185108314
-0.00238446928665513,18.2317814790241
-0.00250199801225215,18.2365420261732
-0.00254547040696632,18.2408079307433
-0.00250437837727386,18.2446306790651
-0.00237128522961113,18.2481020755211
-0.00213920408204045,18.2513039576438
-0.00180277369141053,18.2542831631921
-0.00135764972084682,18.2570771585655
-0.000794765544679223,18.2597400627177
-9.05273370645207e-05,18.2623565135816
0.000816344056439063,18.2650772796205
0.00205879567222783,18.2681434003281
0.00362414729423326,18.2714004219811
0.00548787591347902,18.2747594995931
0.00675492770182257,18.2768031856565
0.00814830017783691,18.2788468717199
0.00959708481169345,18.2807563175163
0.0110618429950776,18.2824764871004
0.012635249856334,18.2841112117358
0.0143613145635943,18.2856848120603
0.016244081216098,18.2871813736617
0.0183370755604702,18.2886255973995
0.0206609190774208,18.2900127702663
0.0232548240584734,18.2913494058651
0.0261531149234793,18.2926368673833
0.0293893900861839,18.2938753670381
0.0330120227166818,18.2950695151568
0.0370711092161937,18.2962220498955
0.041624887162733,18.2973360284211
0.0467395912845444,18.2984143327286
0.0524982332719288,18.299461008322
0.0589973683601763,18.3004797580907
0.0663533313311703,18.3014745196488
0.0747082665844476,18.302449575364
0.0842379955687833,18.3034096377678
0.0951663085360221,18.3043602600647
0.107783210609048,18.3053080482633
0.122477153588513,18.3062613152973
0.139791747741731,18.3072312238579
0.160379717006614,18.3082270157424
0.184229239457645,18.3092262281277
0.211978446215195,18.3102398847972
0.244492225259019,18.3112837757021
0.283066301700899,18.3123839173325
0.327350759279663,18.3135272891922
0.36705274995917,18.3144918216248
0.400407775688674,18.3152907106131
0.429366692546264,18.3160034453332
0.45466903587769,18.3166713341605
0.476395177008491,18.3173201394728
0.494223354001131,18.3179714885386
0.507389803382414,18.3186490619709
0.514372284794467,18.3193866624416
0.512230547141783,18.3202014197975
0.49889078879691,18.3210330994314
0.47307367798196,18.3218972743333
0.433137761436183,18.3228053355912
0.377265489511297,18.3237661871859
0.334198352770523,18.3243893749224
0.286652614122029,18.325012562659
0.244127198466619,18.3255372881703
0.207479929453768,18.3259787523894
0.175166561436183,18.3263688361826
0.146155841884741,18.3267268496488
0.119816654229246,18.3270647996627
0.0957108084322066,18.327391435245
0.0734784443629768,18.3277145494472
0.0527437271806962,18.3280432377515
0.0329248756916854,18.3283930800238
0.0122069298820922,18.3288147476861
0.00154171498380939,18.3290646119914
-0.00576425299191583,18.3292537093768
-0.0124391960732502,18.3294428067621
-0.0182890373009672,18.3296245934705
-0.0242503915952852,18.3298293878674
-0.0300525436468002,18.3300531623449
-0.035516716044948,18.3302932562247
-0.040543180480847,18.330548604855
-0.045079298754691,18.3308191851948
-0.049100551164755,18.3311056989235
-0.0527142885040733,18.3314215670868
-0.0556260052258407,18.3317422381067
-0.0580222635485979,18.3320838234007
-0.0599178572240722,18.3324493484695
-0.061326908790987,18.3328423029564
-0.0622632086770459,18.3332669884631
-0.062738724476677,18.3337287529786
-0.0627620028691833,18.334234336857
-0.0623362151773026,18.3347924051841
-0.0614542207844679,18.3354157149184
-0.0600948820302799,18.3361208994577
-0.0582146987328939,18.3369323493206
-0.0557251303500264,18.3378905100402
-0.0524167133311226,18.3390791130971
-0.0483735605130441,18.340484629093
-0.0444524606796496,18.3418411896581
-0.0407077301050559,18.3431553249569
-0.0371660983900228,18.3444299872086
-0.0338410466272007,18.3456663768043
-0.0307385067434238,18.3468648037158
-0.027859395335741,18.3480251400899
-0.0252009578250376,18.3491470582658
-0.0227576305757327,18.3502301542034
-0.0205216914040402,18.3512740071315
-0.0184838033323382,18.3522782017323
-0.0166334907039654,18.353242326938
-0.0149595603445286,18.3541659590416
-0.0133903869235703,18.355084899529
-0.0118806370953905,18.3560273610574
-0.0104348213542433,18.3569949249301
-0.00905688146714479,18.3579897079593
-0.00775056279586038,18.3590141937513
-0.00651936165891212,18.3600713255934
-0.00536647361099961,18.3611646264274
-0.00429473945040612,18.3622983604611
-0.00330658888894125,18.3634777559672
-0.00240398140157324,18.364709320929
-0.00158834307721897,18.3660013049382
-0.000860497088279322,18.3673644020377
-0.000220583112820056,18.3688128729741
0.000332043641642809,18.3703664500032
0.000785271906407148,18.371997193264
0.0011394257414519,18.3736755359478
0.00141069769611627,18.3754197998329
0.00161361123206126,18.3772515204931
0.00176181902896493,18.3791995525332
0.00186852982982888,18.3813049640087
0.00194715584142342,18.3836313206966
0.00201258168810365,18.3862901651696
0.00208485511618874,18.3895261027859
0.00218123829963497,18.3932668081939
0.00230393958519199,18.3970992379257
0.00244789578879458,18.4008757263451
0.00260972795857224,18.4046571170616
0.00278587335936315,18.4084893698035
0.00297383136539844,18.4124092862816
0.00317253051787099,18.4164492752115
0.00338228381607079,18.4206401060225
0.00360460081704201,18.4250127184656
0.00384198474476942,18.4295996046674
0.00409781915874913,18.4344362198869
0.00437644072245024,18.4395623668431
0.0046835082758984,18.4450235606213
0.00500787980601531,18.450553947834
0.0053407615300459,18.4559542215276
0.00568721785816256,18.4612658896262
0.00604923119431094,18.4664735780843
0.00643094483779632,18.4715925536013
0.00683636679796896,18.4766314161058
0.00726986552834968,18.4815987190345
0.00773601272182603,18.4864998431036
0.00823972156542258,18.4913378368254
0.00878634287488628,18.4961136248933
0.00938178463460175,18.5008264627953
0.0100326188809478,18.5054743144796
0.0107497541019219,18.5100761065956
0.0115570448375478,18.514706905357
0.0124698490157563,18.5193596471271
0.0135117422900654,18.5240519131859
0.0147165688980706,18.5288201744225
0.0161420336821361,18.5337531694354
0.017916907368982,18.5390980328154
0.0203913354854324,18.5455559499147
0.0220199609229719,18.5494234775064
0.0237039911711562,18.5532910050982
0.0251776588515151,18.556723312853
0.0264226872912438,18.5598307680487
0.0274606796757717,18.5627969992998
0.0282523863803954,18.5656381045073
0.0287768990988557,18.568384725532
0.0290279716621169,18.5711578314272
0.028964737206061,18.5741276130199
0.0284332092150791,18.5777291048651
0.0276307647623274,18.5807766395419
0.0265602454119376,18.5838241742187
0.0254828531997976,18.5864203616034
0.0244137347864186,18.5887641683218
0.0233433482099154,18.5909815569732
0.022271733551023,18.593129532052
0.0212020365757684,18.595239364935
0.0201379784330459,18.5973313074695
0.0190832045443407,18.5994199203427
0.0180411142062021,18.6015164664221
0.0170148219211918,18.6036301694408
0.0160071559613019,18.6057689565235
0.0150206709220883,18.6079399282735
0.0140576607705302,18.6101496849326
0.0131201705888758,18.6124045695151
0.012210012687686,18.6147108478499
0.0113287710066353,18.6170748862818
0.010477815066004,18.6195032915582
0.00965831224121108,18.6220030484364
0.00886109540841183,18.6246161778778
0.00807498954100118,18.6274037152923
0.00730375711981193,18.6303859676807
0.00655123095085233,18.6335870649712
0.00582149507887435,18.6370349486444
0.00511885140923359,18.6407621254647
0.00444777301897153,18.6448065514059
0.00381280698283869,18.649212884538
0.00321840769478984,18.6540344812775
0.0026686687810952,18.659337109499
0.00216699384170486,18.6652057880507
0.00171673796907428,18.6717416532208
0.00133605415473549,18.6787467520161
0.00103030938310992,18.6863123004988
0.000812356880465384,18.6937796548925
0.000628028325828881,18.7022599250079
0.000482145386840045,18.7114462546815
0.000369959405701401,18.7214462546815
0.000293116544091875,18.7314462546815
0.000241351809040211,18.7414462546815
0.000207185153320852,18.7514462546815
0.00018528854751589,18.7614462546815
0.000171979041579094,18.7714462546815
0.000164762182232343,18.7814462546815
0.000161963353107064,18.7914462546815
0.000162463800777178,18.8014462546816
0.000165525687375466,18.8114462546816
0.000170679439934573,18.8214462546816
0.000177650850787675,18.8314462546816
0.000186313541220212,18.8414462546816
0.000196658789612797,18.8514462546816
0.000208778435496046,18.8614462546816
0.00022285857001104,18.8714462546816
0.000239183028431765,18.8814462546816
0.000258146912165493,18.8914462546816
0.000280281802937706,18.9014462546816
0.000306296271039527,18.9114462546816
0.000337138171379759,18.9214462546816
0.000374089895893682,18.9314462546816
0.000418915788478489,18.9414462546816
0.000473161020858416,18.9512913223168
0.000535246863561555,18.9603962562401
0.0006060548620586,18.9687953418012
0.000686754190551177,18.9765431803501
0.000778701089122585,18.9836912533961
0.000883439486517763,18.9902873262747
0.0010027184169625,18.9963757179168
0.00113851752257904,19.0019975666487
0.00129307781693502,19.0071910646607
0.00146893706838455,19.0119916729333
0.00166897069811068,19.0164323276137
0.00189644081368747,19.0205436393934
0.00215505497521353,19.0243540832166
0.00244903788116001,19.0278901831291
0.00278322195839144,19.0311767022004
0.00316316246375704,19.0342368420431
0.00359528923753108,19.0370924558452
0.00408711136897576,19.0397642909374
0.00464750341782592,19.0422722835537
0.00528712254549946,19.0446359402079
0.00600926189484401,19.0468475560738
0.00680812430754875,19.0488891887919
0.0076948130546548,19.0507963052174
0.00868633186762639,19.0526051637663
0.00981025417060548,19.054356610315
0.0111187385620561,19.0561087576922
0.0127946792439641,19.0580397363457
0.0146539106033599,19.059908602425
0.0162418688718234,19.0613612801562
0.0179152316675823,19.0628139578874
0.0194096141883997,19.0640931296996
0.0207418447025193,19.0652644904073
0.0219344100245765,19.0663886651711
0.0229837635526042,19.0675069152096
0.0238692888832294,19.0686589623304
0.0245504730231573,19.0698993972547
0.0249435424689111,19.0713383569082
0.0247456888936676,19.0734312238194
0.0240715627944133,19.0749753607
0.0230445776636146,19.0765194975806
0.0218723487500028,19.077937583967
0.0205598711650631,19.0793493162606
0.0191155818557778,19.080807450306
0.0175486022565204,19.082349289483
0.0165724718317255,19.0833098749293
0.0156217597911862,19.0842704603756
0.0132623456317627,19.0868617987664
0.0109028252841756,19.089847554039
0.00904583188386397,19.0925956806205
0.00756836497080771,19.0951401131774
0.00631582521983002,19.0976436309848
0.00521807551208594,19.1001982029822
0.00425211650754977,19.1028302197095
0.00340086148536208,19.1055628512549
0.00266528806712117,19.1083577100024
0.00207732113882697,19.110990633479
0.00159755765378115,19.1134943334616
0.00119611629691102,19.11591264904
0.000851616869732003,19.1182905234231
0.000548621431402084,19.1206738339309
0.000274405371483298,19.1231235669777
1.21872244736846e-05,19.1257855679451
-0.000216296673244933,19.1284123236296
-0.000374778599448078,19.1304302461881
-0.000520747074804675,19.1324481687467
-0.000641269626189884,19.1342392663961
-0.000747834142150553,19.1359228745007
-0.000849022108084542,19.1376119727099
-0.000951422132794185,19.139413362095
-0.00106416326399679,19.1415051061235
-0.00121577299185127,19.1444960610026
-0.00139403653615842,19.1482658950829
-0.00153397829187293,19.1514089917208
-0.00166423974730406,19.1544742923423
-0.00180630316256259,19.1579725208108
-0.00197583078876036,19.1623917114877
-0.00217444772433138,19.1681343335633
-0.00230872651679655,19.1730464552408
-0.00237854432644187,19.1774831596517
-0.00237180936904578,19.1814546843611
-0.00228035063948581,19.1850262924179
-0.00209767243451342,19.1882768585991
-0.00181731357713827,19.1912779060046
-0.00143173467397492,19.1940899318705
-0.000930257752766241,19.1967697479321
-0.000292653622099202,19.1993895161779
0.000531237829258096,19.2020798520699
0.00167675796379575,19.2051145874303
0.00313264134406945,19.2083281012643
0.00494392948293117,19.211761839971
0.00622436745951147,19.213925822679
0.00763422583052196,19.2160898053871
0.00902183604750228,19.2180045520148
0.010466061193157,19.219783444001
0.0119803011016412,19.2214347427759
0.0136348909888712,19.2230204142214
0.0154474399272493,19.2245364749423
0.017460559177848,19.2259987363402
0.0196957861278699,19.2274034914437
0.0221908329528424,19.2287570923306
0.0249742327995903,19.2300587576897
0.0280853028337667,19.2313120519148
0.0315664259319453,19.2325197675378
0.0354647456411233,19.2336845179845
0.0398327742136467,19.2348087389621
0.0447375903896694,19.2358965257009
0.0502549704439852,19.2369512896417
0.0564748383057615,19.2379766128135
0.0635050882120459,19.2389762955798
0.0714755560294975,19.2399542889401
0.0805483831912115,19.2409152171548
0.0909255950652005,19.2418641554302
0.102865730240957,19.2428070450556
0.116708995971527,19.2437511667847
0.13291923526883,19.2447059241544
0.152162678722479,19.245684425474
0.1746901985234,19.2466748769618
0.200832013284028,19.2476736301938
0.231331301044991,19.2486934345616
0.267231503063683,19.249753583784
0.310252690523568,19.2508902137604
0.345101724390619,19.2517431721168
0.381284577174603,19.2525961304732
0.413473077578115,19.2533535566343
0.441637369274925,19.2540422027994
0.466196758139628,19.2546948031486
0.487118394886611,19.2553353192703
0.503970114459403,19.2559856489423
0.515808559995617,19.2566719610646
0.520697844539544,19.2574358218422
0.515509076699544,19.2582491130868
0.498698913787043,19.2590856269389
0.468837773652463,19.2599602170384
0.424156538976895,19.260883348616
0.376779134664109,19.261658121652
0.333030913322687,19.2622772842883
0.284934358840484,19.2628964469246
0.242453271352255,19.2634131912531
0.205863786356206,19.2638489706501
0.173585315003685,19.264235056104
0.144598130953143,19.2645901259156
0.118276344174945,19.2649258808934
0.0941816763212082,19.2652509536078
0.0719495348567419,19.2655731735552
0.0511901517932434,19.2659019332787
0.0312733045298006,19.2662540221623
0.0100275721849365,19.2666895083066
0.000601064514644616,19.2669118177489
-0.00790899170773934,19.2671341271913
-0.0143794288490734,19.2673208057824
-0.0203312576232169,19.2675096833026
-0.0262921463999238,19.267719851008
-0.0320259613814486,19.2679478635015
-0.0373829326649118,19.2681916617352
-0.0422804942884104,19.2684505610868
-0.046676181791921,19.2687247908243
-0.050551566685918,19.2690152397942
-0.0541340545586718,19.269348649104
-0.0568789711293111,19.2696753421979
-0.0591097058766222,19.2700236540575
-0.0608432670022437,19.2703969901164
-0.0620939590301368,19.2707991054239
-0.0628752004434508,19.2712346381433
-0.0631980299518359,19.2717093817104
-0.0630694044051068,19.2722306879307
-0.0624896443941617,19.2728083733208
-0.0614469130222882,19.2734566025405
-0.0599134246320319,19.2741941826511
-0.0578330027784989,19.2750499342231
-0.0550873915388032,19.2760747608241
-0.0513601307836613,19.2773902027252
-0.0473380288623275,19.2787781625783
-0.0434590541305908,19.2801210575297
-0.0397674013243794,19.2814230933886
-0.0362844007065287,19.2826864044065
-0.0330206722869436,19.2839117683129
-0.0299803766113747,19.2850992756271
-0.0271631987391643,19.2862486869339
-0.0245654695979597,19.2873596206383
-0.0221809311197379,19.2884316488949
-0.0200013397971556,19.2894643414818
-0.0180169837462924,19.2904572784415
-0.0162171397856159,19.2914100427474
-0.0145904782677016,19.2923221991651
-0.0130370538612584,19.2932475170547
-0.0115444787620804,19.2941966787516
-0.0101169478630117,19.2951714977898
-0.0087583541926308,19.2961741831898
-0.00747237907955518,19.2972073348659
-0.00626244103629984,19.2982740422194
-0.00513164337711286,19.2993780141097
-0.0040827196022995,19.3005237549894
-0.00311797638005965,19.301716809458
-0.0022392334897588,19.302964111643
-0.00144775929604758,19.3042745016218
-0.000744198899866697,19.3056595209207
-0.00012848937872555,19.3071347023765
0.000400249268297474,19.3087218033981
0.000823990426119388,19.3103637909634
0.00115345313389103,19.3120586042713
0.00140416207499379,19.3138247714808
0.00159035755434989,19.315685545705
0.00172551026081276,19.3176725398508
0.00182279226138604,19.319831686193
0.00189582911362065,19.3222362021303
0.00196031937614653,19.3250208907152
0.00203950287217149,19.3285124464252
0.00214227795919823,19.3322858848764
0.00227062111981921,19.3361029496996
0.00241904221399208,19.3398769105908
0.002583832616136,19.3436653011633
0.00276164278990962,19.3475118861904
0.00295036138877964,19.3514524009106
0.00314930314198321,19.3555187920605
0.00335909627320474,19.3597417733151
0.00358147397529603,19.3641524997352
0.00381907983591264,19.3687839374475
0.00407538467855888,19.3736722983238
0.00435480591831739,19.3788583952285
0.00466314132968587,19.3843890612255
0.00498474435522924,19.3899165244034
0.00531588064771032,19.395330924785
0.00566001008491934,19.4006460943762
0.0060198424337001,19.4058588450722
0.00639933503910781,19.4109822528983
0.0068025115496934,19.4160259655988
0.00723365678357781,19.4209982785295
0.00769726930146865,19.4259045211063
0.00819818222908647,19.4307476544961
0.00874167235749358,19.4355286109932
0.0093335763271501,19.440246692162
0.0099803940876088,19.4448999050532
0.0106916565977705,19.4494993544543
0.0114921749178442,19.454129027921
0.012396720752171,19.458779671123
0.0134283738710493,19.4634682134096
0.0146199031121047,19.4682288559095
0.0160264176333786,19.4731446042099
0.017767668652808,19.47844246677
0.0202405464096117,19.4849516982392
0.0218880180353114,19.4888822764502
0.0235977942509981,19.4928128546612
0.0250892065933372,19.496277781976
0.0263478878724894,19.4993999157829
0.0273991226321131,19.5023709139073
0.0282082271263399,19.505222070377
0.0287498118996799,19.5079714231656
0.0290191132211664,19.5107387639523
0.0289784808615182,19.5136883721066
0.0284885759123002,19.5172184953203
0.0276951389313303,19.520325012262
0.0266189503815058,19.5234315292038
0.0255391715824135,19.5260514044378
0.0244698547260908,19.528405050022
0.0233995815391107,19.5306275801318
0.0223279538571051,19.5327785029577
0.0212580372826143,19.5348899762062
0.0201935460106373,19.5369826714735
0.0191381355389487,19.5390713847147
0.0180952195269817,19.5411675235715
0.0170679273025613,19.5432804067742
0.0160591014092,19.5454180265411
0.015071310131574,19.5475875290824
0.0141068599656904,19.5497955484476
0.0131678082397925,19.5520484519198
0.0122559788500386,19.5543525237318
0.0113729664281977,19.5567141454735
0.0105201517497698,19.5591399336502
0.00969871178975047,19.5616368846202
0.00890103712389359,19.5642416484821
0.00811427334617789,19.5670199036067
0.00734218953702593,19.5699917473636
0.00658860447110086,19.5731811371446
0.00585758847907368,19.576615813282
0.00515343243127999,19.5803280402038
0.00448060128376107,19.5843554866053
0.00384364046904561,19.5887424532944
0.00324701431531799,19.59354181163
0.00269484182906225,19.598818610415
0.00219056983656976,19.6046567077182
0.00173672990799186,19.6111696434127
0.00135268165607048,19.618149552448
0.00104477472788536,19.6256845795104
0.000830860645443823,19.6328988227418
0.000641542804873211,19.6414213932612
0.000494034425470999,19.6505048056113
0.000379056320175126,19.6605048056113
0.000300318713136291,19.6705048056113
0.000247292128327664,19.6805048056113
0.00021230235010342,19.6905048056113
0.000189883563444962,19.7005048056113
0.000176258259015254,19.7105048056113
0.000168868216571426,19.7205048056113
0.000165995928418423,19.7305048056113
0.00016649372176198,19.7405048056113
0.000169604365836922,19.7505048056113
0.000174845620599335,19.7605048056113
0.000181935553597645,19.7705048056113
0.000190743865600826,19.7805048056113
0.000201261037201387,19.7905048056113
0.000213580918487143,19.8005048056113
0.000227894439254807,19.8105048056113
0.000244493467886198,19.8205048056113
0.000263785113110096,19.8305048056113
0.00028631827632339,19.8405048056113
0.000312826324324159,19.8505048056113
0.000344292851395621,19.8605048056113
0.000382052543506755,19.8705048056113
0.000427947883533866,19.8805048056113
0.000482866743165574,19.8902284492779
0.000545676232757602,19.899217830496
0.000617298386644713,19.9075113017802
0.000698922975733104,19.9151627347634
0.000791924377674747,19.9222227882742
0.000897865058182504,19.9287384848188
0.00101851439090361,19.9347534738086
0.00115587469772144,19.9403082863782
0.00131221244314288,19.9454405613026
0.00149009376388273,19.9501852548963
0.00169242616174311,19.954574842631
0.00192250785809691,19.9586395139398
0.00218408767981599,19.9624073577911
0.00248143768237693,19.965904545309
0.00281944535183439,19.9691555178358
0.00320373093120154,19.9721831843017
0.00364080193608752,19.9750091330235
0.00413826246523636,19.9776538742272
0.0047051061943231,19.9801371355288
0.00535214418177509,19.9824782460385
0.00608047158512142,19.9846633354153
0.0068860988560489,19.9866818092082
0.00778039076929777,19.9885688112796
0.00878069897246353,19.9903602410297
0.00991528604540268,19.9920968653558
0.0112380149132399,19.9938374121396
0.0129456182555123,19.995770799041
0.0151023312755819,19.9978853995205
0.0162800972613462,19.9989426997602
0.0175054044957071,20
