ecg,time
-0.00210009498021147,15.0017208436027
-0.00227522733379656,15.0066391290828
-0.00239037144893299,15.0110875610983
-0.00243624186824215,15.0150883243683
-0.00240518611315378,15.0186667133685
-0.0022922739539971,15.0218825668714
-0.00209376780158651,15.0247969862002
-0.00180467341994829,15.0274793649845
-0.00141446905757365,15.0300104001371
-0.000898181932960976,15.0324991796608
-0.000189639955162979,15.035141639183
0.000749128356838561,15.0379652648711
0.00157829116884495,15.0401352519571
0.00247173693231783,15.0423052390432
0.00340409831245438,15.0444777837479
0.00462371587046598,15.047237210082
0.00551853431234073,15.0491926824725
0.00646034640506509,15.0511481548629
0.00744016023626601,15.0530316894158
0.0084514445607335,15.0547915792019
0.0095565132167437,15.0565018954046
0.0107899247929117,15.0581750269267
0.0121685987656955,15.0597973694463
0.0137311052194555,15.0613821977667
0.0154831866932073,15.0629081748019
0.0174538444633676,15.0643798939654
0.0196678459653066,15.065797069289
0.022149266269903,15.0671588853903
0.0249220631787605,15.0684646231058
0.0280226384159408,15.0697186655887
0.0314913684205576,15.0709246512076
0.0353740740764218,15.0720859523865
0.0397240971553151,15.0732060222213
0.0446039096038433,15.0742883781496
0.0500878440070762,15.0753367342687
0.0562634627305763,15.0763547425373
0.0632353556192814,15.0773461588925
0.0711295911053844,15.0783149035156
0.0801005370904262,15.0792652255202
0.090339578831997,15.0802018023877
0.102088516836125,15.0811299731631
0.115659933374307,15.0820560774693
0.131469712154541,15.0829879935065
0.150093598898912,15.0839361255677
0.172203437205604,15.0849083298708
0.197798508179044,15.0858834842266
0.227543409596699,15.0868716557549
0.262329028060862,15.0878872992431
0.303490844640765,15.0889549764488
0.341429361462451,15.0898537052555
0.381546383027018,15.0907524340623
0.416513013508867,15.0915218538431
0.446812118802664,15.0922044544329
0.473322866407935,15.0928426546065
0.496225008088061,15.0934634961414
0.515233821944726,15.0940894695406
0.52958039665499,15.0947459577385
0.537637689962212,15.0954720080945
0.536178704488536,15.0962663443883
0.52318564561517,15.0970825887289
0.497292027321484,15.097938016904
0.45665783320641,15.0988455239319
0.399199855960049,15.0998135857736
0.352841520297864,15.100467236638
0.301313130526975,15.1011208875024
0.255698305505217,15.1016630763379
0.216923927593913,15.1021119254055
0.183043305174935,15.1025044086441
0.152792129972764,15.10286228258
0.125425647497453,15.1031985802434
0.10044511400936,15.1035224828667
0.0774557070519388,15.1038419028436
0.0560632068032276,15.1041657433688
0.0356919408784628,15.1045086044786
0.0146989102491041,15.1049145245857
0.00223715511611606,15.1051928890374
-0.00520602120590138,15.1053778331315
-0.0120113275837113,15.1055627772257
-0.0179336606927457,15.1057391243297
-0.0239872426237177,15.1059380704004
-0.0299056063923378,15.1061560593233
-0.0354975833125501,15.1063903159661
-0.0406554240483608,15.1066396736383
-0.0453216501389413,15.1069040274071
-0.0494688721365468,15.1071840075674
-0.0530872560475428,15.1074808164056
-0.0563822939501651,15.1078212722635
-0.0588726875953168,15.1081563811623
-0.0608529969919848,15.1085146143471
-0.0623406285079045,15.1088997351877
-0.0633498866653484,15.109315971511
-0.063893310341067,15.1097685797959
-0.0639800700157788,15.1102641909328
-0.0636139859029172,15.1108113362264
-0.0627890179513732,15.1114223661285
-0.0614847113370384,15.1121137882161
-0.0596583277297192,15.1129095713841
-0.0572224597628465,15.1138493516541
-0.0539710475005688,15.1150146250135
-0.0498703765710305,15.116431187854
-0.0458813969674086,15.1177984874773
-0.0420621124073042,15.1191239502675
-0.0384421582670721,15.1204105258858
-0.0350368545540637,15.1216593723964
-0.0318535290491077,15.1228707422593
-0.0288942541486606,15.1240444460877
-0.0261572518345192,15.1251800969169
-0.0236377711874881,15.1262772373816
-0.0213287423166633,15.1273354019608
-0.0192213235573549,15.1283541412324
-0.0173053845922411,15.1293330224904
-0.0155699386340744,15.1302716146007
-0.0139825717832783,15.1311818448606
-0.0124527350120093,15.1321152035308
-0.0109853781747704,15.1330729569009
-0.00958450412395978,15.1340571018426
-0.00825394248337722,15.1350699719018
-0.00699729479505099,15.1361143233699
-0.0058178838990589,15.1371934430271
-0.00471870113187114,15.1383112921813
-0.00370235145502969,15.1394727034441
-0.00277099628551525,15.1406836565259
-0.00192629330472906,15.1419516766667
-0.00116933165184317,15.1432864315064
-0.000500559351221191,15.144700665804
8.03032460644074e-05,15.1462117489867
0.00057039493235838,15.1478290169345
0.000954757656466034,15.149487104156
0.00125052343455439,15.1512043918824
0.0014725130075395,15.1530004015123
0.00163452942900382,15.1549008471393
0.00174971286245116,15.1569414181763
0.00183104729841331,15.1591754692608
0.00189222781726907,15.1616917089635
0.00194976331903449,15.1646658370812
0.00202712103283849,15.168403233057
0.00212763080663307,15.1722666796041
0.00226337223704999,15.1764763584076
0.0024312964798865,15.1809667574452
0.00263561260726974,15.185953313899
0.00284519849942611,15.1908278350272
0.00306386958987387,15.1957986282921
0.00324913528003619,15.1999366205559
0.00342334340217976,15.2037703721133
0.00359518122645633,15.2074838398592
0.00376934514645786,15.2111636589539
0.00394926925537772,15.2148640372931
0.00413794114523728,15.218625263483
0.00433823460769693,15.2224805570162
0.00455313225564399,15.226459980156
0.00478589367949056,15.2305927383809
0.00504020726814767,15.2349085874549
0.00532038307653141,15.23943901919
0.00563166001880354,15.2442185191891
0.00598073138487479,15.2492860087782
0.00636427475716768,15.2545212967275
0.0067643828684014,15.2596309683557
0.00718952313244285,15.2646901821092
0.00764089654575769,15.2696669901282
0.00812380008035036,15.2745719897114
0.00864366365096921,15.2794083688805
0.00920686657809571,15.2841808985859
0.00982035835529486,15.2888916095274
0.010491764809714,15.2935406203899
0.0112438645390121,15.2982116348602
0.0120926384637642,15.3029103002829
0.0130588190869575,15.3076489885064
0.0141714289156216,15.3124560381407
0.015476705425909,15.3173980592952
0.0170669842403998,15.3226480036566
0.0192320913624622,15.3288412521889
0.0209493378180533,15.333246940986
0.0227639076556646,15.3376526297831
0.0243002815583502,15.3413661718835
0.0255819425541799,15.3446282828352
0.0266552021850197,15.3476878846226
0.0275099657450361,15.3506568862109
0.0280973606187789,15.3534887012722
0.0284179443381174,15.3563030291114
0.0284452411601326,15.3592492162793
0.0280832723204476,15.3626251498543
0.027305482866988,15.3660905172377
0.0261801704848015,15.369555884621
0.0250843491398639,15.3723289277304
0.0240135677203152,15.374771754331
0.0229456170079432,15.3770647569103
0.0218779041648809,15.3792781121095
0.0208130097681587,15.3814476659124
0.019754498202991,15.3835959319946
0.0187059737715358,15.3857388118139
0.0176708371783268,15.3878884491623
0.0166522226541814,15.3900546855699
0.0156529880257889,15.3922458970885
0.0146757192208473,15.3944695235799
0.0137227437782329,15.3967324173492
0.0127961396161049,15.3990411050027
0.0118977457853405,15.4014019857458
0.011029175573936,15.4038214868256
0.0101918193403712,15.4063062267208
0.0093868600807552,15.4088631357047
0.00861173270864606,15.4115121960989
0.00784851249843403,15.4143367566604
0.00710099345053861,15.417356632004
0.00637291759536862,15.4205957332361
0.00566825147973465,15.424081679068
0.00499115065058477,15.4278465130563
0.00434590081034732,15.4319276125707
0.0037368155698719,15.4363689915806
0.0031680728130828,15.4412234123572
0.00264347723991539,15.4465561787227
0.00216618679323033,15.4524519606825
0.00173859951137184,15.4590248378439
0.00137429521486434,15.4661672492722
0.00107251582997072,15.4738933058667
0.000838292495010876,15.482328898328
0.000694202652034203,15.4898723801701
0.000568417267225443,15.4991596187761
0.000482140172194238,15.5087628107854
0.000427422456249715,15.5187628107854
0.000400180093872046,15.5287628107854
0.000394514524786317,15.5387628107854
0.000406662221004322,15.5487628107854
0.00043475367583948,15.5587628107854
0.000478709441842597,15.5687628107854
0.000537441134209978,15.5783523686629
0.00060872975126583,15.5871712826022
0.000692658321897493,15.5952715575148
0.000790072502971634,15.6027156289267
0.000902300482762502,15.6095608227136
0.00103104992299462,15.6158594436633
0.0011783744616289,15.6216593557497
0.00134667507478071,15.6270044706146
0.00153872291553542,15.6319351510112
0.00175769636189728,15.636488568219
0.00200723460305372,15.6406990290746
0.00229150642071701,15.6445982791368
0.00261530148856822,15.6482157863586
0.00298414843078015,15.6515790277752
0.00340447450573156,15.654713795666
0.00388382564746693,15.6576445371708
0.00443117924796263,15.6603947617212
0.00505741247729009,15.6629875798487
0.00576874111557006,15.6654237047888
0.00655981191245191,15.6676804364186
0.00744434260702606,15.6698008900255
0.00844468978378991,15.6718323626995
0.00960128999925688,15.673836130037
0.011007456644582,15.6759251334088
0.0130783417313578,15.6785536197052
0.0144671577478755,15.6801319338229
0.0159297415741188,15.6817102479405
0.0172587320647578,15.683123853673
0.018439542550644,15.6844136425317
0.0194910330535067,15.6856454041623
0.02041014458776,15.6868639483855
0.0211784184058406,15.6881105697774
0.0217600854388307,15.6894391247203
0.0220839946959713,15.6909509168229
0.021930898382135,15.6929939536251
0.0213146061970883,15.6947122569599
0.020334847996578,15.6964305602947
0.0192410167055105,15.6979499611667
0.0180344358895107,15.6994313938898
0.0167201729613279,15.7009397967094
0.0153075437206644,15.7025137308634
0.0144740458247777,15.7034392682683
0.013660847876644,15.7043648056731
0.011517395085359,15.7070221451834
0.00955418609081258,15.7098207394237
0.00797235701076817,15.7124338377132
0.00665732368863463,15.7149461168775
0.00550421371243098,15.7174986378636
0.00456028304869127,15.7199189724816
0.00378505541539159,15.7222057259737
0.00313938088924563,15.724380963798
0.00259299494249737,15.7264695710402
0.00212197615020603,15.728501510695
0.00170611999333529,15.7305185250901
0.00132551821377162,15.7325920646384
0.000950077113178365,15.7349016802873
0.000658392014417848,15.7369183840243
0.000395786184238801,15.7389350877613
0.000196952508542424,15.7406106760043
3.37481210495393e-05,15.7420954033171
-0.000113798177841716,15.7435323625989
-0.000256021051066336,15.7450111505454
-0.000402297852731552,15.746637049585
-0.00056910311585561,15.7486332223306
-0.000857591722645361,15.7524827249879
-0.001119838124329,15.7564720134851
-0.00134199979532178,15.7602529921442
-0.00156882114372354,15.7645139777487
-0.0018525299391298,15.7704268112737
-0.00208528103405948,15.7758948947619
-0.00226425879050889,15.7808482862347
-0.00238383344628626,15.7853280972631
-0.00243484872329851,15.7893600468285
-0.00240939955604114,15.7929666430661
-0.00230244526109656,15.7962053487044
-0.00211014589307545,15.7991391338556
-0.00182780966756156,15.8018349141174
-0.00144548933157949,15.8043729485009
-0.000939799525626449,15.8068590712273
-0.000247938058782477,15.8094839026434
0.000670543894681807,15.8122854707647
0.00149802970571888,15.8144714860762
0.00239351249778855,15.8166575013876
0.00331724553343425,15.8188155519731
0.00447919435405668,15.8214525485883
0.00538616391814603,15.8234455957431
0.00633800300310741,15.8254386428979
0.00731065199517338,15.8273295704796
0.00832107544444166,15.8291123694983
0.0094116590545642,15.8308266141016
0.0106283289489551,15.8325054658592
0.011987097921209,15.8341336078326
0.0135267250906478,15.8357247261028
0.0152510431214502,15.8372554170963
0.0171939215892066,15.8387345418767
0.0193775457544585,15.8401593132792
0.0218254022198228,15.8415285426881
0.024559136090066,15.8428405013664
0.0276168623220821,15.8441007533532
0.0310375573338003,15.8453125516842
0.034866135031507,15.846479230873
0.0391546402894119,15.8476041675409
0.0439647115634111,15.8486909858918
0.0493690250942353,15.849743355145
0.0554532707055373,15.8507649164728
0.0623196920757173,15.851759408604
0.070091317070292,15.8527307185894
0.078918641037062,15.8536830589708
0.0889877740576007,15.8546210382242
0.100533280574328,15.8555498959891
0.11385741189477,15.8564758200923
0.1293607048179,15.8574064543781
0.147594480103056,15.8583518072725
0.169315306991024,15.8593241792596
0.194450596173152,15.8602984427265
0.223643801919064,15.861284283224
0.257751003175908,15.8622954423122
0.298029469929304,15.8633546062132
0.345584617401719,15.864483343863
0.387177679778366,15.8654109454955
0.421505646711733,15.8661669031019
0.451192238982326,15.8668404999123
0.477148189932922,15.867474395843
0.499478956368861,15.868094511012
0.517833176734456,15.8687233198203
0.531346360615553,15.8693873979144
0.538177122020735,15.8701298133883
0.534992245188646,15.870926282602
0.520094502795615,15.8717475573793
0.492036486141362,15.8726103543895
0.448919837703876,15.8735268077176
0.388649190312012,15.8745050989031
0.343290143097495,15.8751283213903
0.293436011965132,15.8757515438774
0.24918625425937,15.8762740474684
0.211311658497844,15.8767118088531
0.178067896335255,15.8770976841416
0.148310239549749,15.8774514263898
0.121347320068734,15.8777852124502
0.0967041256044363,15.8781078811729
0.0739929420974867,15.8784273342229
0.0528077809484211,15.8787529258035
0.0325062510811578,15.8791011715546
0.0109278692233265,15.879530126908
0.00115354246198819,15.8797537409838
-0.00765540732406281,15.8799773550596
-0.0141999345923134,15.8801609674798
-0.020209575919786,15.8803463124607
-0.0262422671861076,15.88055287363
-0.0320551695549393,15.8807771953101
-0.03749346767997,15.8810171904414
-0.0424714428477729,15.8812721443273
-0.0469447336385461,15.8815422561119
-0.0508939105176342,15.8818283839317
-0.0543101545238038,15.8821319243031
-0.0572701638114053,15.8824651623868
-0.0595888665309574,15.8828075306315
-0.0614039357923215,15.8831742705847
-0.0627311758565316,15.8835692046839
-0.0635844692513288,15.8839968716203
-0.063975427882039,15.8844629394367
-0.0639116925026885,15.8849745999327
-0.0633946527926136,15.8855412600624
-0.0624136516788687,15.8861768814737
-0.0609422752028067,15.8868997535662
-0.0589265803260135,15.8877377584272
-0.0562533400858632,15.8887396284866
-0.0526260783809392,15.8900187689746
-0.0485551159950369,15.891417140963
-0.0446168896163226,15.8927703218078
-0.0408602170659732,15.8940829104101
-0.0373090066309303,15.895357127947
-0.0339755323905925,15.8965937674481
-0.0308652016185185,15.8977929007423
-0.0279787140210118,15.8989542548349
-0.0253132416269885,15.9000774100332
-0.0228632129950404,15.9011619018929
-0.0206209245907141,15.9022072689529
-0.0185770644902993,15.9032130681323
-0.0167211782856481,15.9041788695741
-0.0150420853677891,15.9051042374269
-0.0134731076043409,15.9060219424631
-0.0119633795145089,15.9069631263285
-0.0105174647018382,15.907929328961
-0.00913931490705005,15.9089226498293
-0.0078326901552347,15.9099455514407
-0.00660110598881032,15.9110009512388
-0.00544778210356125,15.9120923398907
-0.00437558886736974,15.913223940486
-0.00338699173614007,15.9144009277661
-0.00248399320500338,15.9156297382903
-0.0016680713318689,15.9169185235629
-0.000940112831977394,15.918277838128
-0.000300336812288475,15.9197217354726
0.000251798711009135,15.9212696219954
0.000705497921758733,15.9228983801278
0.00105934423412701,15.9245738601408
0.0013295444479085,15.9263143610215
0.00153055539563417,15.928141136535
0.00167591914963424,15.9300825974861
0.00177865919450271,15.9321790436654
0.00185186519614272,15.9344925551152
0.00190979979774176,15.937131243718
0.0019710034169924,15.9403286721223
0.00205332879381588,15.9440660612771
0.00216490824238553,15.9480599234679
0.00230961256738948,15.952319061612
0.00248969255469639,15.9569778057988
0.00269505958800685,15.9619007437183
0.00290675798825608,15.966785550774
0.00311190198829972,15.9714252109578
0.00329303958118089,15.9754583368244
0.00346606696231144,15.9792512383633
0.00363809795759711,15.9829501738135
0.00381338003738151,15.986630727101
0.00399518932159041,15.9903426974117
0.00418645910476978,15.9941241587591
0.004390068809123,15.9980072235508
0.00460905650822289,16.0020216160842
0.0048467721495847,16.0061965545865
0.00510703680813737,16.010562117517
0.00539435413438563,16.0151503974296
0.00571426284592977,16.0199968503328
0.00607392900792074,16.0251416488693
0.00646061510912482,16.0303353769191
0.00686698238019112,16.035437963851
0.00729813611594123,16.0404757059368
0.00775684278779247,16.0454347407315
0.00824830318485976,16.0503222678947
0.00877824243398534,16.0551426054808
0.00935317207832307,16.0598997774106
0.00998020459978261,16.0645953280698
0.010668499788591,16.0692376797798
0.0114430731476754,16.073916843022
0.0123185129752399,16.0786234949571
0.0133175843224767,16.0833754712295
0.0144722878126188,16.088207218799
0.0158360082879766,16.0932018269609
0.0175242279811107,16.0985859182102
0.019939480226102,16.1052488872577
0.0215468565059812,16.1092674577707
0.0232143679602796,16.1132860282836
0.0246667992478741,16.1168265267396
0.0258899728459734,16.1200148276802
0.0269085505373883,16.123047573323
0.0276910897352205,16.1259676182283
0.0282084998381946,16.1287824360663
0.0284555690422896,16.1316146742416
0.0283943426082677,16.1346328934132
0.0278847171322595,16.1382454448793
0.0270784397289484,16.1414257918616
0.0259941136648707,16.144606138844
0.0249119092583416,16.1472869903424
0.0238428772493154,16.1496969584222
0.0227749452022853,16.151973845514
0.0217074678333229,16.1541783083457
0.0206433515780204,16.1563432021441
0.0195862017897725,16.1584896859092
0.018539598511724,16.1606329234293
0.0175069027372368,16.1627846139593
0.0164912039084488,16.1649543211677
0.0154953160992316,16.1671502416482
0.0145217831216232,16.1693797012164
0.0135728911669501,16.1716494867269
0.012650680809647,16.1739660886967
0.0117569538518392,16.1763359016443
0.0108932856396078,16.1787653785737
0.0100610355338905,16.1812611708564
0.00926135144809204,16.1838302793102
0.0084879167390618,16.1865063128131
0.00772699116895958,16.1893608263609
0.0069823525490389,16.192414277615
0.00625778189610148,16.1956911259125
0.00555727723918357,16.1992196569271
0.0048850203823156,16.2030327016
0.00424531005896103,16.2071686003581
0.00364245166351006,16.2116725943013
0.00308057965018768,16.216599152262
0.00256341093750996,16.2220161513485
0.00209398240361636,16.2280122380779
0.001674580976438,16.2347073004933
0.00132091476630015,16.2419383704315
0.00102874503658563,16.2497708124917
0.000827778672196858,16.2573850895915
0.000681221612329419,16.2652627676867
0.00055586061632826,16.2748836401634
0.00047268750587867,16.2846922273559
0.000422205067867663,16.2946922273559
0.000398250139620809,16.3046922273559
0.000395234741307778,16.3146922273559
0.000409665097501515,16.3246922273559
0.000439923893329608,16.3346922273559
0.000486180008191348,16.3446922273559
0.000546706118502819,16.354172034121
0.000619740967375094,16.3628864465
0.000705499798253044,16.3708912290879
0.000804906034364405,16.3782481491111
0.000919345154254362,16.3850137941175
0.00105057433259188,16.3912398160464
0.00120069532937024,16.3969735002525
0.0013721593685094,16.402258240335
0.00156779235692555,16.4071339330161
0.00179083386202822,16.4116373307073
0.00204499306986639,16.4158023652092
0.00233452014905924,16.419660447454
0.0026643007987539,16.4232407502589
0.00303997954137866,16.4265704969021
0.00346812610974262,16.4296752711748
0.00395646642631767,16.4325793637223
0.00451421271123056,16.435306193599
0.00515256080725787,16.4378788728162
0.00587442376773996,16.44028740835
0.00667760302825309,16.4425225170376
0.0075767569254293,16.4446276642329
0.00859594744708543,16.4466511796809
0.00977982203672454,16.4486581471944
0.0112368252448685,16.4507770380509
0.013422149204464,16.4534934916418
0.014788921772452,16.4550234051355
0.0162156813423389,16.4565533186291
0.0175101171799475,16.4579332928674
0.0186635912779343,16.4592068386113
0.0196886904627496,16.4604326648502
0.0205788087241689,16.461653522518
0.0213124399946639,16.46291181785
0.0218489350985256,16.4642668993454
0.0221036229623357,16.4658408200728
0.021750834048257,16.4681672739201
0.0210413432668629,16.4697896681779
0.0200336083059086,16.4714120624357
0.0189090920744962,16.4729087675378
0.0176711182453423,16.4743931097521
0.0163280142842066,16.4759165775251
0.0148888572606998,16.4775156709232
0.014343163013006,16.4781226829314
0.0138095147834883,16.4787296949396
0.0116750983925968,16.4813512905476
0.00968112289883906,16.4841636775402
0.00807457483623345,16.486790028751
0.00674655250787116,16.4893007517859
0.00558275166051875,16.4918491894238
0.00462446332576493,16.4942799973271
0.00383808314721877,16.496576035268
0.0031838508253209,16.498758802434
0.00263092432179369,16.500852928456
0.0021549856268152,16.5028878796915
0.00173565292456648,16.5049041160079
0.00135321914749439,16.506969399628
0.000979242412513412,16.5092479761644
0.000676464819996492,16.5113233175258
0.000404770215769436,16.5133986588872
0.000203267035464359,16.5150911850711
3.91755530914924e-05,16.5165800111905
-0.000108739637524933,16.5180169933171
-0.000251007107498369,16.5194926060483
-0.000396935896035882,16.5211104253052
-0.00056244073659389,16.523084999862
-0.000835756280090454,16.5267064635025
-0.00107591520096743,16.530302814499
-0.00126644215880896,16.5334577078947
-0.00145135289045319,16.5367891148958
-0.00167019763825624,16.5410844971319
-0.00193497944651081,16.5468174648453
-0.00215042943084484,16.5521094923855
-0.00231093130612361,16.5569020041744
-0.00240925226419118,16.5612370096322
-0.00243591469052039,16.5651249822441
-0.00238417845664279,16.5686045350825
-0.00224960331337048,16.571736026257
-0.00202835506924046,16.5745840717858
-0.00171449209138624,16.5772197539991
-0.00129557887376178,16.5797250364352
-0.000741102332027695,16.582220299977
1.54665499563634e-05,16.5848842436363
0.00102883528426488,16.5877979505533
0.00202405181453372,16.590309741563
0.0029254297153402,16.5924467892654
0.00394683127083864,16.5947930087654
0.00493451724468941,16.5970011343243
0.00596331809495078,16.5992092598832
0.00693195007124794,16.6011545090603
0.00792084199342329,16.6029715347886
0.00897586699133864,16.6047098819195
0.010132167001895,16.6063913766399
0.0114352241637574,16.6080434134568
0.0128955731291171,16.6096438290359
0.0145469831248623,16.611200597775
0.0164090768336196,16.6127062512592
0.0184931684291753,16.6141504644984
0.0208313703527138,16.6155394829199
0.0234500478403108,16.6168737824991
0.0263798758659819,16.6181552562546
0.0296535735250269,16.6193855266518
0.0333165848554696,16.6205693273781
0.0374184155276948,16.6217101450199
0.0420168648023825,16.6228115139451
0.0471794136053533,16.6238769318181
0.0529864659226306,16.6249100893981
0.0595334435312102,16.6259147021764
0.0669347467230473,16.6268946027497
0.0753292331391073,16.6278538546479
0.0848875969729917,16.6287968641388
0.0958237248860513,16.6297286096168
0.108410522794298,16.630654861092
0.123005423170192,16.6315826167196
0.140092352030154,16.6325208102998
0.160357483300493,16.6334816446285
0.184075043763451,16.634454132391
0.211576452954541,16.6354340238814
0.24362093379906,16.6364331445818
0.281268135131494,16.6374695977652
0.326278812971908,16.6385784120497
0.361713110922544,16.6393885397176
0.398390340945633,16.6401986673856
0.430966581551579,16.6409194991603
0.459466655833489,16.6415775486427
0.484331814580849,16.642204824843
0.505510344251011,16.6428251650379
0.52251418720761,16.6434614726872
0.534260879221877,16.6441434594799
0.538365992551326,16.6449248250972
0.531554142388895,16.6457272037344
0.512622667312562,16.6465601621714
0.479963316606088,16.64743907007
0.431580312670019,16.6483744893647
0.382313310103014,16.6491380612623
0.325208280655303,16.64990163316
0.285536441801542,16.6503878515404
0.244142768670593,16.6508740699208
0.207088310039375,16.6513020492367
0.174324718772811,16.651683076047
0.144934179960487,16.6520338618222
0.11827239386211,16.6523658813134
0.0938810729969177,16.6526877428017
0.0713763760955646,16.6530073757357
0.0503403541720316,16.6533345569794
0.0300665694623409,16.6536876173078
0.00779632024561795,16.6541408042521
-0.000657215718156582,16.6543392561496
-0.00835707168125863,16.654537708047
-0.0147633382177932,16.6547190584304
-0.0207880759035819,16.6549066039973
-0.0268091943950497,16.6551150008259
-0.0325916910722354,16.6553408816819
-0.0379889588028407,16.6555823173429
-0.042920212801352,16.6558386966394
-0.0473440421749395,16.6561102899542
-0.0512428157427979,16.6563980104236
-0.0546076845539763,16.6567033029203
-0.0574762278411194,16.6570334250071
-0.0597534050464777,16.6573775898865
-0.0615286059428232,16.6577464553819
-0.0628171465319029,16.6581438464198
-0.0636327809239651,16.6585743811382
-0.0639868682713183,16.6590438336743
-0.0638866432302545,16.6595595415715
-0.0633327315509218,16.6601312325086
-0.0623134039212617,16.6607731249346
-0.0608006055610891,16.6615040781948
-0.058737237544198,16.662353079885
-0.0560023572559014,16.6633715834077
-0.052268784720731,16.6646838288215
-0.0482066873466715,16.6660778369817
-0.0442828011312504,16.6674273380598
-0.0405432284462793,16.6687365298151
-0.0370105506075955,16.6700074646615
-0.0336963110366605,16.6712408503273
-0.0306054422348197,16.6724367167338
-0.027738298494743,16.6735947718403
-0.0250917857514723,16.6747145888626
-0.0226601246892986,16.6757957022002
-0.0204354522594609,16.6768376516682
-0.0184083395855262,16.6778399957292
-0.0165682533807573,16.6788023049069
-0.0149039680358123,16.6797241415373
-0.0133399017892019,16.6806438363446
-0.0118355323240923,16.6815871066657
-0.010395323830244,16.6825555648449
-0.0090232137473792,16.6835513385089
-0.00772294295121569,16.68457692559
-0.00649800348519432,16.6856352879049
-0.00535158700573603,16.6867299724191
-0.00428653112861821,16.6878652747516
-0.00330526365221857,16.6890464648217
-0.0024097442614317,16.6902801069097
-0.00160140268217111,16.6915745286723
-0.000881071161699181,16.6929405360173
-0.000248907107739868,16.6943925569634
0.000295711390228448,16.6959505883508
0.000740060354913378,16.6975826625778
0.00108607063215291,16.6992630560128
0.00134972836957352,16.7010100966417
0.00154539875820455,16.7028455394076
0.00168656142196458,16.7047985895351
0.00178621842021612,16.7069109285185
0.00185750460015635,16.7092473201465
0.00191487633161139,16.7119221086
0.00197759288832532,16.715189128743
0.00206165477627944,16.7189323582282
0.00217659471232373,16.7229674250316
0.0023239639624261,16.727245734028
0.00250800256600725,16.7319659529197
0.00271377714629462,16.736875757181
0.00292627509565203,16.7417687342284
0.00312805292357144,16.7463254663308
0.0033080567843171,16.7503287787688
0.0034807827589532,16.7541097181078
0.00365293971308674,16.7578047278439
0.00382864912067,16.7614862211734
0.00401114197319111,16.7652026713543
0.00420333731461856,16.7689914729702
0.00440812039095726,16.7728844231614
0.00462855016256998,16.7769111489468
0.00486800978798426,16.7811008922615
0.00513036860888776,16.785483857787
0.00542020124328918,16.790092362256
0.00574315682580843,16.7949622134342
0.00610657566239764,16.8001340215095
0.00649435207658763,16.8053130765442
0.00690291084689557,16.8104128434203
0.00733619995141091,16.815443141262
0.00779751515714918,16.8203960577878
0.00829202142237665,16.8252776080151
0.00882554229215056,16.8300924417613
0.00940463429092079,16.8348443146276
0.0100364671106062,16.8395346059834
0.0107316208145299,16.844180159354
0.0115141332583977,16.8488612785616
0.0123992269819746,16.8535710625703
0.0134102257031615,16.8583281083513
0.0145803458153805,16.8631695400747
0.0159659108976463,16.8681852367283
0.0176926526096451,16.8736256269501
0.0201101245538648,16.8802280809639
0.0216958239072168,16.8841709540195
0.0233337210424397,16.888113827075
0.0247657235081075,16.8916152154178
0.0259731485442802,16.8947859463713
0.0269764241800277,16.8978130051007
0.0277388830362195,16.9007210688502
0.0282365542481041,16.9035326848414
0.0284624988130064,16.9063719210507
0.0283749815871297,16.9094144600669
0.0278164928673361,16.9131132845425
0.0270005788806247,16.9162231487503
0.0259235587856009,16.919333012958
0.0248443605408943,16.9219859247189
0.0237757143461274,16.9243843748059
0.0227077729224337,16.9266553350773
0.0216404073096932,16.9288565083667
0.0205766213358807,16.931019702688
0.0195200313911941,16.9331655814959
0.0184742068148254,16.9353090344838
0.0174424924513683,16.9374615949581
0.0164279602288822,16.9396327219456
0.0154334068769124,16.9418305449877
0.0144613598949125,16.944062346792
0.0135140893211254,16.9463348899467
0.0125936207745485,16.9486546528329
0.0117017416191474,16.9510280288792
0.0108400126762401,16.9534614813006
0.0100097805060452,16.9559616772573
0.00921217978584174,16.9585356449457
0.00843943000640936,16.9612224072634
0.00767942765499147,16.9640888390921
0.00693594431248825,16.9671556549035
0.00621277591607709,16.9704475350667
0.00551393316644909,16.9739930303482
0.00484360747412662,16.9778252893427
0.0042061020265431,16.9819830405654
0.00360571768123024,16.9865120245893
0.00304657044806591,16.991467407739
0.00253234080763675,16.9969181309129
0.00206601776867386,17.0029544760741
0.00164984624622942,17.0096987049885
0.00130033492319986,17.0169655775202
0.0010119208319242,17.0248410051892
0.00083854014672603,17.0314687184752
0.000677672852572197,17.0400348606616
0.000555884625714192,17.0494417270862
0.000471784297952512,17.0593875501231
0.000421775646172405,17.0693875501231
0.000398209235364988,17.0793875501231
0.000395521626025586,17.0893875501231
0.000410246835798958,17.0993875501231
0.000440798488497913,17.1093875501231
0.000487378713804031,17.1193875501231
0.000548162066327536,17.1288516188825
0.000621454400019231,17.1375510268062
0.000707488298877429,17.1455420814446
0.00080719743706547,17.1528864589022
0.000921975168634726,17.1596406447793
0.00105358577563702,17.165856200649
0.00120413814930206,17.1715803316136
0.00137609111935514,17.1768563592911
0.00157227898883548,17.1817241156085
0.0017959508007,17.186220294753
0.00205082663765209,17.1903787764635
0.00234116940942505,17.1942309253565
0.00267187989951557,17.1978058736676
0.00304862090595758,17.201130810223
0.00347798472410354,17.2042312912123
0.00396772589481097,17.2071315877564
0.00452709416897212,17.2098551099195
0.00516733663074424,17.2124249756736
0.00589085113210746,17.2148295674931
0.00669594043090119,17.2170616536098
0.00759742050389123,17.2191647724157
0.00861964636873494,17.2211874537987
0.00980800625364994,17.2231954794698
0.0112737338349414,17.2253202324521
0.0130096978553813,17.2275048746132
0.0144220954248617,17.2291149954166
0.0159124090421066,17.2307251162199
0.0172445709580629,17.2321426464706
0.0184262674009459,17.2334334751776
0.0194785195009597,17.2346657363874
0.0203985017808623,17.2358844361986
0.0211678793236681,17.2371308438025
0.0217510695975032,17.2384586257792
0.0220774051553817,17.2399683785913
0.0219306922980085,17.2420028744254
0.0213174477234121,17.2437263427209
0.0203377960265357,17.2454498110164
0.0192447419503451,17.2469704521286
0.0180391758482246,17.248452041973
0.0167259251913355,17.2499601936928
0.0153142889409511,17.2515335695338
0.0144811237431621,17.2524589029536
0.0136678404193033,17.2533842363734
0.0115249390169188,17.2560398028025
0.00956028824758206,17.2588390812894
0.00797727762293633,17.2614528437698
0.00666160675210973,17.2639650788394
0.00550796112899907,17.2665174341299
0.00456341930738542,17.2689380200505
0.00378769134244441,17.2712250121384
0.00314161198680077,17.2734004456525
0.00259489537275325,17.2754892024915
0.00212359488961707,17.2775212794548
0.00170751643306866,17.2795383023427
0.00132673034356648,17.2816117336851
0.00095116290117505,17.2839208434217
0.000659180443657333,17.2859385003373
0.00039631936247667,17.2879561572529
0.000197356546500632,17.28963204523
3.40670014919459e-05,17.2911168571387
-0.000113549418849449,17.2925538293936
-0.000255835351027247,17.2940325768186
-0.000402170874565992,17.2956583500546
-0.000569028522129278,17.29765416483
-0.000857364147533429,17.3014993913984
-0.00111918561637993,17.3054790479088
-0.00134035096758918,17.309238632393
-0.00156526997873342,17.3134562109707
-0.00184980595102056,17.3193737159304
-0.0020833833975786,17.3248485918351
-0.00226319339590722,17.3298082921251
-0.00238367260965154,17.3342938083079
-0.00243568814020085,17.3383317788946
-0.00241127745343884,17.3419437656389
-0.00230538572539996,17.3451868808212
-0.00211416464727624,17.348124404438
-0.00183298084137113,17.350822850229
-0.00145200096897382,17.353362358669
-0.000948132314648961,17.3558481743153
-0.000259502843918814,17.358468881749
0.000655309194327322,17.3612665638252
0.00148256179243332,17.3634558525898
0.00237849986742119,17.3656451413544
0.00330072040110638,17.3678008358127
0.00445406043153642,17.370419919572
0.00536328396843152,17.3724199893594
0.00631699672326213,17.3744200591468
0.00728843850050367,17.3763125178312
0.00829843999358081,17.3780990416908
0.0093864958068914,17.3798141456978
0.0106000020061534,17.3814938468909
0.011955249407621,17.3831231404647
0.0134908154058761,17.3847154756806
0.0152102726918055,17.3862471456112
0.0171482158403535,17.3877276672445
0.0193264279934302,17.3891538594848
0.0217682948985838,17.3905244701178
0.0244950470226289,17.3918375860819
0.0275450913460644,17.3930989837373
0.0309571702986329,17.3943118546419
0.0347760372705037,17.3954795271396
0.0390534924247282,17.3966053607049
0.0438510513028133,17.3976930059827
0.0492410859389695,17.3987461213127
0.0553089541891013,17.3997683461069
0.0621564851949664,17.4007634163216
0.0699061727777922,17.4017352136831
0.0787078274383439,17.4026879441961
0.0887466370173246,17.4036262049509
0.100255903577261,17.4045552188265
0.113536081163662,17.4054811478004
0.128985067738721,17.4064115969479
0.14715000566634,17.4073565084555
0.168801647129683,17.4083289492446
0.193855285541438,17.4093030994779
0.222950745819312,17.4102885812431
0.256938248782766,17.4112990197039
0.297062228226952,17.4123567980923
0.344503353439434,17.41348505148
0.386299034470446,17.4144180290697
0.420756451986745,17.4151767273375
0.450534983734178,17.4158516662953
0.476573532814682,17.4164861818713
0.498989998816193,17.4171063835304
0.517443117908972,17.4177347384502
0.53108331131457,17.4183976267573
0.538103633397132,17.4191374601553
0.535182011253032,17.4199335831664
0.520575623860705,17.4207540731805
0.49284932508974,17.4216157345364
0.450113304739044,17.4225308168104
0.390273894503462,17.4235075308553
0.344761445199681,17.424135284655
0.294655000192965,17.4247630384546
0.250198870220055,17.425288497349
0.21218701050055,17.4257279391097
0.178845270217199,17.4261148229679
0.149011313853548,17.4264691972335
0.121985852844668,17.4268033657785
0.0972903630666543,17.4271262174648
0.0745361805140959,17.4274456520671
0.0533194636990061,17.4277709453289
0.0330095340485521,17.4281182791471
0.0115437183952974,17.4285430626274
0.00144204685413704,17.4287731154835
-0.0058978666526906,17.4289570963968
-0.0126092302107941,17.4291410773101
-0.0185452171955017,17.4293194856236
-0.0245969439065295,17.4295205316649
-0.0304893651985552,17.4297402559834
-0.0360413618876485,17.4299760671916
-0.0411515399678898,17.4302269273973
-0.0457662025343094,17.4304928175274
-0.0498602493202579,17.4307744311575
-0.0534245425641262,17.431073023566
-0.0566646156258492,17.4314160380425
-0.0591019736202533,17.4317534322234
-0.0610307384706444,17.4321142673867
-0.0624683311760268,17.43250238602
-0.0634289476388787,17.4329221105569
-0.0639248580539984,17.4333788213098
-0.0639647812005297,17.4338793171856
-0.0635518452733598,17.4344323671387
-0.0626786167763123,17.4350508437215
-0.0613228904180321,17.4357517499504
-0.0594387163924587,17.4365601747366
-0.0569315338609377,17.4375182724344
-0.0535720192370718,17.4387157493323
-0.0494794910560332,17.4401265957594
-0.0455049841272996,17.4414896602724
-0.0417039560363302,17.4428112889563
-0.0381042065856591,17.4440941994585
-0.0347200988071978,17.4453394336545
-0.0315583672165609,17.4465471862698
-0.0286206645893547,17.4477172409341
-0.0259048934176688,17.4488491998477
-0.0234060531751525,17.4499426030116
-0.0211168806343163,17.4509969859294
-0.0190283897717441,17.4520119011072
-0.0171303497029727,17.4529869168896
-0.0154117121397438,17.4539216010695
-0.0138297854318538,17.4548340437688
-0.0123059045354446,17.455769716515
-0.010844902846965,17.4567299668712
-0.00945076853204314,17.4577168215584
-0.00812731101525314,17.4587326516256
-0.00687810677815859,17.4597802601669
-0.00570644851411031,17.4608629930829
-0.00461529212125743,17.4619848874466
-0.00360720162278248,17.4631508746634
-0.00268429174689678,17.464367065998
-0.00184816737210547,17.4656411664146
-0.00109985813456252,17.4669830969889
-0.000439744834050369,17.4684059744118
0.000132529030289901,17.4699277428326
0.000611630829095265,17.471548254589
0.00098677729509574,17.4732113185504
0.00127480663761883,17.4749352601345
0.00149042873329882,17.4767400903445
0.00164736508078034,17.4786522772392
0.00175871548480238,17.4807087867426
0.00183748521470643,17.4829653539929
0.00189751348732047,17.4855158520839
0.001955818554535,17.4885506348784
0.00203437873322137,17.4922844445246
0.00213791364908221,17.4961829970643
0.0022761240831344,17.5004037857997
0.00244718609102682,17.5049341381703
0.00265173886249925,17.5099006829892
0.00286179753388628,17.5147754858483
0.00307644129253805,17.5196483854693
0.00326054634270375,17.5237577350867
0.00343441034621612,17.5275805743269
0.00360626520397621,17.5312900305153
0.00378068379423179,17.5349697420297
0.00396105710452177,17.5386727519709
0.00415035767686114,17.5424387773085
0.00435145894992298,17.5463007363811
0.0045673565410887,17.5502886004524
0.00480133169539221,17.5544315702737
0.00505710488014577,17.5587594746023
0.00533903276788984,17.5633039455887
0.00565242613586871,17.5680996996683
0.0060040912867041,17.5731859617474
0.00638843687486624,17.5784110404766
0.00679011028006498,17.5835190257685
0.00721674936164469,17.5885728738862
0.0076699452474616,17.5935452089409
0.00815497256041977,17.59844579188
0.00867733638982719,17.6032781145716
0.00924344985659878,17.6080467666854
0.00986030347946087,17.6127536578249
0.0105355676629833,17.6173988033836
0.0112932608300919,17.6220722211916
0.0121485792807251,17.6267727476367
0.0131228274124263,17.6315146037118
0.014245708333568,17.6363274477899
0.0155650948809205,17.6412816536161
0.0171783967169505,17.6465619264048
0.0194060477428042,17.6528755315134
0.0210929079997715,17.6571738586511
0.0228671538259413,17.6614721857888
0.0243830606980351,17.6651418678956
0.0256514596257327,17.6683860508671
0.0267126427249795,17.6714388240036
0.0275513993648291,17.6743961815984
0.0281234191341405,17.6772235073902
0.0284280301538669,17.680040878225
0.0284364531099859,17.6830011501544
0.0280448116585524,17.6864215857987
0.0272630958322989,17.6898134895298
0.0261515603558058,17.6932053932608
0.025059334024961,17.6959601456935
0.0239889774258623,17.6983976533094
0.0229210394765489,17.7006882201698
0.021853355854983,17.7029002448446
0.0207885676221541,17.7050690971554
0.0197302466380296,17.7072170856842
0.0186819939270491,17.7093600017584
0.0176472046541831,17.7115099227948
0.0166290064551919,17.7136766493622
0.0156302509710647,17.7158685305844
0.0146535179673674,17.718092989504
0.0137011289125958,17.7203568688145
0.012775156490828,17.7226666892147
0.0118774343195597,17.7250288490593
0.0110095701047715,17.7274497793082
0.0101729497703394,17.7299361028243
0.00936875120176209,17.7324947599143
0.00859386495591874,17.7351476884834
0.00783097268533747,17.7379765432459
0.00708386589338453,17.7410012313367
0.00635629243674651,17.7442457415222
0.0056522232792793,17.74773778867
0.00497581801751197,17.7515095280895
0.00433136448319003,17.7555984739465
0.00372317547265366,17.7600488136342
0.00315542284611454,17.7649135514864
0.00263189921823246,17.7702583521486
0.00215574529456824,17.776168445582
0.00172934303086594,17.7827587320724
0.0013665888153353,17.7899137403391
0.00106621144617132,17.7976549064285
0.000833603851165815,17.8061090132963
0.00069329144619627,17.8135071109593
0.000566883692894383,17.8228793014952
0.000481417584623415,17.8324577438003
0.000427113291107653,17.8424577438003
0.000400198300816315,17.8524577438003
0.000394808962480321,17.8624577438003
0.000407209636206017,17.8724577438004
0.000435556689939309,17.8824577438004
0.000479797759822463,17.8924577438004
0.000538761551212531,17.902033006601
0.000610283237979876,17.910838280798
0.000694461354692251,17.9189260672417
0.000792150933697354,17.9263587204951
0.000904687332142854,17.933193475441
0.00103378466123932,17.9394825562586
0.00118150304579596,17.9452737553861
0.00135025039962745,17.9506109203456
0.0015428055581735,17.9555343561354
0.00176235556708706,17.9600811821087
0.00201254959926263,17.9642856586691
0.00229756808586328,17.9681794900891
0.00262221449633773,17.9717921081502
0.00299203413560699,17.9751509592028
0.00341347480262565,17.9782818110137
0.00389410842280307,17.9812090934907
0.00444294633220221,17.9839563083052
0.00507091180525126,17.9865465716328
0.00578375043315745,17.988979037544
0.00657656192474677,17.9912329687408
0.00746320260221435,17.9933515431758
0.00846627887353603,17.9953822208762
0.00962683659221977,17.9973868452628
0.011040315061776,17.9994805743428
0.0131272554766496,18.002121892405
0.0145126724180505,18.0036931950294
0.0159697460952235,18.0052644976538
0.0172931195701485,18.0066730020075
0.0184695372996877,18.0079604138165
0.0195168571566846,18.00919137595
0.0204314663765648,18.0104103448299
0.0211944611629211,18.0116587441143
0.0217693966918387,18.0129911638799
0.0220833489711642,18.0145115971838
0.0219054296240373,18.0165883158229
0.0212774162639412,18.0182897538791
0.0202966347992209,18.0199911919354
0.0192000381733527,18.0215069816586
0.0179901855273378,18.0229885788393
0.0166729164064489,18.024498594715
0.0152575867587309,18.0260752303512
0.0144061091602949,18.0270212487522
0.013578253938213,18.0279672671532
0.0114336155155515,18.0306398172011
0.00948697991888727,18.0334307456806
0.007918175435028,18.0360369031516
0.00660999157499361,18.0385501288693
0.00546251956292995,18.0411049290219
0.00452627962924793,18.0435193784571
0.00375699585391645,18.0458009430978
0.00311585498789032,18.047971999787
0.00257290613869413,18.0500575827231
0.00210443422018422,18.052087975663
0.00169032186191385,18.0541056916019
0.00131052923726522,18.0561843734205
0.000933854668507761,18.0585134845337
0.000648091055439942,18.060498475564
0.000390352282672403,18.0624834665942
0.0001930457111902,18.0641489958201
3.03390858575281e-05,18.0656311287474
-0.000117038119740067,18.0670681367867
-0.000259309041071789,18.0685491465033
-0.000405909376721565,18.0701806828386
-0.000573723960797895,18.0721920697079
-0.000862527077715356,18.076052827854
-0.00112305068583624,18.0800214493563
-0.00134313847163268,18.0837686531266
-0.00156757810041204,18.0879821884644
-0.00185162674756513,18.0938951712505
-0.00208478708597014,18.099365892006
-0.00226416449346563,18.1043217997797
-0.00238415232543429,18.1088038488076
-0.00243560754431524,18.1128382931346
-0.00241059533154831,18.1164473693606
-0.00230408177086355,18.1196877299273
-0.00211220209078843,18.12262328878
-0.00183032691527283,18.1253201496164
-0.00144858570485354,18.1278585598041
-0.000943770390652556,18.1303440450916
-0.000253568697103639,18.132966233056
0.000663247116320616,18.1357661131886
0.00149066236111745,18.1379537609984
0.00238638810442069,18.1401414088082
0.00330954795912034,18.1422987231234
0.00446715349970231,18.1449268268621
0.00537751361451947,18.1469282143828
0.00633275927605821,18.1489296019034
0.00730290602138692,18.1508169949284
0.00831532269611171,18.152604825308
0.00940474492145348,18.1543186635962
0.0106208167577836,18.1559982099789
0.0119786173881639,18.1576267155255
0.0135170276911092,18.159218102873
0.0152399643430922,18.1607490568773
0.0171815510285628,18.1622286421839
0.019363749257552,18.163653864697
0.021810012643224,18.1650235204118
0.0245417947293036,18.1663357982857
0.0275973998029401,18.167596379893
0.0310157104229786,18.1688084867061
0.0348415955121031,18.1699754516538
0.0391270162199689,18.1711006428412
0.0439336042197627,18.1721876992966
0.049333942371808,18.17324028454
0.0554136290564995,18.174262039279
0.0622747944079853,18.1752567015928
0.0700403188456778,18.1762281570373
0.0788605126784148,18.1771806167889
0.0889212347145107,18.1781186863839
0.100456707598081,18.1790476012319
0.113768696522931,18.1799735424947
0.129257035404835,18.1809041445068
0.147471933086013,18.1818493989004
0.169173637254847,18.1828218064571
0.194286394728564,18.1837960584992
0.22345269526424,18.1847818247021
0.257527069400168,18.1857928170641
0.297763393371518,18.1868516431583
0.345285859393266,18.1879802602807
0.38693108732514,18.1889093065126
0.421292661333029,18.1896660188466
0.451003146679706,18.1903399980911
0.476980580110956,18.1909740812726
0.499333700891084,18.1915942383259
0.517713859305537,18.1922229408244
0.531260624690422,18.1928867096568
0.538142099410798,18.1936284288747
0.535028130921749,18.1944248176273
0.520209171414294,18.1952458895701
0.492241203247223,18.1961083839552
0.449228330246991,18.1970244649321
0.389075848648849,18.1980023216674
0.343677452507024,18.1986267479916
0.293757747094388,18.1992511743157
0.249454200670213,18.1997744654414
0.211543823520543,18.2002126768497
0.178274521246013,18.200598823812
0.148496974039273,18.2009527374145
0.121517751539937,18.2012866281283
0.0968609342481094,18.2016093479915
0.0741385789208286,18.2019287979522
0.052945304016138,18.2022543107297
0.0326419463335986,18.2026023106262
0.0110951974572276,18.2030301193792
0.00123499352953927,18.2032554207036
-0.00764488994163933,18.203480722028
-0.0141937175882132,18.2036644410782
-0.0202032267464543,18.2038497712874
-0.0262359431295624,18.2040563187607
-0.0320490464637088,18.2042806295225
-0.037487648413505,18.2045206150657
-0.0424659851131357,18.2047755597094
-0.0469396681726142,18.2050456619338
-0.0508892515796992,18.2053317793743
-0.0543059073636424,18.2056353081162
-0.0572663870299032,18.2059685385988
-0.0595854809834687,18.2063108919806
-0.061400933206521,18.2066776144167
-0.0627285484099779,18.2070725277802
-0.0635822100705273,18.2075001699402
-0.0639735324217405,18.2079662078416
-0.0639101602287835,18.2084778317649
-0.063393490900839,18.2090444453796
-0.0624128786720459,18.2096800075987
-0.0609419271612679,18.210402801818
-0.0589267272903509,18.2112406984935
-0.0562541343315875,18.2122424016525
-0.0526279889541034,18.2135212062824
-0.0485569953141108,18.214919618139
-0.0446186852003593,18.2162728302853
-0.0408619022504444,18.2175854464748
-0.0373105676027405,18.218859689806
-0.0339769621015581,18.2200963543102
-0.0308664971885744,18.2212955123388
-0.0279798754638365,18.2224568911649
-0.0253142711076469,18.2235800712261
-0.0228641143217283,18.224664588136
-0.0206217028172281,18.2257099804561
-0.0185777255789672,18.2267158051155
-0.0167217288141364,18.2276816322684
-0.0150425322719066,18.228607026086
-0.0134735234998627,18.2295247166834
-0.0119637611499463,18.2304658853999
-0.0105178095642672,18.2314320716443
-0.00913962059400993,18.2324253746824
-0.00783295441060346,18.2334482567654
-0.00660132673502323,18.234503635016
-0.00544795747585668,18.235594999694
-0.00437571724977646,18.2367265733641
-0.00338707179937022,18.2379035300795
-0.00248402394694823,18.2391323054763
-0.00166805212181732,18.2404210497875
-0.00094004346087994,18.2417803157451
-0.000300217553407153,18.2432241541422
0.000251967022349844,18.2447719671417
0.000705733240116621,18.2464007015672
0.00105963476900492,18.2480761462388
0.00132988008901078,18.249816600018
0.00153092672138504,18.251643313078
0.00167631719190117,18.2535846905501
0.00177907511157255,18.2556810223939
0.00185228975002927,18.2579943696683
0.00191022222053042,18.2606328006152
0.00197140758412051,18.2638297389229
0.0020537118095831,18.2675670948806
0.00216525845593249,18.2715606678679
0.00230994966618305,18.2758200649778
0.00249004872688864,18.2804797449982
0.00269539650662589,18.2854024545267
0.00290709517925597,18.2902873751652
0.00311217841403502,18.2949256683332
0.00329329508407544,18.2989583164029
0.00346631544982313,18.3027510292878
0.00363834604907812,18.3064499039869
0.00381363213396397,18.3101304734088
0.00399544907782579,18.3138425156719
0.00418672997670932,18.3176240940863
0.00439035437837404,18.3215073161157
0.00460936070808455,18.3255219046506
0.00484709943362692,18.3296970784288
0.0051073923584613,18.3340629180678
0.00539474418297196,18.3386515198613
0.00571469526131296,18.3434983456444
0.00607441424855903,18.3486435753886
0.00646111148508713,18.3538370849862
0.00686750674928448,18.3589396392847
0.00729868710029309,18.3639772750091
0.00775742726505346,18.3689362238365
0.00824892738086281,18.3738236669897
0.0087789140183407,18.3786439280614
0.00935389930348208,18.3834010269689
0.00998099646982179,18.3880965056122
0.0106693845953367,18.3927389017122
0.0114440657950212,18.3974180920227
0.0123196369914014,18.402124786936
0.0133188707135742,18.4068768319573
0.0144737838165358,18.4117087096819
0.0158377999289593,18.4167035990283
0.0175265370321027,18.4220884304937
0.0199418237583538,18.4287505639533
0.0215488963915553,18.4327680672838
0.023215993793753,18.4367855706144
0.0246681467685618,18.4403255276234
0.0258911092489049,18.4435135866893
0.0269094832513473,18.4465462516343
0.0276917547104534,18.4494661323251
0.0282089024139651,18.452280903201
0.0284556919482406,18.4551132288034
0.028394120131954,18.458131758963
0.0278838703171784,18.4617453891181
0.0270774665605424,18.4649247836935
0.0259932443109739,18.4681041782688
0.0249110818341523,18.4707846621558
0.0238420552477644,18.473194482287
0.0227741230390759,18.4754712940541
0.0217066469234489,18.4776757152919
0.0206425346357674,18.4798405877307
0.0195853916828259,18.4819870640461
0.0185387979758268,18.4841303045503
0.017506114306747,18.4862820064031
0.0164904298966714,18.4884517319645
0.0154945586009459,18.4906476769997
0.01452104402576,18.4928771668055
0.0135721721580162,18.4951469879629
0.0126499833857135,18.4974636308697
0.0117562793289311,18.4998334900791
0.010892635149941,18.5022630187864
0.0100604100526236,18.5047588686254
0.00926075178408153,18.5073280408513
0.00848732598960725,18.5100042097249
0.007726412374793,18.5128588737063
0.00698178869030694,18.5159124936745
0.00625723615259219,18.5191895317743
0.00555675296340722,18.5227182770622
0.0048845210662365,18.526531564539
0.00424483927494088,18.5306677396061
0.00364201296053352,18.5351720497705
0.00308017639019387,18.5400989728144
0.00256304608508005,18.5455163994777
0.00209365839985441,18.5515129973237
0.00167429984302916,18.5582086852636
0.00132068931953373,18.56544020558
0.00102857089222346,18.5732731877057
0.000828239264597541,18.5808630942948
0.000681330247931738,18.5887557676462
0.0005560023154682,18.598372878594
0.000472791881526385,18.6081843316084
0.000422311075475198,18.6181843316084
0.000398363905815039,18.6281843316084
0.000395361850449251,18.6381843316084
0.00040981153913048,18.6481843316084
0.000440096966065866,18.6581843316084
0.000486389349836694,18.6681843316084
0.000546947276178853,18.677662064575
0.000620016997397258,18.6863744919619
0.000705815230787161,18.6943774516318
0.000805266339138914,18.7017327005797
0.000919756648244042,18.7084968144092
0.00105104421218874,18.7147214344061
0.00120123176411799,18.7204538364224
0.0013727716320911,18.7257374055021
0.00156849098910994,18.7306120306469
0.00179163086509914,18.7351144573306
0.00204590215337563,18.7392786111743
0.00233555703830834,18.7431358976633
0.00266548362417964,18.7467154849301
0.00304132936329061,18.7500445924238
0.00346966762442523,18.7531488011141
0.00395822896481378,18.7560524000741
0.00451623171188362,18.7587788084857
0.00515488009004847,18.7613511409813
0.00587700614844711,18.7637591474917
0.0066804919703623,18.7659938729751
0.00758002288467697,18.7680987988836
0.00859971153339172,18.7701222941324
0.00978433368856053,18.7721295696068
0.0112428166741991,18.7742496127704
0.0134315794537045,18.7769690867216
0.0147975480086489,18.7784976638304
0.0162230903411271,18.7800262409393
0.0175164089938046,18.7814053552966
0.0186689633574103,18.7826785242607
0.019693163284474,18.7839042691854
0.0205823002120238,18.7851252925467
0.0213147743397719,18.7863840455814
0.0218497782998537,18.7877400669363
0.0221021736404866,18.7893161480448
0.0217437468773364,18.7916477629869
0.0210319509584004,18.7932683190738
0.0200233208084137,18.7948888751608
0.0188979375888476,18.7963852054929
0.0176591441080522,18.7978697408587
0.0163153133488473,18.7993937108927
0.0148755059268636,18.8009935823453
0.0143236666713379,18.801607743988
0.0137843752547592,18.8022219056306
0.0116496269983073,18.8048479533884
0.00966076289220105,18.8076579365148
0.00805821185106635,18.810282137296
0.00673227065724852,18.8127931098487
0.00557017650907815,18.8153422042633
0.00461426780029967,18.8177711196835
0.00382971754208612,18.8200654939935
0.00317687140060821,18.8222469259937
0.00262498619631863,18.8243400945883
0.00214980862845368,18.8263745695555
0.00173098349735059,18.8283910558363
0.00134876463293365,18.8304579820241
0.000974393576052636,18.832742429482
0.000673712435356062,18.834806137877
0.000403724028391137,18.836869846272
0.00020265042438771,18.8385592321484
3.86620907153569e-05,18.840047375347
-0.000109236883534412,18.8414844072474
-0.000251543350675114,18.8429606432794
-0.000397580931137067,18.8445799605675
-0.000563366300285732,18.8465584141581
-0.000839226663389532,18.8502170154237
-0.0010821882104396,18.8538632239904
-0.00127566216251153,18.8570778449253
-0.00146365402581544,18.8604802568056
-0.00168833011484039,18.864916854668
-0.0019500261467111,18.8706235091675
-0.00216217120086586,18.8758827821506
-0.00231904852041421,18.8806453186354
-0.00241317135983072,18.8849532316257
-0.00243506261927931,18.8888131649591
-0.00237821288098888,18.8922696977777
-0.00223830625905271,18.8953809543741
-0.00201141721697667,18.8982136685268
-0.00169141206000402,18.9008384376507
-0.00126525685355872,18.9033383871225
-0.000700601316187962,18.9058380696363
6.87214680535709e-05,18.9085099115442
0.00110249235201677,18.9114507909135
0.00208397612337513,18.9139131629358
0.00298688830817947,18.916048279262
0.00402605730723877,18.9184310413863
0.00499302541251082,18.9205882584685
0.00600067780142413,18.9227454755506
0.00696766647166834,18.9246816254858
0.0079595339887474,18.9264972706031
0.0090174609275988,18.9282326326724
0.0101789142338527,18.9299132462925
0.0114870393641636,18.9315628778679
0.0129545174793802,18.9331621900922
0.0146125789780708,18.9347163296822
0.0164824246377469,18.9362196337814
0.0185751883672358,18.9376616399676
0.0209226745427536,18.9390483280339
0.0235516700665919,18.9403804095802
0.0264930486539275,18.9416598173914
0.0297802588468537,18.9428883797446
0.033458309370111,18.9440705422736
0.0375771275262477,18.9452098515073
0.0421948532390528,18.9463098446427
0.047379584185592,18.9473740619503
0.0532118662229837,18.948406120125
0.0597878857400948,18.9494097703368
0.0672228382653778,18.9503888528609
0.0756566038263336,18.9513474419809
0.0852612592159089,18.9522899631021
0.0962524912959361,18.953221414729
0.108905805235728,18.9541476053809
0.123582406449792,18.9550755901105
0.140772070842524,18.9560143967967
0.161170602841948,18.9569763872388
0.185016375046358,18.9579490027478
0.212670392068775,18.9589293934491
0.244900132409383,18.9599295451967
0.282781074466375,18.9609679200005
0.328117810953462,18.9620806451191
0.363387739031994,18.9628850980072
0.39983296744612,18.9636895508954
0.4322160584064,18.964406835725
0.460558564503177,18.9650630652631
0.485273505056894,18.9656896302356
0.506290356120011,18.9663101819544
0.523101548655377,18.966947733234
0.534590956748254,18.9676325192252
0.538283519039902,18.9684200567566
0.530946962338261,18.969223438968
0.511428758601868,18.9700582004484
0.478098821011418,18.9709394944762
0.428950369099803,18.9718776654663
0.379894906471805,18.972631393932
0.323256433107967,18.9733851223977
0.283753278164422,18.9738680681145
0.242589574924626,18.9743510138313
0.205732317144675,18.9747766677749
0.173117436295141,18.9751562334814
0.143844440575441,18.9755061009267
0.117279532352735,18.9758375763059
0.0929692726915439,18.9761592026578
0.0705307814761659,18.9764789255653
0.04954161905532,18.9768066755125
0.0292715946169972,18.9771614526322
0.00670897533025723,18.9776243609149
-0.00138165003479944,18.9778161613932
-0.00877093452449104,18.9780079618714
-0.0151117104082205,18.9781884455642
-0.0211443991201057,18.9783773356629
-0.0271571769925345,18.9785868489948
-0.0329202131816761,18.9788136851913
-0.0382917733334187,18.9790560092537
-0.0431939926028575,18.9793132717331
-0.0475872092338838,18.979585785841
-0.0514548594729998,18.979874498116
-0.0547880317820415,18.9801808830961
-0.0576015852971365,18.9805091619536
-0.0598530437517356,18.9808544567236
-0.0616035361671569,18.9812246566901
-0.0628680940280854,18.9816235907112
-0.0636603867005694,18.9820559270744
-0.0639916107459472,18.9825275069886
-0.0638687416673343,18.9830457603612
-0.0632919141249568,18.9836206180707
-0.0622487213981016,18.9842664638016
-0.060710053045483,18.9850025236921
-0.0586167566689845,18.9858585052369
-0.0558427603299788,18.9868876715868
-0.052039442800498,18.9882218300805
-0.0479832419059984,18.9896131294595
-0.0440687435912991,18.9909602826131
-0.0403402531543827,18.992267297162
-0.0368195370877837,18.9935361228685
-0.033517685342395,18.9947674152697
-0.0304393327975256,18.9959611787328
-0.0275846159176693,18.9971171097057
-0.0249502724397178,18.9982347772236
-0.0225303916983309,18.9993137151187
-0.0203170100698413,19.0003534640808
-0.0183006252651721,19.0013535835406
-0.0164706548928899,19.0023136441866
-0.0148158458279653,19.0032332070679
-0.0132549368120539,19.0041541818196
-0.0117540097327038,19.0050987950291
-0.0103174655768453,19.0060687055191
-0.0089492324352738,19.0070660592206
-0.00765303872166568,19.0080933771011
-0.00643236122467787,19.0091536498552
-0.0052903734309981,19.0102504611233
-0.00422989175772891,19.0113881538296
-0.00325331965089698,19.0125720600591
-0.00236258912684056,19.0138088276609
-0.00155909868095607,19.0151068997985
-0.00084364535735667,19.0164772476535
-0.000216346653162596,19.0179345463631
0.00032347094293013,19.0194991841577
0.000761880317146094,19.0211334497892
0.00110291544719928,19.0228170688607
0.00136242549071205,19.0245683993712
0.00155471792296249,19.026409528416
0.00169323386484832,19.0283701909889
0.00179096398030054,19.0304929959087
0.00186107659666579,19.0328445259454
0.00191816430649274,19.0355434211
0.00198200179318412,19.0388579955174
0.00206728842984254,19.0426063209848
0.00218450905569993,19.0466696533166
0.00233371423735945,19.0509628320004
0.00252066230597134,19.0557304756795
0.00272676536289349,19.0606325831421
0.00293990297412247,19.0655329117096
0.00313945689077126,19.0700342833527
0.00331869787263088,19.0740169164696
0.0034912357883713,19.0777895107534
0.0036635086781259,19.0814819104898
0.00383955155526446,19.0851643254493
0.00402256437448767,19.0888842896139
0.00421545702646444,19.0926787159666
0.00442112013882456,19.0965791832864
0.00464262867380763,19.1006152520022
0.00488339093484464,19.1048161878013
0.00514731266402658,19.1092122946866
0.00543902224165873,19.1138360630799
0.00576425282852632,19.1187235702948
0.00613047752810455,19.1239157561569
0.00651903798985934,19.1290838783954
0.00692920589915662,19.1341815372388
0.007364065530924,19.1392063764516
0.00782730373769199,19.1441548317221
0.00832405739784346,19.1490320345334
0.00886022158844679,19.1538428660838
0.0094423851927494,19.1585908806726
0.010077759743055,19.1632773372395
0.0107779800270359,19.1679252378743
0.0115663630109553,19.1726078254081
0.0124586026678931,19.1773199678771
0.0134784507442075,19.1820808776716
0.0146600620634778,19.1869297586345
0.0160620967985784,19.191961848227
0.017818609012624,19.1974470561087
0.0202374888825078,19.2040054271182
0.021807931236156,19.2078954080311
0.0234248264104437,19.2117853889439
0.0248415543192185,19.2152583914083
0.0260368647869701,19.2184162635084
0.0270282206930829,19.2214394271301
0.0277750847154819,19.2243386732527
0.0282573414065926,19.2271482766055
0.0284666631413747,19.2299936047601
0.0283581550030015,19.2330565266398
0.0277584967651513,19.2368308837177
0.0269348337365624,19.2398873059995
0.0258628075790222,19.2429437282812
0.0247857422435137,19.2455744377985
0.0237173592257392,19.2479633710196
0.0226494092168273,19.2502293653333
0.0215821512643845,19.252427780621
0.0205186642719468,19.2545895634113
0.0194625721945748,19.25673496324
0.018417434647765,19.2588786390655
0.0173865822573958,19.2610319842229
0.0163730717955154,19.2632043691188
0.0153796849488293,19.2654038666177
0.0144089350908131,19.2676377230412
0.0134630783863337,19.2699126804031
0.0125441272815913,19.272235207688
0.0116538567140924,19.274611697722
0.0107938150838475,19.2770486226159
0.0099653376080762,19.2795526644137
0.00916954767217342,19.2821308750652
0.00839740124547755,19.2848269957372
0.00763820944735058,19.2877038249684
0.00689573842577983,19.2907823018339
0.00617379686441314,19.2940873005693
0.00547640636681122,19.2976476037306
0.00480776641987615,19.3014966382116
0.00417218366187574,19.3056734731926
0.00357395431007201,19.310224289859
0.00301717759632406,19.3152048713975
0.00250550138511203,19.3206851045941
0.00204187284684409,19.3267567218164
0.00162862016796095,19.333541872729
0.00128267166629851,19.3408399985803
0.00105593281224848,19.3469383604242
0.000882781278465334,19.3530367222681
0.00071111162324219,19.3614316321598
0.000585778710262227,19.3702271640703
0.000492067072244845,19.3799797142755
0.000433071513879813,19.3899797142755
0.000402587692164006,19.3999797142755
0.000394350707650762,19.4099797142755
0.000404316081218789,19.4199797142755
0.000430372900475579,19.4299797142755
0.000472212604378435,19.4399797142755
0.000529286856681933,19.4496712162306
0.00059898681494109,19.4585871584236
0.000681267507710186,19.4667760583416
0.000776898902420819,19.4743009852691
0.000887154838328285,19.4812199613394
0.00101369720408617,19.4875859058061
0.00115853591053467,19.4934472262916
0.00132402679618763,19.4988483203774
0.00151289213935272,19.503829987862
0.00172825603419024,19.5084297929293
0.00197369572333765,19.5126823944537
0.00225330829801181,19.516619852457
0.00257179899118676,19.5202719132089
0.0029345948906251,19.5236662945954
0.00334799892562301,19.5268289891391
0.00381940055631315,19.529784598344
0.00435757418152218,19.5325567287099
0.0049731233012207,19.5351685094899
0.00567517305408137,19.537630548571
0.00645563652665544,19.5399078158215
0.00732745391579919,19.5420431921493
0.00831161846820492,19.5440832535358
0.00944531354457575,19.5460864461642
0.0108109400651442,19.5481546674537
0.0127614007413691,19.5506803376996
0.0141665088410379,19.5523028635855
0.0156582645109413,19.5539253894714
0.0170209140999772,19.5553746322894
0.0182270516954169,19.5566818857734
0.0193021105378907,19.5579208433273
0.0202466430222812,19.5591389578264
0.0210449003143691,19.5603770547117
0.0216649965394265,19.5616850812423
0.0220453731054895,19.563150223545
0.0220207630871175,19.5650276101647
0.0214697039463769,19.5668632958599
0.0204836002030561,19.5686989815552
0.0193990512974259,19.5702434130703
0.0182075792647677,19.5717261689737
0.0169079060476759,19.5732284102187
0.0155087213744173,19.5747910890235
0.0146764794306217,19.5757146101767
0.0138580064158462,19.5766381313298
0.0129862954383834,19.5776657074277
0.0108489520747834,19.5804307017018
0.0090165514516929,19.583168365601
0.00753705187170899,19.5857273901224
0.00627667271294526,19.5882486014044
0.00518936162899585,19.5907692924329
0.00430280288018396,19.593145744862
0.00357167321073419,19.5953951144429
0.00295980619074004,19.5975404447049
0.00243919705598076,19.5996078033158
0.0019873743202404,19.6016298309629
0.00158473956507619,19.6036543699386
0.00121001031065446,19.6057722097047
0.000822042799670195,19.6082601903111
0.00057043623057957,19.6100703370071
0.000341207352447937,19.611880483703
0.000155233951175941,19.6134790576623
-2.91702116964379e-06,19.614942094363
-0.000148402306823148,19.6163813525547
-0.000290715984090229,19.6178843579678
-0.000439928771224029,19.6195707022534
-0.000617484610118907,19.6217387640848
-0.000896724014404934,19.6255421923404
-0.00112760439661235,19.6290921002406
-0.00131706892018035,19.6323029863381
-0.0015100427167998,19.6358626973187
-0.00175314899315167,19.6407718104559
-0.00200356445785822,19.6463814937139
-0.00220340817682214,19.6515223364515
-0.00234663532499044,19.6561760118106
-0.0024249853829767,19.6603852302458
-0.00242916465615248,19.6641462417616
-0.00235345364232788,19.6675178537138
-0.0021938238689577,19.670558808984
-0.00194615065215621,19.6733365918822
-0.00160310393042042,19.6759249061021
-0.00114852835269059,19.678413284271
-0.00054002517908319,19.6809498801394
0.000280907505106049,19.6836594763101
0.00111208044492449,19.6859762600412
0.00203424033912784,19.6882930437723
0.00293197170945309,19.6904208424778
0.00395344525004119,19.6927675100963
0.00498278157569396,19.6950668174485
0.00605843850957133,19.6973661248007
0.00701420187062712,19.6992716478047
0.00802096285440006,19.7011045699502
0.00907821268696992,19.70282701681
0.0102546058597863,19.704516273014
0.011568763578884,19.7061593653477
0.0130545169882618,19.7077639452351
0.0147221677162163,19.7093121566334
0.0166033090118629,19.7108101874821
0.018717919921887,19.7122532687433
0.021081268324256,19.7136357459895
0.0237276146039295,19.7149637316472
0.026688460332709,19.7162393556699
0.0300004555162491,19.7174654640785
0.0337046815432638,19.7186447917347
0.0378529775695376,19.7197814680813
0.0425041635734535,19.7208790615213
0.0477272304864823,19.7219411496181
0.0536035498025591,19.7229713314128
0.0602300729684944,19.7239733100006
0.0677235446130569,19.7249509697429
0.0762256338707543,19.7259084041204
0.0859109195984187,19.7268500798609
0.0969980914126157,19.7277810161193
0.109767226593803,19.7287070920554
0.124586144555656,19.7296354628168
0.141954807437516,19.7305753166839
0.162586169043163,19.7315393044949
0.186655272590057,19.7325121306141
0.214575195878447,19.7334933745774
0.24712793298151,19.7344953039317
0.285417218768992,19.7355370231703
0.331327604136762,19.7366566642099
0.366317309049513,19.737451478435
0.402366930122893,19.7382462926601
0.434418940654952,19.7389575415034
0.462488202461335,19.7396106609083
0.486940482329275,19.7402360297409
0.507672769423057,19.7408570080264
0.524142567961803,19.7414968325506
0.535171846299996,19.7421867277799
0.538139191807748,19.7429776735144
0.529978859258251,19.7437826878253
0.509537311389461,19.7446203124287
0.475150714340933,19.7455053702554
0.424796131996306,19.7464478751079
0.376087500260046,19.7471863120307
0.320185302193918,19.7479247489535
0.271007363876954,19.7485202854975
0.229960137495398,19.7489981479566
0.194527634561878,19.7494074303249
0.163099438153395,19.749775707454
0.134780717449363,19.7501184276589
0.109006470243073,19.750445769368
0.0853571029644,19.7507658560105
0.0634512256439247,19.7510869238331
0.0428128655908451,19.7514206119712
0.022424515101219,19.7517938950449
0.00689069767806554,19.7521213736157
-0.00120851562254619,19.7523130072357
-0.00860696969038156,19.7525046408557
-0.0149690306172547,19.7526853332034
-0.0209984288437197,19.7528736728101
-0.0270146769523301,19.7530827326739
-0.0327856914032822,19.7533091807137
-0.038167759828926,19.7535511435475
-0.0430818347925153,19.753808046666
-0.0474875461244667,19.7540801858879
-0.0513678968191557,19.7543684941188
-0.0547139969373123,19.7546744337673
-0.057549621221336,19.7550034282679
-0.0598116272724194,19.7553482590929
-0.0615722596418574,19.7557179114726
-0.0628466615387466,19.7561162119786
-0.0636485374233178,19.7565478081802
-0.0639891511100098,19.7570185135682
-0.0638755852845069,19.7575357198488
-0.0633081782025143,19.7581092739048
-0.0622748031727487,19.7587534907883
-0.0607467882365079,19.7594874443203
-0.0586658364214871,19.7603405421893
-0.0559080233490787,19.7613652901008
-0.0521338072972109,19.7626902917793
-0.0480751732843906,19.7640827023469
-0.0441567985929212,19.7654308236667
-0.0404237379022134,19.766738736126
-0.0368980915743556,19.7680084316206
-0.0335911356087476,19.7692405871637
-0.0305076271634409,19.7704352176493
-0.0276477922370025,19.7715920242764
-0.0250084376832692,19.7727105778152
-0.022583706789282,19.7737904123459
-0.020365677208266,19.7748310682133
-0.0183448767397292,19.7758321044656
-0.0165107430835731,19.7767930917402
-0.0148520343213559,19.777713591635
-0.0132898244176116,19.7786340391739
-0.0117874791890971,19.7795780991636
-0.0103494255898869,19.7805474112894
-0.00897959557929463,19.7815441139245
-0.00768172271845479,19.782570718524
-0.00645929009159751,19.7836302038549
-0.00531547868301176,19.7847261384059
-0.00425311365345427,19.785862845552
-0.00327460849093509,19.7870456316789
-0.00238190661942405,19.7882811100745
-0.00157641940872951,19.7895776761083
-0.000858958415622358,19.7909462325324
-0.000229657592070174,19.7924013520846
0.000312135228770213,19.7939632606394
0.000752984629787567,19.7955966180355
0.00109606341130076,19.7972789021476
0.00135727671093763,19.7990284575354
0.0015509556699667,19.800867233517
0.00169055712233937,19.8028247450242
0.00178907621302619,19.8049432150972
0.0018596670763739,19.8072884680489
0.00191686508760407,19.8099773455842
0.00198022730087998,19.813272049447
0.00206500044172137,19.8170181470151
0.00218127155259195,19.8210696592655
0.00232971975416787,19.825356709705
0.00251547379099839,19.8301048726753
0.00272143710937077,19.8350099143598
0.00293431118370106,19.8399071265046
0.00313474680252143,19.8444304428727
0.00331429260394209,19.8484213472612
0.00348690479719374,19.852197283273
0.00365912873289345,19.8558907145986
0.00383503392928736,19.8595727325146
0.00401783276939399,19.8632912487401
0.00421043874482933,19.8670833697756
0.00441574018406443,19.8709807616914
0.00463680544204109,19.8750130114024
0.0048770324491946,19.8792093743083
0.00514031193108123,19.883600113437
0.0054312500666308,19.8882176478167
0.00575554531532627,19.8930979442674
0.00612061597609292,19.8982818080948
0.0065088509634818,19.9034544241325
0.00691835451476765,19.9085529699585
0.00735256386005767,19.9135800538407
0.00781500634591545,19.9185303443983
0.00831083033410276,19.9234093348627
0.00884590165844937,19.9282218139176
0.00942679584417714,19.9329714185645
0.0100607071058846,19.9376594568708
0.0107588334526377,19.9423063901389
0.0115447897910362,19.946988369634
0.0124340748332352,19.9516995337423
0.0134502617584133,19.9564588349281
0.0146271131940914,19.9613046066201
0.0160223078969072,19.9663298346923
0.0177663706575641,19.9717961671161
0.0201846922067929,19.9783726968328
0.021761299462665,19.9822840759649
0.0233867225740071,19.9861954550969
0.0248098002703163,19.9896801624995
0.0260101872309577,19.9928433530885
0.0270065537484759,19.9958680974348
0.0275666365491813,19.9979340487174
0.0280055288950667,20
