ecg,time
0.02612071842617,15.0004030982127
0.0271651609300859,15.0034057641162
0.0279716881510441,15.0062946854026
0.0285109129370374,15.0090770939818
0.0287784447885965,15.0118738963117
0.0287375808968126,15.0148495581842
0.0282531814563167,15.018395271921
0.0274561281383997,15.0215589559059
0.0263721831178865,15.0247226398909
0.0252879592466053,15.0273810586437
0.02421587436097,15.0297663863203
0.0231436107864773,15.0320182608825
0.0220705601103775,15.0341976097087
0.0209997391989549,15.0363372453961
0.0199349002614244,15.0384582351396
0.0188796976360331,15.0405756514103
0.0178375487258612,15.0427011104078
0.0168115937206244,15.0448441005103
0.0158046918045446,15.0470127544843
0.0148194306836354,15.0492143390406
0.0138581369245555,15.051455593969
0.0129228904611907,15.0537429718184
0.0120155335376205,15.0560828350511
0.0111376790708096,15.0584816233468
0.0102907265385951,15.0609459829146
0.00947586290685617,15.0634829305762
0.00868839615013228,15.0661197429038
0.00791258536072897,15.0689320549715
0.00715223351375057,15.071939896484
0.00641113596003539,15.0751672810687
0.00569331795103695,15.0786419701434
0.0050030038493445,15.0823961675274
0.00434455678512442,15.0864674129704
0.0037223785227419,15.0908998043125
0.00314072982793782,15.0957460718181
0.00260347701440239,15.1010712499661
0.00211378322181579,15.1069594176484
0.00167394060687586,15.1135238435784
0.00129992106720339,15.120608392305
0.00105159135401014,15.1265254629836
0.000858221472599527,15.1324425336621
0.000658895452366609,15.1406469896114
0.000503483212122946,15.1494387948644
0.000379338266138324,15.1591977076653
0.000290394906013657,15.1691977076653
0.000229203567960222,15.1791977076653
0.00018771882928798,15.1891977076653
0.000160065655145872,15.1991977076653
0.000142046492104876,15.2091977076653
0.000130750136112472,15.2191977076653
0.000124197018910529,15.2291977076653
0.000121050359038378,15.2391977076653
0.00012040787105929,15.2491977076653
0.000121662807810471,15.2591977076653
0.000124413714777087,15.2691977076653
0.000128405137518866,15.2791977076653
0.000133487767553611,15.2891977076653
0.000139591463172143,15.2991977076653
0.000146707419497825,15.3091977076653
0.000154877187307786,15.3191977076653
0.000164187020213073,15.3291977076653
0.000174766588085971,15.3391977076653
0.000186791588043034,15.3491977076653
0.000200490263554552,15.3591977076653
0.000216154349339098,15.3691977076653
0.00023415556522474,15.3791977076653
0.000254969601322381,15.3891977076653
0.000279210754675258,15.3991977076653
0.000307682304741257,15.4091977076653
0.000341450902518193,15.4191977076653
0.000381958718559985,15.4291977076653
0.000431196826922829,15.4391977076653
0.000488936039056369,15.4487392073022
0.000554688031048404,15.4575546011125
0.000629416365158102,15.4656885689445
0.000714320311371697,15.4731940672115
0.000810779837867586,15.4801206516349
0.000920363138988323,15.4865143177876
0.00104484712349811,15.4924177660928
0.00118624387408961,15.4978706481382
0.00134683248644047,15.5029097794038
0.00152919416187127,15.507569344878
0.00173625513769206,15.5118811008174
0.0019713358156735,15.5158745697205
0.0022382119482773,15.519577219407
0.00254118724523336,15.523014641129
0.00288518661067863,15.526210736685
0.00327587498270975,15.5291879127442
0.00371981233405459,15.5319672860638
0.00422466511621332,15.5345689214462
0.00479950162839279,15.5370121213554
0.00545522213933802,15.5393157993861
0.00619095548406348,15.541461075816
0.00700402327218707,15.543443013699
0.00790576117668029,15.5452958917221
0.00891333135566679,15.5470544803418
0.010054496464306,15.5487580074676
0.0113815683261145,15.5504622420153
0.013088884052452,15.5523498818827
0.0150038007272912,15.5541957033999
0.0166311372504142,15.5556220288803
0.018346924037949,15.5570483543607
0.0198804651764398,15.5583045586065
0.021248711578102,15.5594549180024
0.0224751891091935,15.5605592648521
0.023556674387867,15.5616583512149
0.0244725080321699,15.5627915106238
0.0251818254309442,15.5640130269779
0.0255998099704559,15.5654330992241
0.0254154060438912,15.5675158426368
0.0247407784268094,15.5690374508835
0.0237091900039224,15.5705590591301
0.0225268020009955,15.5719607630866
0.0211987146110173,15.5733599995809
0.0197335594086149,15.5748087319437
0.0181403317352336,15.5763444221637
0.0171333188373384,15.5773155873791
0.0161510632733795,15.5782867525945
0.0144480436435254,15.5800817397462
0.0119316167387776,15.5830705943443
0.00989138704334313,15.5859053017989
0.00828027817684644,15.5885202716957
0.00696213645490217,15.5910085236344
0.00586628897124124,15.593407722103
0.00495474046761321,15.5957152298446
0.00418318658762571,15.5979665753164
0.00351419044918822,15.60021438146
0.002910612783862,15.6025568698321
0.00231006510877644,15.6052888772292
0.00192798167185481,15.6073065786
0.0015908613317034,15.6093242799708
0.00132908268387388,15.6110845634824
0.00111338747749246,15.6126920263701
0.000920695190160758,15.6142733554985
0.000737820868416415,15.6159265773021
0.000552331774311745,15.6177870291613
0.000339798325140037,15.6202014996044
3.64874758447147e-05,15.6243543391527
-0.000181941777331226,15.6281004029483
-0.000341501106334569,15.6314517501968
-0.000485308610581872,15.635163761788
-0.00063103915401142,15.6400997484105
-0.000736302911340616,15.6455250299806
-0.000777457588239347,15.6503135395597
-0.000762263691956214,15.6546516198656
-0.000690556865111825,15.6585605013291
-0.000560178496845761,15.6620854541867
-0.000367431190639194,15.6652781244852
-0.000107388270017036,15.6681887975982
0.000226618900232995,15.6708690230869
0.000644860524235147,15.6733758649729
0.00116370880682134,15.6757713279643
0.0018132341106539,15.6781367511355
0.00265355911090186,15.6805934604013
0.00383008167776866,15.6833806407911
0.00536300877939942,15.6863638250508
0.00679032413196604,15.6887311254909
0.008430639510862,15.6910984259309
0.00998855282355661,15.6930560547186
0.0115649034325806,15.6947894801021
0.0132508581672065,15.696408632402
0.0150565637896371,15.697916900217
0.0170594211691138,15.699366793791
0.0192714912526553,15.7007497169982
0.0217457675265075,15.7020826755451
0.0245126073956786,15.703365029116
0.0276117674532518,15.7045998574593
0.0310886004359147,15.7057905229362
0.0349878896169345,15.7069384013469
0.0393665070888236,15.708046874336
0.0442900424869668,15.7091192639514
0.0498335506656521,15.7101586507227
0.0560858439764946,15.7111683341301
0.0631508651704094,15.7121515482757
0.0711586176131703,15.7131123979876
0.0802654641997763,15.7140549744894
0.0906650656405331,15.7149838134228
0.102601600641362,15.7159040945269
0.116389283774327,15.7168219171266
0.132444192446107,15.7177448204126
0.151338073054143,15.7186826588685
0.173801001525117,15.7196454031917
0.199797213408494,15.7206102859632
0.22998823992118,15.7215867761087
0.265254800618196,15.7225884754418
0.306907466427499,15.7236385761479
0.345406127206674,15.7245240651707
0.38615569027735,15.7254095541935
0.421590789341387,15.7261654314842
0.452259404052085,15.7268350718336
0.479111798528658,15.7274615199315
0.502348223993997,15.7280719236806
0.521685039173961,15.728688975023
0.536337129303243,15.7293388064544
0.544607880525979,15.7300631151739
0.543127056312259,15.7308501088143
0.529967103958833,15.7316612939319
0.503716727050038,15.7325145290464
0.462447994716792,15.7334233007748
0.403961560782422,15.7343961198622
0.356520719969694,15.7350565254737
0.303760233032312,15.7357169310853
0.257236683629674,15.7362624299091
0.217853614207957,15.7367121684175
0.183532185737002,15.7371044498136
0.152936030034033,15.7374616312396
0.125286043387957,15.7377969828792
0.100065007870411,15.7381197864439
0.0768665558559344,15.7384379984729
0.0552878815009679,15.738760536896
0.0347444513394508,15.7391019932742
0.0135729396635725,15.7395063758206
0.00104810162656635,15.7397827703877
-0.00642709250462705,15.7399662341262
-0.013263120276098,15.7401496978646
-0.0192140535777663,15.7403246494467
-0.0252944278297357,15.7405218867575
-0.0312447496157249,15.7407381404792
-0.0368710011368343,15.7409706252436
-0.04206341516441,15.7412181556308
-0.0467632608871145,15.7414806092379
-0.0509423906401869,15.7417585996662
-0.0545913146003567,15.7420533124071
-0.0577193932637646,15.7423682084734
-0.0602740062313673,15.7426990185767
-0.062317308819972,15.7430528447589
-0.0638642893346848,15.7434330858943
-0.0649293979235957,15.743843869551
-0.0655254780760511,15.7442903290214
-0.0656621421711825,15.7447789334409
-0.0653438133732687,15.7453179930934
-0.0645656469026073,15.7459193400044
-0.0633084819040192,15.7465990790443
-0.0615318054277416,15.7473802342949
-0.0591530505006585,15.7483004109698
-0.0559816638392688,15.749434912929
-0.0518340990215141,15.7508596025968
-0.047790737598482,15.7522335789688
-0.0439124074918046,15.7535656173539
-0.0402312013600635,15.7548588412695
-0.0367638118401644,15.7561144829892
-0.0335185023440682,15.7573328196311
-0.0304980672955342,15.7585136615485
-0.0277013146996335,15.759656609778
-0.0251239714690362,15.7607611904917
-0.022759347944735,15.7618269215448
-0.0205988912998053,15.7628533395024
-0.0186326746118961,15.7638400022099
-0.0168498362928332,15.7647864751636
-0.015238972102442,15.7656923062072
-0.0136846638489348,15.7666209160508
-0.0121918197830821,15.7675735572335
-0.0107644595572019,15.7685521652381
-0.00940643622401793,15.7695589984193
-0.00812138153167434,15.7705967195607
-0.00691265487243105,15.7716684977164
-0.00578328973627173,15.7727781438206
-0.00473593771190705,15.7739302950815
-0.00377280968095767,15.7751306720098
-0.00289561327961997,15.7763864473192
-0.00210548469436832,15.7777067942146
-0.00140291101525263,15.7791037367101
-0.000787635746132837,15.7805935401657
-0.000258532159498851,15.7821991457522
0.000162875723062389,15.7838474794333
0.000492515354278549,15.7855514954943
0.000745675367205866,15.7873299182301
0.000936555978546952,15.789207000963
0.00107867276695626,15.7912159943731
0.00118537609710917,15.7934057812671
0.00127072190742998,15.7958556284522
0.00135147768692613,15.7987157793387
0.00145463457165707,15.8023749853543
0.00157898324118017,15.806177542075
0.00174467733652774,15.8104468762146
0.00196331099798541,15.8153841225692
0.00217364950910793,15.8197912602114
0.00237082843461412,15.8237922399653
0.00256231299799137,15.827627462105
0.00275218911662923,15.8314065546144
0.00294354610681666,15.8351935040791
0.00313920388269004,15.8390335378125
0.00334194743786096,15.8429631990283
0.00355460536127599,15.8470145433656
0.00378014387267936,15.8512181623735
0.00402174702935759,15.8556048527008
0.0042829421811174,15.8602069648425
0.00456782765468909,15.8650598010466
0.0048814653468087,15.8702028992006
0.00523013922801055,15.8756750196759
0.00558431615413746,15.8809579390069
0.00595598219959701,15.8862029368629
0.0063437831013167,15.8913454162502
0.00675266033664431,15.8964075302389
0.00718651118595777,15.9013908265343
0.00765027424353191,15.9063043023205
0.00814908695108892,15.9111528666238
0.00868854138462303,15.9159396595825
0.00927469927572632,15.9206654701827
0.0099142181624103,15.9253293582371
0.0106159136046347,15.929938254127
0.0114049225723822,15.9345813458466
0.0122955830827554,15.939248433588
0.0133105307863807,15.9439565767204
0.0144815728511173,15.9487388384598
0.015861580116763,15.9536748679186
0.0175630672119284,15.9589794887945
0.0200068154845502,15.9655698427718
0.021654374000277,15.969589084588
0.0233677467164858,15.9736083264041
0.0248561212926167,15.9771309603278
0.0261096323336839,15.9802939754418
0.0271560652026541,15.9832974557107
0.0279652113383876,15.9861879839046
0.0285069939437941,15.9889708743046
0.0287772403069687,15.9917668824594
0.0287397047311797,15.9947396595897
0.0282611899094447,15.9982755185251
0.0274654206969378,16.0014483814479
0.0263804813500573,16.0046212443706
0.0252958539132773,16.0072831701197
0.0242237247744134,16.0096698894846
0.0231514714666279,16.0119224699614
0.0220784173748296,16.0141022103912
0.0210075665782283,16.0162420504084
0.0199426703630627,16.018363116279
0.0188873844647079,16.0204805129856
0.0178451282341742,16.0226058762533
0.0168190439149478,16.0247487068138
0.0158119927520228,16.0269171452723
0.0148265643731839,16.0291184633734
0.013865087200996,16.0313594038214
0.0129296430094194,16.033646420342
0.0120220756628651,16.0359858756385
0.0111439997344359,16.0383842082582
0.0102968163008171,16.0408480621909
0.00948171378866792,16.0433844511915
0.00869417403138476,16.0460200368332
0.00791826254672329,16.0488309861479
0.00715778289113771,16.0518372999802
0.00641652862904031,16.0550629666278
0.00569852336951668,16.0585357176354
0.00500799025205799,16.0622877207295
0.00434929166103293,16.0663564724607
0.00372682958473105,16.0707860163866
0.00314486670335151,16.075629008096
0.00260727336067083,16.080950371299
0.00211721889688522,16.0868340100559
0.00167700167532556,16.0933929355598
0.00130249337679738,16.1004735252281
0.00105153132878352,16.1064473920746
0.000856543649122491,16.1124212589211
0.000656704653537105,16.1206717403039
0.00050189962865717,16.129463591687
0.000378136847939126,16.1392310607628
0.000289565914732022,16.1492310607628
0.00022863769152879,16.1592310607628
0.000187337967220598,16.1692310607628
0.000159814030995581,16.1792310607628
0.000141885049949487,16.1892310607628
0.000130652045715254,16.1992310607628
0.000124144043813056,16.2092310607628
0.000121030148972671,16.2192310607628
0.000120412089197778,16.2292310607628
0.000121685886663237,16.2392310607628
0.000124452034633369,16.2492310607628
0.000128456476827359,16.2592310607628
0.000133550931598501,16.2692310607628
0.000139666035795609,16.2792310607628
0.0001467936042097,16.2892310607628
0.000154975716068869,16.2992310607628
0.000164299115871886,16.3092310607628
0.000174893972512513,16.3192310607628
0.000186936533470488,16.3292310607628
0.000200655690080652,16.3392310607628
0.000216343977633495,16.3492310607628
0.000234374141275528,16.3592310607628
0.000255223221158582,16.3692310607628
0.000279507334077072,16.3792310607628
0.000308032266583271,16.3892310607628
0.000341868200905537,16.3992310607628
0.000382462400062657,16.4092310607628
0.000431813476016021,16.4192310607628
0.00048964006220056,16.4287641558824
0.000555488549510969,16.4375714672637
0.000630326012394719,16.4456979714238
0.000715353827559876,16.4531965922465
0.000811954042602119,16.4601168434628
0.000921697107096453,16.4665046815702
0.00104636245683562,16.4724027709068
0.00118796503344447,16.4778507295774
0.0013487871802607,16.4828853419157
0.00153141377671613,16.487540764087
0.00173877527518066,16.4918487258023
0.00197419690970414,16.4958387251517
0.00224146001871401,16.4995382075379
0.002544874851334,16.5029727438749
0.00288937402482657,16.5061662178155
0.00328063174954363,16.5091410201242
0.00372521931950403,16.5119182541494
0.00423081732834863,16.5145179742659
0.00480651225910231,16.5169594762018
0.00546322856328401,16.5192616718161
0.00619979800923121,16.521404888254
0.0070138060612268,16.523385156991
0.00791664347128873,16.5252367599503
0.00892555648648642,16.5269944838127
0.0100684814891817,16.5286976546392
0.0113981771762627,16.5304023700608
0.0131118433488128,16.5322937718188
0.0150167517196674,16.5341277821088
0.016643596518646,16.5355529115561
0.0183583687237506,16.5369780410034
0.0198905717632058,16.5382332053726
0.0212577788028902,16.5393830691768
0.0224832713201691,16.5404872484182
0.0235636836165729,16.5415864313214
0.0244782387596594,16.54271999232
0.0251858864785442,16.5439424065791
0.02560128569181,16.5453646148364
0.0254086531665598,16.5474583528728
0.0247295448297992,16.5489774477046
0.0236958999549591,16.5504965425363
0.0225117157208823,16.5518977498464
0.0211819087064471,16.5532973363914
0.0197151563236608,16.5547469011658
0.0181204166954982,16.5562838734609
0.0171130690063534,16.5572555158798
0.016131078153884,16.5582271582987
0.0141362673852737,16.5603483169664
0.0116749169323671,16.5633239678762
0.00968571713987032,16.566138070533
0.0081155095141191,16.5687320074368
0.00681898001426245,16.5712228981119
0.00574787097106085,16.573609709834
0.00485534166307947,16.5759083280538
0.00409801242571118,16.5781559760483
0.00343895291958639,16.5804084876494
0.00284018625719233,16.5827743376108
0.00222987546912844,16.5856119453793
0.00187198530871125,16.5875449166841
0.00155450075881731,16.5894778879888
0.00130094288585207,16.5912057715388
0.00108899499497516,16.5928042780355
0.000898120834049002,16.5943890478946
0.000715656089938181,16.5960586784613
0.000528694767440693,16.5979596456335
0.000308676723522282,16.6005054078219
1.24752962359437e-05,16.6046498310707
-0.000196225933209883,16.6082962689856
-0.000352087477292354,16.611619648138
-0.000495093654146411,16.6153704281922
-0.000641037142191864,16.6204319492363
-0.000741037915067486,16.6257957989647
-0.000778196008229589,16.6305535303695
-0.000759063927631328,16.6348597580899
-0.000683322356009643,16.6387402069895
-0.00054869278503128,16.642240177305
-0.00035140618672022,16.6454111419535
-8.63987177535611e-05,16.6483040310673
0.000253179452491019,16.6509704181506
0.000677873820003397,16.6534673047252
0.00120464058018037,16.6558573689731
0.00186607399841549,16.6582277287534
0.00272432417151769,16.6606987998408
0.00393621020152307,16.6635265592825
0.00549644164640027,16.6665194213506
0.00690353962601716,16.6688256778003
0.0085155382478198,16.67113193425
0.0100783378955919,16.6730813553674
0.011652511411553,16.6747994571585
0.0133508573741575,16.6764180526424
0.0151639234827738,16.6779203528192
0.0171757219283634,16.6793649592216
0.0194019914184068,16.6807453828294
0.0218910845637578,16.682075189997
0.0246766581877289,16.6833554115563
0.0277953935197084,16.6845875658218
0.0312943322768039,16.6857757116535
0.0352200469831315,16.6869216430248
0.0396271694163361,16.6880279520493
0.044583081100788,16.6890983550204
0.0501635750449835,16.6901359500637
0.0564583279465834,16.6911440467823
0.0635727056325917,16.6921259364357
0.0716374603557533,16.6930856433387
0.0808110295716941,16.6940273176603
0.0912895100725981,16.6949555255711
0.10332040756711,16.6958754897419
0.117222981432899,16.6967933948263
0.133419791927433,16.6977168456037
0.152493768133191,16.6986558761665
0.175136673439137,16.6996185285168
0.201345248754345,16.7005837739432
0.231790527676872,16.7015612468942
0.267369171315281,16.7025648726051
0.309428638203013,16.7036187185564
0.347551237684073,16.7044917670749
0.387803293082126,16.7053648155934
0.422975615222509,16.7061152014509
0.453468670132205,16.706782271911
0.480168091324708,16.7074075533737
0.503248492035462,16.7080177803129
0.52240742648036,16.7086356341205
0.53683347779461,16.7092875873243
0.544770305817375,16.7100165133597
0.542812655788501,16.7108041422931
0.529127189774329,16.7116167825979
0.502278729989348,16.7124721470316
0.460321010603321,16.7133835063574
0.401051158803518,16.7143592238474
0.353898897511224,16.7150109223553
0.301624149621925,16.7156626208632
0.255488702422698,16.7162025941885
0.216356429339211,16.7166492738646
0.182209478110659,16.71703975636
0.151747112795911,16.7173958194607
0.124205876614831,16.7177304894636
0.0990754797731488,16.7180529497268
0.0759518367469356,16.7183711473019
0.0544295445178619,16.7186941063223
0.0339082154943343,16.7190368726479
0.0126092878990366,16.7194465434933
0.000962439746891704,16.7197048476119
-0.00650245920199361,16.7198882309892
-0.0133290479380043,16.7200716143666
-0.0192719041430343,16.7202464933159
-0.025352019467946,16.7204439217663
-0.031300002099114,16.7206603396049
-0.0369225440209296,16.7208929708962
-0.0421104910568336,16.7211406423133
-0.046805482555932,16.7214032396939
-0.0509795942863008,16.7216813826457
-0.0546234737819206,16.7219762616526
-0.0577534662572478,16.7222921502004
-0.0603018781825734,16.7226232330323
-0.0623390644483742,16.722977358692
-0.0638801067483785,16.7233579442421
-0.0649394458355214,16.7237691280897
-0.0655298960940371,16.7242160575088
-0.06566101962169,16.7247052205144
-0.0653371620084699,16.7252449539392
-0.0645533249294913,16.7258471478958
-0.0632901505352477,16.7265279608619
-0.061506777608389,16.7273105369732
-0.0591198896168933,16.7282327423844
-0.0559366587597423,16.7293706758074
-0.0517898927204403,16.7307946809296
-0.0477480534662545,16.7321681818639
-0.0438717153674165,16.7334997926728
-0.0401927420168258,16.7347926093763
-0.0367277104351887,16.7360478503678
-0.0334848139812344,16.7372657858541
-0.0304667980558502,16.7384462229498
-0.0276724334793715,16.7395887613842
-0.0250974179752402,16.74069292701
-0.0227350390968352,16.7417582378165
-0.0205767267506076,16.7427842306333
-0.0186125417259548,16.7437704634947
-0.0168316146050545,16.7447165018673
-0.015221618454013,16.745622425936
-0.0136679595044427,16.7465512910457
-0.0121758117679027,16.7475042058829
-0.0107491911008349,16.7484831104088
-0.00939194841600574,16.7494902669421
-0.00810771275875595,16.7505283432126
-0.00689984024504593,16.7516005145029
-0.00577136048734384,16.7527105996979
-0.00472492056844757,16.7538632463259
-0.00376272620133215,16.7550641885636
-0.00288647914147511,16.7563206176679
-0.00209730890351925,16.7576417327718
-0.00139569497999398,16.7590395955339
-0.000781372103023268,16.7605305286736
-0.000253203105993237,16.7621375665382
0.000167071873328282,16.7637864084125
0.000495766997804483,16.76549115131
0.000748147703719581,16.7672705377863
0.000938404333480154,16.7691489003863
0.00108004733874569,16.7711596202221
0.00118642915446892,16.7733518168132
0.00127162148835442,16.7758052483798
0.00135244485240064,16.7786714418302
0.00145612635874296,16.782344602835
0.00158084907593251,16.7861497866079
0.00174720683029449,16.7904274726942
0.00196611776434386,16.7953646045729
0.00217621118065732,16.7997638754531
0.00237328203986305,16.8037616722223
0.00256472417727298,16.8075956405195
0.00275460083444181,16.8113744884093
0.0029459950480079,16.8151618533485
0.00314172542503876,16.8190028097813
0.00334457699086704,16.8229338210163
0.00355737954249924,16.8269869085988
0.00378310152475711,16.8311926576023
0.00402493042797621,16.8355818762266
0.00428639914139917,16.8401869434267
0.00457161535532974,16.8450432081994
0.00488565669795135,16.8501902688682
0.00523440100459335,16.8556602632611
0.00558878446160873,16.8609428759922
0.00596063018748946,16.8661866157504
0.00634866602579322,16.871328080402
0.00675782241227596,16.87638918029
0.00719201037139367,16.8813715784052
0.00765617143201491,16.886284230283
0.00815544814967732,16.891132023124
0.00869543785922273,16.8959180670512
0.00928220887554105,16.9006431265202
0.00992242678025378,16.9053062434731
0.0106251164015787,16.9099155733518
0.0114152698498465,16.9145589040671
0.0123073174330811,16.9192263884331
0.0133239728681132,16.923935185907
0.0144972117846971,16.9287187196775
0.0158803030546564,16.9336575322636
0.0175870884662422,16.9389694650509
0.02003116746788,16.9455511799777
0.0216754359440144,16.9495591573628
0.0233843459537057,16.9535671347478
0.0248698142902953,16.9570841792764
0.026121161521164,16.9602447155238
0.027165524437217,16.9632473491373
0.0279719469581693,16.9661362064226
0.0285110694444107,16.9689185959617
0.0287784926702841,16.9717154303367
0.0287374954590833,16.9746912081808
0.0282528595079267,16.9782373191344
0.0274557547636015,16.9814006368326
0.0263718491619915,16.9845639545308
0.0252876413174133,16.9872222328471
0.0242155581773992,16.9896075046088
0.0231432941856473,16.9918593507671
0.0220702436498158,16.9940386838254
0.0209994239404727,16.9961783112788
0.0199345873096923,16.9982992979467
0.0188793880413162,17.0004167149918
0.0178372434597343,17.0025421778272
0.0168112936718119,17.0046851743333
0.0158043977787277,17.0068538369599
0.0148191434089926,17.0090554322142
0.0138578570545285,17.011296699767
0.0129226185751261,17.0135840921183
0.0120152701495684,17.0159239717185
0.0111374246282165,17.0183227782903
0.0102904814243538,17.0207871581295
0.00947562744509717,17.0233241281771
0.00868816362725021,17.0259609899079
0.00791235689319188,17.0287733568574
0.00715201019417287,17.0317812598944
0.00641091895298922,17.0350087136664
0.00569310848729626,17.0384834807944
0.00500280320895169,17.042237766551
0.00434436627811853,17.0463091124259
0.00372219944997505,17.0507416184465
0.00314056341283716,17.0555880178878
0.00260332431770733,17.0609133496971
0.00211364505432469,17.06680169982
0.00167381752966334,17.0733663473573
0.00129981767096146,17.0804510556033
0.00105158861458776,17.0863659780374
0.000858281050185676,17.0922809004716
0.000658973950147,17.1004836882353
0.000503539729108503,17.1092755016047
0.000379381117863627,17.1190341070888
0.000290424410554534,17.1290341070888
0.000229223639517807,17.1390341070888
0.000187732266187094,17.1490341070888
0.000160074458076999,17.1590341070888
0.000142052063257862,17.1690341070888
0.000130753439285817,17.1790341070888
0.000124198709465553,17.1890341070888
0.000121050881067884,17.1990341070888
0.000120407524671768,17.2090341070888
0.000121661793820855,17.2190341070888
0.000124412164199106,17.2290341070888
0.000128403131287835,17.2390341070888
0.000133485349856244,17.2490341070888
0.000139588650371195,17.2590341070888
0.000146704205859381,17.2690341070888
0.000154873548309909,17.2790341070888
0.000164182913939755,17.2890341070888
0.000174761954994378,17.2990341070888
0.000186786349197378,17.3090341070888
0.000200484317226549,17.3190341070888
0.00021614756565881,17.3290341070888
0.000234147778290108,17.3390341070888
0.000254960597783392,17.3490341070888
0.000279200257205633,17.3590341070888
0.000307669947834775,17.3690341070888
0.000341436196404114,17.3790341070888
0.000381940994166198,17.3890341070888
0.000431175149630078,17.3990341070888
0.000488911335374258,17.408575907272
0.000554659987269542,17.4173915899286
0.000629384543498762,17.4255258243337
0.0007142842004907,17.4330315681018
0.000810738854122455,17.4399583784874
0.000920316620434409,17.4463522524868
0.0010447943204848,17.4522558918356
0.00118618393776074,17.4577089493374
0.00134676445526857,17.4627482416017
0.00152911694678413,17.4674079546614
0.00173616750349636,17.471719845734
0.00197123635975786,17.4757134382017
0.00223809907460086,17.4794162006956
0.00254105913143295,17.4828537252046
0.00288504116763665,17.4860499141857
0.00327570980083529,17.4890271748871
0.00371962461278702,17.4918066245572
0.00422445156702536,17.4944083283857
0.00479925833593447,17.4968515890961
0.00545494435558705,17.4991553203709
0.00619064875278264,17.5013006700045
0.00700368402378548,17.5032826674846
0.00790538396247954,17.5051355914459
0.00891290787063842,17.5068942118711
0.0100540125135198,17.5085977534278
0.0113809946031356,17.510301974034
0.0130880940811748,17.5121894888251
0.0150033521659728,17.5140357167041
0.0166307028155336,17.5154620831018
0.0183465211346958,17.5168884494994
0.0198801057053433,17.5181446899339
0.0212483856096298,17.5192950670633
0.022474894884244,17.5203994205115
0.0235564149446784,17.5214985045291
0.0244722903782758,17.5226316512994
0.0251816628425905,17.5238531383116
0.0255997333894693,17.5252731396253
0.025415604156132,17.5273555165481
0.0247411269230999,17.5288772113365
0.0237096071316279,17.5303989061249
0.0225272796023227,17.5318006278062
0.0211992504974034,17.5331998533242
0.0197341497612135,17.5346485584294
0.0181409739688151,17.5361842062435
0.0171339738031833,17.5371553551206
0.0161517109716805,17.5381265039977
0.0144556966411304,17.5399137188494
0.0119379322242076,17.5429028799001
0.00989645954605117,17.5457380705424
0.00828433594591068,17.5483535631102
0.00696566030558697,17.5508417565921
0.00586920747699395,17.5532412475248
0.00495719132270223,17.5555489687129
0.00418528487217063,17.5578004104889
0.00351603774479486,17.5600481259246
0.00291232589537587,17.5623901190647
0.00231194352660465,17.5651199729797
0.00192926990891742,17.5671397464765
0.00159167340440894,17.5691595199733
0.00132970830726161,17.5709205387624
0.00111392911541606,17.5725282050456
0.00092119415361921,17.5741094801877
0.000738306035343278,17.5757623909396
0.000552839820711113,17.5776220701238
0.000340437062573338,17.5800341432835
3.69664533416833e-05,17.5841873770812
-0.00018169600652241,17.587936156618
-0.000341354104277381,17.5912888176287
-0.00048519124873518,17.5950008809634
-0.00063093300119689,17.5999360700986
-0.000736245460057245,17.605361867847
-0.000777437438271918,17.6101506647039
-0.000762279905625897,17.6144890407538
-0.000690610147275733,17.6183981845466
-0.000560271148222644,17.6219233599083
-0.000367565208949602,17.6251162383082
-0.000107568395126984,17.6280270722163
0.000226386376223673,17.6307074200198
0.000644569211426893,17.6332143614198
0.00116334698537163,17.6356098875636
0.00181274987644885,17.6379752238161
0.00265290199623922,17.6404317889143
0.00382910006918498,17.643218607877
0.00536176820431768,17.6462017018798
0.00678928652789387,17.6485696073471
0.00842988752477475,17.6509375128143
0.0099876215867749,17.6528950555558
0.0115640624271111,17.6546287144854
0.0132496967832291,17.6562476931243
0.015055332288694,17.6577560433115
0.017058112765442,17.6592060159511
0.0192700228859557,17.6605889678479
0.0217441341862729,17.6619219633926
0.0245107595107337,17.6632043396684
0.0276096972834815,17.6644391978632
0.0310862800064597,17.6656298916834
0.0349852718484917,17.6667777923866
0.0393635666897825,17.6678862895897
0.0442867359926684,17.6689587014697
0.0498298263447818,17.6699981083457
0.0560816380895389,17.6710078092229
0.0631461054668051,17.671991038672
0.0711532150369732,17.6729519011909
0.0802593091401895,17.6738944877602
0.0906580211146063,17.6748233336838
0.102593492170235,17.6757436182108
0.116379879610201,17.6766614396701
0.132433188763576,17.6775843365701
0.151325039616614,17.6785221613197
0.17378593943358,17.6794849065091
0.199779757634458,17.6804497849741
0.229967918351516,17.6814262637648
0.265230962720532,17.6824279410769
0.306879052506901,17.6834779993896
0.345382084018678,17.6843636320543
0.38613742274871,17.6852492647189
0.421575518649975,17.6860052041985
0.452246113295041,17.6866748732199
0.479100225267931,17.6873013341905
0.502338397335249,17.687911739786
0.521677197618068,17.6885287821469
0.536331800215216,17.6891785901153
0.544606239411501,17.6899028482295
0.543130695629344,17.6906898347791
0.52997655348634,17.6915010037644
0.50373278019713,17.6923542153187
0.462471647867775,17.6932629584631
0.403993848624351,17.6942357456563
0.356549791162685,17.6948962486022
0.303783871576102,17.6955567515482
0.257255988179404,17.6961023119452
0.217870125452328,17.6965520844105
0.183546758756341,17.6969443857088
0.152949119112346,17.6973015794811
0.125297927166709,17.6976369386404
0.100075887144542,17.6979597460022
0.0768766051055325,17.6982779582309
0.0552973018461821,17.6986004921319
0.0347536114538052,17.698941934444
0.0135834019402764,17.6993462613461
0.00104787133560777,17.6996228785256
-0.00642728115317816,17.6998063416032
-0.0132632722297996,17.6999898046807
-0.019214188194237,17.7001647560403
-0.0252945628277397,17.7003619937137
-0.0312448806320964,17.7005782477384
-0.0368711252520736,17.7008107327659
-0.0420635307459649,17.7010582634029
-0.0467633670510101,17.701320717263
-0.0509424869788716,17.7015987079604
-0.0545914009937869,17.7018934209969
-0.0577194755594089,17.7022083180759
-0.0602740777288524,17.7025391286096
-0.0623173696959834,17.7028929552777
-0.0638643398568838,17.7032731969781
-0.0649294383462805,17.7036839812981
-0.065525508604716,17.7041304415556
-0.0656621629231756,17.7046190469204
-0.0653438243266661,17.7051581077247
-0.064565647757638,17.7057594560992
-0.0633084719977085,17.7064391970137
-0.0615317834502697,17.7072203547706
-0.0591530137466017,17.7081405350647
-0.0559816053801253,17.7092750432203
-0.0518340413532115,17.7106997317147
-0.0477906819668629,17.7120737073039
-0.0439123547042701,17.7134057450036
-0.0402311518259548,17.714698968279
-0.0367637657714262,17.7159546093769
-0.033518459836336,17.7171729454018
-0.030498028365754,17.7183537867001
-0.0277012793058964,17.7194967343053
-0.0251239395241434,17.7206013143882
-0.022759319326277,17.721667044804
-0.0205988658590362,17.7226934621175
-0.0186326521813518,17.7236801241744
-0.0168498166932059,17.7246265964708
-0.0152389551485448,17.7255324268497
-0.0136846477596535,17.7264610370636
-0.0121918046363947,17.7274136786361
-0.0107644454135944,17.7283922870631
-0.00940642314094184,17.7293991207052
-0.00812136956264673,17.7304368423528
-0.00691264406619467,17.7315086210691
-0.00578328013592949,17.7326182677995
-0.00473592935400239,17.7337704197668
-0.00377280259449714,17.7349707975015
-0.00289560748501343,17.7362265737434
-0.00210548020224524,17.7375469217347
-0.00140290782505291,17.7389438655429
-0.00078763384430341,17.7404336706098
-0.000258531516937242,17.7420392782389
0.000162874821943512,17.743687612643
0.000492513178971164,17.745391629739
0.000745672154367548,17.7471700538477
0.000936551951179095,17.749047138404
0.0010786681413055,17.7510561342737
0.00118537109315125,17.7532459246004
0.00127071676881032,17.7556957768895
0.00135147273491166,17.7585559363722
0.00145463046733856,17.7622151621811
0.00157897976095984,17.7660177226093
0.00174467488412035,17.7702870685934
0.00196330900893785,17.7752243146896
0.00217364738613378,17.7796314447533
0.0023708262523723,17.7836324215002
0.00256231078633123,17.7874676425078
0.00275218689498886,17.7912467348663
0.00294354389399549,17.7950336848233
0.00313920169821698,17.7988737195456
0.0033419453009045,17.8028033821707
0.00355460329013969,17.8068547283062
0.0037801418844466,17.8110583494971
0.00402174513985878,17.8154450424054
0.00428294040569452,17.8200471575569
0.00456782601032829,17.8248999972488
0.00488146385615759,17.8300430994324
0.00523013762238382,17.8355152198421
0.00558431448963061,17.8407981401434
0.00595598042039318,17.8460431382252
0.00634378120816509,17.8511856178892
0.006752658321335,17.856247732085
0.00718650904606028,17.8612310286153
0.00765027197323219,17.8661445046574
0.00814908454084602,17.8709930692355
0.00868853882031603,17.875779862482
0.00927469653838825,17.8805056733779
0.00991421522828035,17.8851695617331
0.01061591037652,17.8897784575014
0.0114049190043861,17.894421549165
0.012295579097488,17.8990886367949
0.0133105262815428,17.9037967797308
0.0144815676709557,17.9085790410761
0.0158615739802745,17.9135150696635
0.0175630594221996,17.9188196882453
0.0200068076083899,17.9254100449677
0.0216543671761994,17.9294292903612
0.0233677413151433,17.9334485357547
0.0248561168157899,17.9369711714495
0.0261096285446865,17.9401341873489
0.0271560620713447,17.9431376678874
0.0279652090725635,17.9460281966152
0.0285069925227069,17.9488110871795
0.028777239781446,17.9516070950799
0.0287397053017889,17.9545798712718
0.0282611924091047,17.9581157269995
0.0274654236214156,17.9612885929518
0.0263804839481327,17.964461458904
0.0252958563802559,17.96712338581
0.0242237272283161,17.9695101056365
0.0231514739249113,17.9717626863508
0.0220784198325428,17.9739424269161
0.0210075690291715,17.9760822670087
0.0199426727980293,17.9782033329139
0.018887386874075,17.9803207296253
0.0178451306090077,17.9824460928748
0.0168190462470124,17.9845889233983
0.0158119950337625,17.9867573618042
0.014826566597668,17.9889586798391
0.0138650893618869,17.9911996202091
0.0129296451009602,17.9934866366409
0.0120220776798137,17.9958260918389
0.0111440016720711,17.9982244243511
0.0102968181549272,18.000688278168
0.00948171555551654,18.0032246670452
0.00869417577737729,18.0058602523109
0.00791826426285,18.0086712012088
0.00715778456874263,18.0116775145738
0.00641653025887831,18.0149031806961
0.00569852494179716,18.0183759311114
0.00500799175657855,18.0221279335352
0.00434929308733084,18.0261966845051
0.0037268309223938,18.0306262275624
0.00314486794256301,18.0354692182727
0.00260727449289142,18.0407905803117
0.00211721991552762,18.0466742176847
0.00167700257574584,18.0532331415028
0.00130249412308444,18.0603137299625
0.00105153270850335,18.0662875760024
0.000856545359720074,18.0722614220422
0.000656706434645054,18.0805118798071
0.000501900998845418,18.0893037277632
0.00037813791100202,18.0990711897535
0.000289566676338354,18.1090711897535
0.000228638241137567,18.1190711897535
0.000187338368238385,18.1290711897535
0.000159814328000632,18.1390711897535
0.00014188527373127,18.1490711897535
0.000130652217222484,18.1590711897535
0.00012414417716817,18.1690711897535
0.00012103025362925,18.1790711897535
0.000120412171407501,18.1890711897535
0.000121685950451487,18.1990711897535
0.000124452082449076,18.2090711897535
0.000128456509979876,18.2190711897535
0.00013355095055109,18.2290711897535
0.000139666040357848,18.2390711897535
0.000146793593655566,18.2490711897536
0.000154975689197946,18.2590711897536
0.000164299071024641,18.2690711897536
0.000174893907545312,18.2790711897536
0.000186936445691207,18.2890711897536
0.000200655576140954,18.2990711897536
0.000216343833368302,18.3090711897536
0.00023437396147305,18.3190711897536
0.000255222999233922,18.3290711897536
0.000279507061606497,18.3390711897536
0.000308031932630538,18.3490711897536
0.000341867791028546,18.3590711897536
0.000382461894813906,18.3690711897536
0.000431812848615631,18.3790711897536
0.000489639327013076,18.3886042914723
0.000555487694350845,18.3974116092755
0.000630325021770912,18.4055381194324
0.00071535268361521,18.4130367458368
0.000811952725024745,18.4199570022396
0.000921695592870259,18.426344845158
0.00104636071990036,18.4322429389495
0.00118796304428863,18.4376909017374
0.00134878490544032,18.4427255178734
0.00153141117831288,18.4473809435398
0.00173877231012866,18.4516889084635
0.00197419352900292,18.4556789107494
0.00224145616645814,18.4593783958137
0.00254487046349384,18.4628129345825
0.00288936902771918,18.4660064107189
0.00328062605780444,18.4689812149957
0.00372521283339578,18.4717584507672
0.00423080993002848,18.4743581724106
0.00480650380724066,18.4767996756516
0.00546321888500303,18.4791018723409
0.00619978729580515,18.4812450906016
0.00701379417034529,18.4832253607026
0.0079166301822161,18.4850769645398
0.00892554145496719,18.4868346887415
0.0100684641132662,18.4885378591907
0.0113981561843928,18.4902425729803
0.0131118133822022,18.4921339682622
0.015016737565025,18.4939679955978
0.0166435838505045,18.495393126372
0.01835835839007,18.4968182571463
0.0198905641561813,18.4980734226421
0.0212577734147478,18.4992232867914
0.0224832680303196,18.500327465907
0.0235636825231368,18.5014266482995
0.0244782401355171,18.5025602083328
0.0251858908678417,18.5037826208773
0.0256012944071753,18.5052048255493
0.025408674546441,18.5072985466837
0.0247295729145722,18.5088176448426
0.0236959310225736,18.5103367430015
0.022511749261376,18.5117379507394
0.0211819444914011,18.5131375365101
0.0197151940594403,18.5145870998378
0.0181204561404955,18.516124070065
0.0171131083123181,18.5170957119554
0.0161311164006568,18.5180673538457
0.0141369514664753,18.5201877843474
0.0116754731121473,18.5231634731924
0.00968615700174391,18.5259776295614
0.00811586185290332,18.5285716119216
0.00681928620350925,18.5310624963676
0.00574812202965111,18.5334493400573
0.00485555114090349,18.5357479806265
0.00409819176956601,18.5379956367311
0.00343911266730019,18.5402481330424
0.00284033993722106,18.5426139144389
0.00223006705032055,18.5454512017709
0.00187211780237364,18.5473843870228
0.00155458515189298,18.5493175722747
0.00130100652496439,18.5510455434152
0.00108904967520539,18.5526440735316
0.000898171945775271,18.5542288303334
0.000715707778631086,18.5558984077781
0.000528752947616443,18.5577992448382
0.0003087620086399,18.5603445672751
1.25428479726785e-05,18.5644889806739
-0.000196181851586478,18.5681356201645
-0.000352050802713076,18.5714589812093
-0.000495057042530051,18.5752095243559
-0.000640997146038922,18.5802704029773
-0.000741021905306915,18.5856345447819
-0.000778198392514432,18.590392418959
-0.00075908459711273,18.5946987947714
-0.000683361844657823,18.5985793755846
-0.000548752065869533,18.6020794630851
-0.000351486711741335,18.6052505269947
-8.65023574874021e-05,18.6081434985453
0.000253050021110545,18.6108099503208
0.000677714307141301,18.613306881878
0.00120444401393098,18.6156969693212
0.0018658243205863,18.6180673129946
0.0027239916505315,18.6205383167349
0.00393570995464312,18.6233658794069
0.00549581563819818,18.6263586964409
0.00690300330174287,18.6286652249631
0.00851512688901456,18.6309717534854
0.0100779246231479,18.6329212383515
0.0116520977866142,18.6346393982447
0.0133504134434975,18.6362580206179
0.0151634446088373,18.6377603448573
0.0171751994595121,18.6392049718237
0.0194014053895037,18.6405854064861
0.0218904318601518,18.6419152274951
0.0246759225640919,18.6431954590237
0.0277945704183506,18.644427625294
0.0312934102416792,18.6456157824195
0.0352190069465621,18.6467617226354
0.0396260017843007,18.6478680413888
0.0445817684559476,18.64893845329
0.0501620966698335,18.6499760563908
0.056456659321369,18.6509841602658
0.0635708136658561,18.6519660556311
0.0716353124147822,18.6529257676942
0.0808085820359783,18.6538674461097
0.0912867083327755,18.6547956569061
0.103317182075515,18.6557156225637
0.117219240939976,18.6566335274156
0.133415414369586,18.6575569758349
0.152488582006948,18.6584960011702
0.175130679254543,18.6594586540146
0.201338301135901,18.6604238979155
0.231782438600769,18.6614013665833
0.267359680788642,18.6624049837938
0.309417318127568,18.6634588130388
0.347541554014757,18.6643319160951
0.387795776966468,18.6652050191514
0.422969263688742,18.6659554295464
0.453463104970566,18.6666225116618
0.480163214341649,18.6672477984782
0.503244319027553,18.6678580262792
0.522404058599018,18.6684758764719
0.536831137219002,18.6691278199862
0.544769492810914,18.6698567247359
0.542814018578932,18.6706443507994
0.529130954471904,18.6714569844752
0.502285232066985,18.6723123391855
0.46033066932197,18.6732236866723
0.401064409971002,18.6741993908477
0.353910841470257,18.67485112871
0.301633899998394,18.6755028665723
0.255496697334419,18.6760428649512
0.216363286881435,18.6764895585495
0.182215542372945,18.6768800492604
0.151752567844334,18.6772361174795
0.124210836106506,18.6775707906048
0.099080026226386,18.6778932524368
0.0759560427063813,18.6782114500621
0.0544334952624272,18.678534407108
0.0339120720329192,18.6788771672737
0.0126137725431077,18.6792868127431
0.000963263632178055,18.6795451914975
-0.00650173974936384,18.6797285758246
-0.0133284236471809,18.6799119601517
-0.0192713557083946,18.6800868398105
-0.0253514732007339,18.6802842664867
-0.0312994774607542,18.6805006828049
-0.0369220538487718,18.6807333127414
-0.042110042453004,18.6809809828556
-0.0468050791712892,18.6812435789083
-0.05097923767516,18.6815217204509
-0.0546231642152157,18.6818165979203
-0.0577531419970327,18.6821324775704
-0.0603016111980965,18.6824635578996
-0.0623388539450565,18.6828176808057
-0.0638799510992884,18.6831982631861
-0.0649393435003339,18.6836094433474
-0.0655298458016789,18.6840563684339
-0.0656610205672854,18.6845455262849
-0.0653372141075756,18.6850852534865
-0.0645534295254099,18.6856874396117
-0.0632903108047339,18.6863682426381
-0.0615069999770358,18.6871508055826
-0.059120187515192,18.6880729921631
-0.055937066936597,18.6892108936469
-0.0517902937204081,18.6906349050785
-0.0477484406028547,18.6920084103926
-0.043872084312122,18.6933400251337
-0.0401930905523269,18.6946328455776
-0.0367280374095718,18.6958880902467
-0.0334851188873218,18.6971060294124
-0.0304670808367606,18.6982864702197
-0.0276726944195073,18.6994290124103
-0.0250976576265341,18.7005331818401
-0.0227352582199862,18.7015984964973
-0.0205769262643122,18.7026244932092
-0.0186127226612894,18.7036107300087
-0.0168317780646081,18.7045567723626
-0.0152217764177535,18.70546269417
-0.0136681114321645,18.706391556919
-0.0121759572439264,18.7073444692122
-0.0107493297238143,18.7083233709815
-0.00939207980470051,18.7093305245085
-0.0081078365571127,18.7103685974772
-0.00689995612753074,18.711440765112
-0.00577146816453658,18.712550846224
-0.00472501979289249,18.7137034882452
-0.00376281677371309,18.7149044252254
-0.00288656091725349,18.7161608482487
-0.00209738180031421,18.7174819562067
-0.00139575898623217,18.7188798104073
-0.000781427288922365,18.7203707330356
-0.000253249639171831,18.7219777575705
0.00016703583083923,18.7236265947115
0.000495739695593801,18.7253313308413
0.000748127606255555,18.7271107083442
0.000938389996621401,18.7289890590267
0.00108003736546438,18.7309997627844
0.00118642212765083,18.7331919369284
0.00127161584267047,18.7356453350889
0.00135243852509908,18.738511472166
0.0014561150669979,18.7421845025807
0.00158083424651116,18.7459896616687
0.00174718576448677,18.7502672696073
0.00196609406309438,18.7552044019604
0.00217618966085691,18.7596037442673
0.00237326148428829,18.7636015699655
0.00256470400224886,18.7674355496269
0.00275458065677398,18.7712143996728
0.00294597453912538,18.7750017607377
0.00314170426729793,18.7788427086576
0.00334455486638713,18.7827737074686
0.00355735612311763,18.7868267790253
0.00378307646330221,18.7910325084584
0.00402490334767951,18.7954217038602
0.00428636961706941,18.8000267439227
0.00457158287889023,18.8048829772122
0.00488562062082526,18.8100300014957
0.00523436435993076,18.8155000145575
0.00558874603311658,18.8207826295895
0.00596059023233565,18.8260263802705
0.0063486240592909,18.8311678536887
0.00675777805024541,18.8362289623622
0.00719196310719048,18.8412113682368
0.00765612073481436,18.8461240272164
0.0081553934454152,18.8509718266939
0.00869537852965724,18.8557578770574
0.00928214424675178,18.8604829429789
0.00992235610981922,18.8651460665577
0.0106250371432021,18.8697553926879
0.0114151807050212,18.8743987213303
0.0123072163074114,18.8790662022625
0.0133238569916174,18.8837749940706
0.0144970769286414,18.8885585168237
0.0158801415378242,18.8934973052895
0.0175868810627356,18.8988091746028
0.0200309572305974,18.9053909639927
0.0216752539910255,18.9093990381781
0.0233842023837379,18.9134071123634
0.0248696958164576,18.9169242050621
0.0261210617780306,18.9200847626939
0.0271654426308571,18.9230874035844
0.0279718887480643,18.9259762752912
0.0285110342901109,18.9287586691167
0.0287784819983234,18.9315554962624
0.0287375148367377,18.9345312479562
0.0282529322020344,18.9380772693448
0.0274558390472286,18.9412406695973
0.0263719245594957,18.9444040698498
0.0252877131007765,18.9470623798181
0.0242156295658812,18.9494476641797
0.0231433656672311,18.9516995167353
0.0220703150992585,18.9538788533415
0.020999495116105,18.9560184826432
0.0199346579627045,18.9581394699954
0.0188794579359789,18.9602568868554
0.0178373123780113,18.9623823488134
0.0168113614143188,18.9645253438615
0.0158044641647974,18.9666940045208
0.0148192082754338,18.9688955973436
0.0138579202550106,18.9711368620271
0.0129226799800446,18.9734242510815
0.0120153296440522,18.9757641269591
0.0111374821124286,18.9781629293718
0.010290536813024,18.9806273045944
0.00947568066620489,18.9831642695398
0.00868821618297847,18.9858011201093
0.00791240853179312,18.9886134746589
0.00715206066912529,18.9916213637952
0.00641096800155215,18.9948488019351
0.00569315583181185,18.9983235514275
0.00500284856066605,19.0020778172165
0.00434440934153016,19.0061491403988
0.00372223993167485,19.0105816205071
0.00314060103689887,19.0154279901366
0.00260335884492153,19.0207532872255
0.00211367630190018,19.0266415961271
0.00167384537118923,19.0332061935985
0.00129984107017602,19.040290865801
0.00105158797969424,19.0462063078956
0.000858265586658304,19.0521217499902
0.000658954035190288,19.0603249470088
0.000503525307815632,19.0691167617105
0.000379370159504467,19.0788754453031
0.000290416837385547,19.0888754453031
0.000229218457860609,19.0988754453032
0.000187728766147536,19.1088754453032
0.000160072132809187,19.1188754453032
0.000142050557962948,19.1288754453032
0.000130752510297909,19.1388754453032
0.000124198191217931,19.1488754453032
0.000121050661482502,19.1588754453032
0.000120407528143049,19.1688754453032
0.000121661969912567,19.1788754453032
0.000124412480179886,19.1888754453032
0.00012840356713747,19.1988754453032
0.000133485894892517,19.2088754453032
0.000139589300995567,19.2188754453032
0.000146704964115717,19.2288754453032
0.000154874421058925,19.2388754453032
0.000164183912521842,19.2488754453032
0.000174763095308647,19.2588754453032
0.000186787652174514,19.2688754453032
0.000200485809722598,19.2788754453032
0.000216149281852502,19.2888754453032
0.000234149761737199,19.2988754453032
0.000254962904382569,19.3088754453032
0.000279202959485907,19.3188754453032
0.000307673141225639,19.3288754453032
0.000341440008572655,19.3388754453032
0.000381945599242891,19.3488754453032
0.000431180790478631,19.3588754453032
0.000488917782972655,19.3684171692851
0.000554667326218779,19.3772327786302
0.000629392890403816,19.3853669453096
0.000714293691323064,19.3928726266488
0.000810749644012606,19.399799379527
0.000920328885305481,19.4061932005905
0.00104480825956421,19.4120967912514
0.00118619977664319,19.4175498040127
0.00134678244950751,19.4225890552042
0.00152913738586779,19.4272487305996
0.00173619071581081,19.4315605871779
0.00197126271829042,19.4355541481014
0.00223812900391627,19.4392568817999
0.00254109311648529,19.4426943800793
0.00288507976463094,19.4458905452335
0.00327575365165468,19.4488677843682
0.00371967446395204,19.451647214612
0.00422450829580767,19.4542489010622
0.00479932298777522,19.4566921463839
0.00545501819964115,19.4589958642477
0.00619073031715386,19.4611411951108
0.00700377427411908,19.4631231774234
0.00790548437603358,19.4649760898586
0.00891302070616247,19.4667347025583
0.010054141643564,19.4684382411123
0.0113811480464869,19.4701424665037
0.0130883062963968,19.472030016494
0.0150034695480332,19.4738761332615
0.0166308155665915,19.4753024889653
0.0183466244176607,19.4767288446692
0.0198801963098932,19.4779850756342
0.0212484663225515,19.4791354483195
0.0224749662307342,19.4802398003562
0.0235564761279577,19.4813388854038
0.0244723395144753,19.4824720360237
0.0251816963367497,19.4836935314705
0.025599742824557,19.4851135526322
0.0254155380253763,19.4871960303163
0.0247410196038933,19.488717701801
0.0237094811490628,19.4902393732858
0.0225271373029123,19.4916410904312
0.0211990925951534,19.493040319212
0.0197339774176328,19.4944890319849
0.0181407880127664,19.4960246915567
0.0171337850401258,19.4969958447055
0.016151524899959,19.4979669978543
0.0144535862553508,19.4997563482876
0.011936198569055,19.5027454149554
0.00989507354058586,19.5055804635465
0.00828322800133957,19.5081958121789
0.00696469825209959,19.5106840216295
0.00586841337822268,19.5130834266519
0.0049565261744548,19.5153910854056
0.00418471601155374,19.5176424994669
0.00351553615621673,19.5198902426209
0.00291185769440155,19.5222323833449
0.00231142019118717,19.5249628755457
0.00192891741683292,19.526982036443
0.0015914584944345,19.5290011973402
0.00132954603013148,19.5307619989336
0.00111378959903946,19.5323696055784
0.00092106542149196,19.5339508972772
0.000738179669089421,19.5356039006711
0.000552704990101011,19.537463809068
0.000340261709468434,19.5398765918309
3.68359203809424e-05,19.5440297088387
-0.000181759249305834,19.547777686091
-0.000341389321252956,19.5511299603537
-0.000485218699594036,19.5548420110377
-0.000630958081814593,19.5597774418786
-0.000736256532751582,19.565203084567
-0.000777437618019964,19.5699917953933
-0.000762269314129817,19.5743300828913
-0.000690588496488468,19.5782391482754
-0.000560237730777514,19.5817642571327
-0.000367519432284497,19.5849570735922
-0.000107508877757093,19.5878678597494
0.000226461468459144,19.590548171404
0.000644661758000516,19.5930550837094
0.00116346046850716,19.5954505918723
0.00181289967426959,19.597815954857
0.00265310341720599,19.6002725649079
0.00382939912556492,19.6030594957262
0.00536214396399948,19.6060426180172
0.00678959907609251,19.6084103409446
0.00843011152278904,19.6107780638719
0.00998789581544228,19.612735630696
0.0115643082484968,19.6144692205345
0.0132500354765702,19.6160882503905
0.0150556901771785,19.6175965763735
0.0170584918670484,19.6190465258035
0.0192704476932187,19.6204294693458
0.021744606195419,19.6217624541088
0.0245112932715063,19.6230448237978
0.0276102950231871,19.624279673295
0.0310869498680224,19.6254703588485
0.0349860275652013,19.6266182530519
0.039364415547183,19.6277267431761
0.0442876905851955,19.6287991485381
0.0498309016500926,19.6298385495182
0.0560828525765898,19.6308482452637
0.0631474799937802,19.6318314702
0.0711547753187934,19.6327923289228
0.080261086801215,19.6337349124813
0.0906600556391674,19.6346637562744
0.102595833795383,19.635584039689
0.116382595013149,19.6365018613382
0.132436365151278,19.6374247599151
0.151328800274271,19.6383625884145
0.173790285454935,19.6393253332087
0.199784794026702,19.640290212743
0.229973780672041,19.6412666945947
0.265237837353821,19.6422683779804
0.306887242358842,19.6433184481318
0.345389033604223,19.64420403954
0.386142731699046,19.6450896309482
0.42157997866158,19.6458455524477
0.452250013449079,19.6465152130764
0.479103640130095,19.647141670187
0.502341318487772,19.6477520750927
0.521679556845504,19.64836911988
0.536333446546232,19.6490189344462
0.544606835666367,19.6497432069882
0.543129783162186,19.6505301954472
0.529973978751142,19.6513413689603
0.503728313631762,19.6521945872093
0.462465000513978,19.6531033385386
0.403984718680823,19.6540761349184
0.356541562648894,19.6547366101711
0.303777175111757,19.6553970854237
0.257250515225,19.6559426282866
0.21786544075388,19.6563923910673
0.183542620739799,19.6567846866782
0.152945399529537,19.6571418769136
0.125294547393327,19.6574772339106
0.100072790500252,19.657800040171
0.0768737422453195,19.6581182523242
0.0552946156836891,19.6584407874967
0.0347509969190976,19.6587822338041
0.0135804128382267,19.6591865765707
0.00104793789299229,19.6594631300761
-0.00642722740533587,19.6596465933235
-0.0132632298230715,19.6598300565709
-0.019214151482932,19.6600050079752
-0.0252945264620865,19.6602022455124
-0.031244846012224,19.6604184994185
-0.0368710932977285,19.6606509843388
-0.0420635019572606,19.6608985148717
-0.0467633416825665,19.6611609686257
-0.0509424651300685,19.6614389592106
-0.0545913826705782,19.661733672125
-0.0577194547389208,19.6620485683726
-0.0602740614469505,19.6623793786991
-0.0623173578933852,19.6627332051417
-0.0638643323953956,19.663113446584
-0.0649294350950374,19.6635242306054
-0.0655255094543528,19.663970690514
-0.0656621678008527,19.6644592954657
-0.0653438332153027,19.6649983557742
-0.0645656607500165,19.6655997035283
-0.0633084893263486,19.6662794436599
-0.0615318055933809,19.6670606003866
-0.0591530417094049,19.6679807792187
-0.0559816417619356,19.6691152849212
-0.0518340770454964,19.6705399739204
-0.0477907164389893,19.671913949865
-0.0439123876100178,19.6732459878877
-0.0402311829869866,19.6745392114729
-0.0367637950949337,19.6757948528772
-0.0335184872818684,19.6770131892098
-0.0304980539297329,19.6781940308192
-0.0277013030130857,19.6793369787399
-0.0251239614216208,19.6804415591427
-0.0227593394786758,19.6815072898824
-0.0205988843442723,19.6825337075239
-0.0186326690868386,19.6835203699125
-0.0168498321124032,19.6844668425444
-0.0152389691779231,19.6853726732627
-0.0136846613109188,19.686301283286
-0.0121918176688132,19.6872539246578
-0.0107644578953381,19.6882325328675
-0.00940643504168892,19.6892393662727
-0.0081213808540352,19.6902770876601
-0.00691265472224337,19.6913488660884
-0.00578329013347957,19.6924585124972
-0.00473593867316818,19.6936106641017
-0.00377281121914926,19.6948110414224
-0.00289561540329466,19.6960668171857
-0.0021054874071346,19.6973871646145
-0.00140291431503274,19.6987841077491
-0.000787639624197447,19.7002739119893
-0.000258536599090586,19.7018795185705
0.000162870583186487,19.7035278526029
0.000492509645600688,19.7052318691672
0.000745669205476332,19.707010292571
0.000936549473192634,19.7088873761912
0.00107866602453598,19.7108963707985
0.00118536922658318,19.7130861593637
0.00127071503019601,19.7155360090339
0.00135147096387892,19.7183961641064
0.00145462833368986,19.7220553797616
0.00157897737131614,19.7258579382859
0.00174467202585185,19.730127278192
0.00196330596275319,19.735064524418
0.0021736445519328,19.7394716607638
0.00237082351189937,19.7434726400577
0.00256230808221009,19.7473078620791
0.00275218418961617,19.7510869546515
0.00294354115553095,19.7548739042999
0.00313919889611214,19.7587139383132
0.00334194240448354,19.7626435998924
0.0035546002674153,19.7666949446728
0.00378013870110037,19.7708985642046
0.00402174175808931,19.7752852551415
0.0042829367823408,19.7798873679873
0.00456782209358473,19.7847402050031
0.00488145958018768,19.7898833040935
0.00523013325914881,19.7953554265242
0.00558430991868291,19.8006383472858
0.00595597565781377,19.8058833466115
0.00634377620119253,19.8110258272956
0.00675265302622188,19.8160879424994
0.00718650340687449,19.8210712399313
0.00765026593063515,19.8259847168075
0.00814907802995954,19.8308332821725
0.00868853177043676,19.8356200761866
0.00927468887167167,19.8403458878533
0.00991420685835517,19.8450097769993
0.0106159010040822,19.8496186723307
0.011404908477691,19.8542617637561
0.0122955671710351,19.8589288509876
0.0133105126310163,19.8636369932648
0.0144815518020922,19.8684192533284
0.015861554998064,19.8733552791119
0.0175630350993544,19.8786598903385
0.0200067829508882,19.8852502558158
0.0216543458621812,19.8892695126579
0.0233677245337772,19.8932887695
0.0248561029745087,19.8968114108591
0.0261096168871513,19.8999744292682
0.0271560525006903,19.9029779106671
0.0279652022483298,19.9058684410864
0.0285069883797033,19.9086513321622
0.0287772384823281,19.9114473392386
0.0287397074861004,19.9144201124238
0.0282612007317546,19.9179559579036
0.0274654332887276,19.9211288334964
0.026380492565467,19.9243017090893
0.0252958645724096,19.9269636396671
0.0242237353738795,19.9293503609469
0.0231514820813158,19.9316029423982
0.0220784279855845,19.9337826833729
0.0210075771517612,19.93592252368
0.0199426808616277,19.9380435896666
0.0188873948514385,19.9401609863599
0.0178451384749272,19.9422863495124
0.0168190539784215,19.9444291798728
0.0158120026097395,19.9465976180579
0.0148265739992877,19.9487989358194
0.0138650965721541,19.9510398758668
0.0129296521047894,19.9533268919281
0.012022084463802,19.9556663467081
0.0111440082245374,19.9580646787537
0.0102968244658489,19.9605285320536
0.00948172161639217,19.9630649203603
0.00869418176292776,19.9657005043548
0.00791827014428145,19.9685114518407
0.00715779031789475,19.9715177636229
0.00641653584572924,19.9747434279652
0.00569853033461544,19.9782161763726
0.00500799692235589,19.981968176523
0.00434929799227948,19.9860369249096
0.00372683553294915,19.9904664650172
0.00315331208157619,19.9952332325086
0.00266602260881444,20
