ecg,time
0.0169771855663202,15.00049724867
0.0191329944670475,15.0066234453673
0.0208823223599022,15.0110869268199
0.0227320525132939,15.0155504082725
0.0242862269358088,15.0192827855342
0.0255797002575814,15.0225531222541
0.0266623532082608,15.0256177783053
0.0275254613367443,15.0285925725983
0.0281192244087536,15.0314293625302
0.0284443802289549,15.0342484864373
0.0284743426602644,15.0372002186973
0.0281121494955339,15.04058504143
0.027333179556006,15.0440505188404
0.0262055320129618,15.0475159962507
0.0251061314173351,15.0502915888521
0.0240304657113727,15.0527392258497
0.0229568717762574,15.0550380068081
0.0218829990839077,15.057257805517
0.0208115594074315,15.0594344299588
0.0197462159726622,15.0615904116619
0.0186906619632392,15.0637416785826
0.0176483804011475,15.0659004047266
0.016622586114032,15.0680764565252
0.0156162148243284,15.0702782310438
0.0146319288368757,15.0725131809602
0.0136721314984682,15.074788157746
0.0127389718899285,15.0771096786448
0.0118343600106646,15.0794841086506
0.010959975887231,15.0819178178836
0.0101172720048529,15.0844173366878
0.00930748811799109,15.0869894666177
0.00853100577976683,15.0896437264069
0.00776658686706557,15.0924735712523
0.00701807642797964,15.0954984878281
0.00628920687127399,15.0987421660657
0.00558392419196886,15.1022319089337
0.00490634625097697,15.1059993242283
0.00426069789507683,15.1100811944535
0.00365120092387331,15.1145207331396
0.00308190284193986,15.1193696243061
0.00255654541768085,15.1246917281411
0.00207810775146866,15.1305695673821
0.00164867593687901,15.1371135590797
0.00127943744898303,15.1442577971219
0.00097154181254703,15.1519876447854
0.000718335162380121,15.1604292335617
0.000513603705629437,15.1697499803275
0.00036375788941928,15.1797499803275
0.000276384252061073,15.1883791999555
0.000204072231691243,15.1983791999555
0.000153617906054332,15.2083791999555
0.000118549339806012,15.2183791999555
9.45227441016709e-05,15.2283791999555
7.83595672948377e-05,15.2383791999555
6.77152620880384e-05,15.2483791999555
6.09124040464891e-05,15.2583791999555
5.67886992575353e-05,15.2683791999555
5.45529035580225e-05,15.2783791999555
5.36678602303441e-05,15.2883791999555
5.37672758228605e-05,15.2983791999555
5.46007275957856e-05,15.3083791999555
5.5997920008507e-05,15.3183791999555
5.78449044125905e-05,15.3283791999555
6.00677355566663e-05,15.3383791999555
6.26210396277896e-05,15.3483791999555
6.54800358053815e-05,15.3583791999555
6.86350548198135e-05,15.3683791999555
7.20878609936463e-05,15.3783791999555
7.58492661723314e-05,15.3883791999555
7.99376705437421e-05,15.3983791999555
8.43782818221468e-05,15.4083791999555
8.92028514897221e-05,15.4183791999555
9.44498298264345e-05,15.4283791999555
0.000100164887644947,15.4383791999555
0.000106401788763801,15.4483791999555
0.000113223628543857,15.4583791999555
0.000120704484311329,15.4683791999555
0.000128931556764622,15.4783791999555
0.000138007921355788,15.4883791999555
0.000148056059970397,15.4983791999555
0.00015922241262946,15.5083791999555
0.000171683286047672,15.5183791999555
0.000185652595290671,15.5283791999555
0.000201392119198898,15.5383791999555
0.000219225255956117,15.5483791999555
0.000239555731437345,15.5583791999555
0.000262893438900887,15.5683791999555
0.000289890744179857,15.5783791999555
0.000321394475234398,15.5883791999555
0.000358521972076261,15.5983791999555
0.000402775021179684,15.6083791999555
0.000456215217387265,15.6183791999555
0.000517279472082503,15.6277507214333
0.000586145987089374,15.6364141264388
0.000663721842119612,15.6444183064983
0.000751098976146708,15.6518135180904
0.000849527026757833,15.6586466155623
0.00096042157152452,15.6649611544098
0.00108538386212553,15.6707976867155
0.00122622546008956,15.6761939925666
0.0013849990120621,15.6811851649291
0.00156402419347981,15.6858037748511
0.00176593188890246,15.6900800942113
0.00199370519612879,15.6940423430144
0.00225073538605066,15.6977167816051
0.00254087724290439,15.7011278236517
0.00286852698577594,15.7042982475339
0.00323872588645901,15.707249392256
0.00365726989788095,15.7100012538714
0.00413087087105173,15.712572683651
0.0046673784959183,15.7149816373795
0.00527606471286357,15.717245369237
0.00596805686257744,15.7193807713706
0.00673540839322779,15.7213541255716
0.00757956701907194,15.7231767286423
0.0085113204830512,15.7248789001129
0.0095463618801918,15.7264903319387
0.0107090500206041,15.72804308067
0.0120483298405297,15.7295855481171
0.0137266327562885,15.7312537581676
0.0161928964436454,15.7333520278692
0.0179584234666469,15.7346911032756
0.0198328508687888,15.736030178682
0.0215500646289264,15.7372288200421
0.0230838796254171,15.7383176042181
0.0244663993323852,15.7393571406316
0.0256995121455488,15.7403879086681
0.0267655583316226,15.7414470920442
0.027627095523853,15.7425839389973
0.0282078747514949,15.7438937109366
0.028262849792919,15.7457279190598
0.0277056067926426,15.7472316314974
0.0267159978120689,15.7487353439351
0.025550240100031,15.7500911829373
0.0242183788086656,15.7514396528669
0.0227285026894875,15.7528389046165
0.0210900396367641,15.7543280734322
0.0193070948528533,15.7559495065199
0.0174035924241709,15.7577646144463
0.0155338170934804,15.759719106339
0.0129662109892093,15.7627917540701
0.0109505403707724,15.7656634428631
0.00940479723776636,15.7682832552075
0.00817554627572798,15.7707564409969
0.00713275195962162,15.7732641041929
0.00625256308641344,15.7758372504714
0.00552211134863679,15.7784990757816
0.0049350976477409,15.7812726167609
0.00449201054623748,15.7841824589357
0.00420213388503021,15.7872561279943
0.00408870884005696,15.7904324029248
0.00415280761286322,15.7932894881193
0.00435935041648347,15.7958847460099
0.00468963646764317,15.7982669462891
0.00513694104381027,15.8004844894678
0.00570624847781799,15.8025898753557
0.00641767952320348,15.8046450541338
0.00731535662920149,15.8067299479861
0.00850168749625728,15.8089841618271
0.0101947318774515,15.8116342426732
0.0122889475305574,15.8143667375933
0.0139060875949223,15.8161931553611
0.0157333252356271,15.8180195731289
0.0175976266576596,15.819658385971
0.0195456049440309,15.8211606766278
0.0216431511048567,15.8225739581586
0.0239420370036833,15.8239207063327
0.0264873929264406,15.8252116962901
0.029322885200695,15.8264527727957
0.032493736842913,15.8276477854324
0.0360475895694422,15.8287994678936
0.0400359418091423,15.8299101215101
0.0445187889295083,15.8309826719111
0.0495623175215767,15.832019591461
0.0552455900158862,15.8330240165621
0.0616592296415461,15.8339988725144
0.0689098640263581,15.834947219412
0.0771263005742937,15.8358725070105
0.0864625929911071,15.8367782585877
0.0971060753445462,15.8376682548737
0.109288142215156,15.8385466819527
0.123297427165009,15.8394181821193
0.139500320899193,15.840288080306
0.158371898363598,15.8411627190449
0.180546862328881,15.8420500739387
0.206872256271139,15.842959707909
0.237304856353666,15.8438703809757
0.272588305051019,15.8447905986939
0.313747606280479,15.845734371296
0.362493621687839,15.8467308335239
0.39987505549692,15.8474392819321
0.43852293310653,15.8481477303402
0.472869750496544,15.8487799089434
0.503043747578015,15.8493613246191
0.529565056717915,15.8499221752935
0.552370876768779,15.8504859135048
0.570889620571089,15.851077985342
0.583757124842475,15.8517387773173
0.58750195079966,15.8524794267043
0.579392958736803,15.8532451486195
0.558129577808452,15.8540580060247
0.52351492518114,15.8548990623562
0.475681916840068,15.855763332914
0.412545220129277,15.8566780022143
0.361811292491061,15.8573134461241
0.30639656301526,15.857948890034
0.258205626411157,15.858473492498
0.217693680582706,15.8589070512835
0.182516033022811,15.8592865132156
0.151228247151124,15.8596332348119
0.122995189240152,15.8599599599127
0.0972595832934963,15.8602757910586
0.0735740654619109,15.8605888772591
0.0514694504264973,15.8609090877097
0.0301737085140321,15.8612548148805
0.00666334557513902,15.8617016979702
-0.00205286270674499,15.8618930858509
-0.00999715588466885,15.8620844737316
-0.0165487817825747,15.8622576263639
-0.0227330892310511,15.8624370482451
-0.028944080703757,15.8626370403454
-0.034932105708379,15.8628542402454
-0.0405401943808283,15.8630866945386
-0.0456809445022818,15.8633337456183
-0.0503089294676523,15.8635956073323
-0.0544042468304409,15.8638731298134
-0.0579627512326227,15.8641676884869
-0.0609900408482949,15.8644811510563
-0.0634949970907192,15.8648158992752
-0.0655854361796724,15.865197801576
-0.0670242951792268,15.8655830432018
-0.0679833486110636,15.8660002997746
-0.0684768122849096,15.8664555528356
-0.0685135286354209,15.8669560490877
-0.0680960412842619,15.867511234321
-0.0672148460056707,15.8681352558342
-0.0658437206615177,15.8688469115803
-0.0639273418790369,15.8696751596479
-0.061346079497839,15.8706717245979
-0.0577701138938745,15.8719632080777
-0.053745771150486,15.8733733295935
-0.0498360563294545,15.8747400699466
-0.0460929318228457,15.8760678172298
-0.0425426541573164,15.8773584627337
-0.0391993412505272,15.8786125642964
-0.0360700789674556,15.8798300140817
-0.0331571633933636,15.8810103949064
-0.0304592789518039,15.882153168513
-0.027972258388305,15.883257772935
-0.0256896683806365,15.8843236685737
-0.0236033137147698,15.8853503535839
-0.0217036927875511,15.8863373596384
-0.0199804114075802,15.8872842342168
-0.0184225549440795,15.8881905128041
-0.0169201796354172,15.8891185945418
-0.0154762403551084,15.8900706996144
-0.0140945617621255,15.8910487481934
-0.012778786293884,15.8920549909722
-0.0115323322838755,15.8930920818284
-0.0103583403417323,15.8941631792237
-0.00925961610417552,15.8952720811154
-0.00823856877675153,15.8964234083583
-0.00729714434742421,15.8976228602584
-0.00643675132914534,15.8988775811853
-0.00565817504266995,15.9001967051396
-0.00496147299665025,15.9015921996734
-0.00434583692062812,15.9030802446555
-0.00380939143290841,15.9046836431203
-0.00337330496607442,15.906331053096
-0.00302229042782787,15.908033826998
-0.00274092014073575,15.9098106534621
-0.00251462893057111,15.9116856622207
-0.00232920369020824,15.9136919031928
-0.00217007622131393,15.9158778980425
-0.00202102840079111,15.9183221689964
-0.00186102327822686,15.9211730295077
-0.00168237089394058,15.9243045211554
-0.00148389613418384,15.9275356395763
-0.00126047112784194,15.9308838074775
-0.00101197302285642,15.9343674027627
-0.000741174749735172,15.9380049630015
-0.000452008816348507,15.9418155256046
-0.00014829624415781,15.9458188786885
0.000167049236721182,15.9500360071932
0.000492431709769236,15.9544899132868
0.000810889642508447,15.9589657478504
0.00111246972065414,15.9633114366915
0.00141437297868588,15.967758360698
0.00174404150938648,15.9727075043501
0.00207171359734417,15.9776917343689
0.00239782494486467,15.9826867077119
0.00270148961900239,15.9873369751139
0.00297245174449823,15.991463109453
0.00323198184403835,15.9953787813618
0.00348972159099736,15.9992165549504
0.00375153498674907,16.0030488768269
0.00402197874873865,16.0069249228973
0.00430521334542127,16.0108833631625
0.00460540967983186,16.0149572994876
0.0049270703541318,16.0191775266576
0.00527530972683706,16.0235745232772
0.00565617109733103,16.0281798119294
0.00607708651798674,16.0330271713071
0.00654271271404406,16.0381015217651
0.00702569576688316,16.0430528705033
0.00753836811544483,16.0479754892114
0.00808099360414062,16.0528263733167
0.0086593341066653,16.0576101068522
0.00927931946624035,16.0623244191546
0.00994835437931153,16.0669715530225
0.0106818410993139,16.0715956439739
0.0115011710614011,16.0762502858947
0.0124234312515009,16.0809369735789
0.0134733927683592,16.085676841077
0.0146869537189062,16.0905125915222
0.0161262778203827,16.0955462767076
0.0179363439744063,16.1010717286291
0.0203596766005996,16.1075289745495
0.0219327238201218,16.1113809206135
0.0235448806533643,16.1152328666775
0.0249522768406586,16.1186758558985
0.026138979666885,16.1218209528169
0.0271199532921187,16.1248430990142
0.0278495033041273,16.1277345196292
0.0283127390314607,16.1305465950065
0.0284990867018146,16.1334077820934
0.0283578146405007,16.1365123884829
0.0276824659553588,16.1404402317332
0.0268438160735521,16.1434136471615
0.0257758037153218,16.1463870625899
0.024697521641256,16.1489847731705
0.0236242584994533,16.1513624412921
0.0225504366666454,16.1536257091493
0.0214770857355123,16.1558259336918
0.0204075169354682,16.1579925689788
0.0193454580500645,16.1601451587729
0.0182945351290289,16.1622979818404
0.0172581344957559,16.164462208825
0.0162393634633704,16.1666470773647
0.0152410544125873,16.1688605748214
0.014265769640678,16.1711098934406
0.0133158141667327,16.1734017347232
0.0123932487614461,16.1757425299634
0.0114998925773179,16.1781386358183
0.0106373376646658,16.1805964703328
0.00980695823310417,16.1831226426908
0.00900991215643053,16.1857241001048
0.00823764106827778,16.1884430792499
0.00747887494855281,16.1913447563396
0.00673741438292557,16.1944501524009
0.00601707789218456,16.1977842575328
0.0053218803291138,16.2013759389788
0.00465599084046694,16.2052586570609
0.00402364984649594,16.2094714628127
0.00342903677921625,16.2140604929797
0.002876094531324,16.2190815080847
0.00236834463375259,16.2246045793374
0.00190840226606794,16.2307216545303
0.00149807690071231,16.2375564747163
0.00115333943181277,16.244915730885
0.000867385613201665,16.2529040709188
0.000633653437009534,16.2616635200511
0.000447820437332305,16.2713809861511
0.0003328895822444,16.2803330788751
0.000243081936291308,16.2903330788751
0.000180680371271954,16.3003330788751
0.000137207338456621,16.3103330788751
0.000107226878798749,16.3203330788751
8.68721922946646e-05,16.3303330788751
7.32993761559274e-05,16.3403330788751
6.44546162124009e-05,16.3503330788751
5.89001143883188e-05,16.3603330788751
5.56511595874854e-05,16.3703330788751
5.40382625885205e-05,16.3803330788751
5.36050858821962e-05,16.3903330788751
5.40393587817194e-05,16.4003330788751
5.51277250532841e-05,16.4103330788751
5.67259336242418e-05,16.4203330788751
5.87385624678656e-05,16.4303330788751
6.11049058686998e-05,16.4403330788751
6.37891036675514e-05,16.4503330788751
6.67733069535365e-05,16.4603330788751
7.00530338546341e-05,16.4703330788751
7.36340939206816e-05,16.4803330788751
7.75306321209031e-05,16.4903330788751
8.17639808101683e-05,16.5003330788751
8.63621123298503e-05,16.5103330788751
9.13595606381033e-05,16.5203330788751
9.67977349534038e-05,16.5303330788751
0.000102725589408579,16.5403330788751
0.00010920064621766,16.5503330788751
0.000116290400394725,16.5603330788751
0.000124074165318896,16.5703330788751
0.000132645454001867,16.5803330788751
0.000142115034956761,16.5903330788751
0.00015261485956053,16.6003330788751
0.000164303137468136,16.6103330788751
0.000177370949410321,16.6203330788751
0.00019205095011139,16.6303330788751
0.000208628955687126,16.6403330788751
0.000227459574203978,16.6503330788751
0.000248987598487353,16.6603330788751
0.000273777760784698,16.6703330788751
0.000302556864566558,16.6803330788751
0.000336274643029246,16.6903330788751
0.000376193651804019,16.7003330788751
0.000424025426376557,16.7103330788751
0.000480852218650979,16.7201276748263
0.000545087803653993,16.7291986904201
0.000617474575309218,16.7375800806366
0.000699008184136321,16.7453236244598
0.000790846569945559,16.7524782162066
0.000894306617405173,16.7590892948983
0.0010108789765256,16.7651991268881
0.00114224950683967,16.7708470869028
0.00129032710967787,16.7760698172834
0.00145727224641842,16.7809013331713
0.00164552947491282,16.7853732130041
0.00185787027268253,16.7895148457027
0.00209744369478775,16.7933536264284
0.00236782490894252,16.7969150241225
0.00267308591673498,16.8002227361482
0.00301787913638706,16.8032989266502
0.00340754519684226,16.806164356465
0.00384824198957354,16.8088385108136
0.00434712604338494,16.8113398432793
0.00491260052410715,16.8136859868902
0.00555465074180457,16.8158939915004
0.00628092371026703,16.8179691627828
0.00707946895252562,16.8198757005207
0.00795880341782631,16.8216441798163
0.00893158258546886,16.8233046609346
0.0100164452196031,16.8248872607897
0.0112437087839266,16.826426847351
0.0127036981583565,16.8280075230624
0.0146102554819442,16.8297856379291
0.0166218393939347,16.8314276808198
0.0188411067208277,16.8330697237104
0.0207215299501781,16.8343915717958
0.0223439037596129,16.8355280263635
0.0237996946948434,16.8365861718329
0.0251079682642131,16.8376167677719
0.026260079867655,16.8386568839376
0.0272292494526715,16.8397475090325
0.0279629859169823,16.8409537913272
0.0283382024436994,16.8424379520547
0.0280638783994598,16.8441696270866
0.0271390563567174,16.8459013021184
0.0260249641606862,16.8473096685711
0.024754753159671,16.8486538883945
0.0233243998185357,16.8500287884194
0.0217423618533286,16.8514786807092
0.0200152244179404,16.8530431956491
0.0188239067685504,16.8541356609861
0.0176814929755055,16.8552281263231
0.0150947480084045,16.8579471907049
0.012552913489899,16.861079625037
0.0106314521817893,16.8639073962028
0.00915480777953327,16.8664916602001
0.00796343645669858,16.868968945034
0.00695297018462539,16.8714872705354
0.0061021047390955,16.8740756065513
0.00539927962561767,16.8767569676323
0.00483941928941084,16.8795545769707
0.00442447018616779,16.8824934737556
0.00416580761100933,16.8856019103466
0.00408841065646425,16.8887159839814
0.00418055592541139,16.8915215417531
0.00441072462167932,16.8940746139827
0.00476253485121963,16.8964230449284
0.00523143893958903,16.8986163855292
0.00582445158500307,16.9007070088238
0.00656477701208983,16.9027588248227
0.00750549371331618,16.9048633122089
0.00876387142839075,16.9071709606802
0.0105253881953722,16.9098397464003
0.012683680220217,16.9125735416859
0.0142964310603456,16.9143441420844
0.0161164172951702,16.9161147424829
0.0179928491942405,16.9177204234813
0.0199679788324692,16.919202063015
0.0221040416430979,16.9206005302027
0.0244510039929269,16.9219351868221
0.0270537988730785,16.9232156466938
0.0299564045418932,16.9244472133806
0.0332031752365874,16.9256329495223
0.0368426512388869,16.926775653456
0.0409291642166908,16.9278781351776
0.0455239486171185,16.9289431681544
0.0506940181120193,16.9299730013636
0.0565216058578855,16.9309709561506
0.0631006990443275,16.9319400243803
0.0705416090855238,16.9328832623892
0.0789781154505605,16.9338041598864
0.0885706574563129,16.9347062980528
0.099514666867993,16.9355935180941
0.112052223654062,16.9364700935361
0.126486315886145,16.9373407928707
0.143202931023982,16.9382111148531
0.162705290441058,16.9390876771264
0.185671552858036,16.939978939686
0.212791426544343,16.9408882209482
0.244156833787822,16.9418000443377
0.280555033671628,16.942723695069
0.323101368007649,16.9436751028642
0.37377700564478,16.9446894656318
0.410188919380454,16.9453706754315
0.447457593491598,16.9460518852311
0.480663329419575,16.9466675671353
0.509913268565174,16.9472414994681
0.535543861738075,16.947800954835
0.55736806093687,16.9483690335642
0.574666576058584,16.9489732285677
0.585742937998797,16.9496618873173
0.586637776412717,16.9504066612919
0.575424261981153,16.9511820516342
0.550616295718467,16.9520097504976
0.513025791881075,16.9528495490462
0.461390693939406,16.9537280216019
0.395273636374991,16.9546428153902
0.346553732173742,16.955234220895
0.294085185870399,16.9558256263997
0.248152807687592,16.9563222585197
0.209085672638715,16.9567403165067
0.174915208028044,16.9571106554914
0.144400016942304,16.9574517674007
0.116792607303972,16.9577752120561
0.0915731566727669,16.9580896644066
0.0683021441871068,16.9584033872383
0.0464780603490236,16.9587272901754
0.0251457375860695,16.9590845553394
0.00851273059153901,16.9594042406346
-0.000777752302167142,16.9596050215627
-0.00921340478566583,16.9598058024908
-0.0158847501369605,16.9599803943804
-0.0220455403986897,16.9601572658498
-0.0282670738158651,16.9603551657961
-0.0342889290581455,16.9605705957977
-0.0399441004430411,16.9608014223399
-0.0451391158442693,16.9610468695766
-0.0498248921917268,16.9613070697805
-0.0539792842580817,16.9615828101596
-0.0575967574399755,16.9618754111005
-0.0606820570244577,16.9621866859769
-0.0632447426515129,16.9625189573441
-0.0654162046353959,16.962902278436
-0.0669034630613511,16.9632846389428
-0.0679092056068657,16.9636984692205
-0.068448233840426,16.9641496719332
-0.0685298789915391,16.9646453163837
-0.0681574324245009,16.9651945919167
-0.0673228852956367,16.9658110913556
-0.0660019945888509,16.966513022912
-0.0641432868914682,16.96732799132
-0.0616365782802901,16.9683043666496
-0.0581900284783959,16.9695552051868
-0.0541577543661332,16.9709706000919
-0.0502331237319176,16.972341575519
-0.046471281699913,16.9736732380048
-0.0429002637508285,16.9749676793165
-0.0395351296290103,16.9762255575887
-0.036383561059861,16.9774468136185
-0.0334482841381139,16.9786310515238
-0.0307283174136023,16.9797777399796
-0.0282197593974412,16.9808863167141
-0.0259163867973784,16.9819562387189
-0.0238101648121933,16.9829870001871
-0.0218917069883167,16.9839781299641
-0.0201506934647413,16.9849291750386
-0.0185762474565044,16.9858396736857
-0.0170683167642324,16.9867653858066
-0.0156183380179289,16.9877149992856
-0.014230244800706,16.9886903490859
-0.0129076985023334,16.9896936505133
-0.0116541423133251,16.9907275128657
-0.0104727472291007,16.9917950385384
-0.00936635519755845,16.992899953998
-0.00833741811754313,16.994046787433
-0.00738793166239613,16.9952411156369
-0.00651936191280288,16.9964899170654
-0.00573256105042215,16.9978020942824
-0.00502766512677904,16.9991892798287
-0.00440396043096528,17.0006671450965
-0.00385969067953192,17.00225767145
-0.00341386603777784,17.0039005698246
-0.00305484695869528,17.0055968591027
-0.00276700656144247,17.0073650840012
-0.00253571557390075,17.0092286762383
-0.00234675177244399,17.0112195439145
-0.00218562812952969,17.0133841523921
-0.00203639029222635,17.0157968068461
-0.00187877340717254,17.0185950472136
-0.00170160405213913,17.0217171268962
-0.00150552350185694,17.0249371920415
-0.00128475383098788,17.028272398901
-0.00103875603034565,17.031741130165
-0.000770091300854692,17.0353618911634
-0.000482639444812214,17.0391536556017
-0.000180277751278313,17.0431361175318
0.00013396188747246,17.0473301097666
0.000458335923741631,17.0517583654244
0.000779412642626119,17.0562588927984
0.00108202923469906,17.0606089743462
0.00138294110005126,17.0650320152681
0.00170768109424505,17.0698982484604
0.0020364809019421,17.0748943306514
0.00236181865898222,17.0798751849715
0.00267171928381858,17.0846229882577
0.00294481836117904,17.0887846609856
0.00320499019683325,17.0927145057911
0.00346260750429622,17.0965564491263
0.00372376767966475,17.1003867746701
0.00399310898734765,17.1042562955873
0.00427480961611758,17.108204474341
0.00457302485460175,17.1122648408361
0.00489220837249262,17.1164683090449
0.00523739745139668,17.1208453274282
0.00561451929102966,17.1254272444199
0.00603083231336119,17.1302475506358
0.00649490626003852,17.1353353473538
0.00697493753595774,17.1402878875579
0.00748480094562886,17.1452176954088
0.00802405829952917,17.1500750814828
0.00859852014304091,17.1548659732481
0.00921392422114503,17.1595872006678
0.009877588362252,17.1642411199212
0.0106030513958961,17.1688616091816
0.0114129935513083,17.173513807023
0.012323698016681,17.1781963731367
0.0133592106754588,17.1829294166807
0.0145538288063093,17.1877521581682
0.0159657130011457,17.1927574727162
0.0177250228377676,17.1982047785998
0.0201466732293903,17.2047328750923
0.0217405233168047,17.2086593369141
0.0233828315887012,17.2125857987359
0.0248168032695438,17.2160763172213
0.0260252718511028,17.2192433554072
0.0270278533814922,17.2222716733849
0.0277855641477605,17.2251780949631
0.0282767744066681,17.2279929058455
0.0284935283623492,17.2308418318241
0.0283913068107782,17.233906590358
0.0277981545471812,17.2376772829731
0.0269744069814851,17.2407439703122
0.0258990569348511,17.2438106576513
0.0248175076130314,17.246449177492
0.0237439381222905,17.2488450760156
0.0226701907664951,17.2511179779766
0.0215966378926998,17.2533235246377
0.0205264618335547,17.2554928134313
0.0194633806704571,17.2576461934304
0.0184110421538549,17.259798396333
0.0173728621525623,17.2619608694095
0.0163519791971988,17.2641430259397
0.0153512564473997,17.266352966207
0.0143732850357321,17.2685979555456
0.0134203986256366,17.2708847366667
0.0124946846114046,17.2732197617506
0.011597988270838,17.2756093888839
0.0107319272924947,17.2780600204586
0.00989789929734705,17.2805782392682
0.0090970859118907,17.2831709483629
0.00832353196949988,17.2858706470835
0.00756305621875589,17.2887509169891
0.00681947234517414,17.2918323192183
0.00609657425576318,17.2951394519183
0.00539835666902944,17.2987007146216
0.00472897491206241,17.3025490091537
0.00409266679233705,17.3067226990562
0.00349362727005845,17.3112670261157
0.00293582904141742,17.3162364979731
0.00242287168094138,17.321699251915
0.00195747317891847,17.3277443202195
0.00154152055555936,17.3344913774669
0.00118965907792659,17.3417854113539
0.000897326845261743,17.3496952787862
0.000657936276108008,17.3583580731422
0.000465632394043353,17.3679546227068
0.000356414769985195,17.3759710289532
0.000259369901515908,17.3859710289533
0.000192058782705479,17.3959710289533
0.000145102286056671,17.4059710289533
0.00011262776700108,17.4159710289533
9.05077276160052e-05,17.4259710289533
7.57021079505184e-05,17.4359710289533
6.60012830207276e-05,17.4459710289533
5.98500032017281e-05,17.4559710289533
5.61805791677602e-05,17.4659710289533
5.42672062963394e-05,17.4759710289533
5.36156657915217e-05,17.4859710289533
5.3887873413946e-05,17.4959710289533
5.48525456145975e-05,17.5059710289533
5.63528091147228e-05,17.5159710289533
5.82842951104179e-05,17.5259710289533
6.05799279558472e-05,17.5359710289533
6.31992740920544e-05,17.5459710289533
6.61211442695349e-05,17.5559710289533
6.93385449961333e-05,17.5659710289533
7.28553151964196e-05,17.5759710289533
7.66839648527876e-05,17.5859710289533
8.08443774147687e-05,17.5959710289533
8.53631491942976e-05,17.6059710289533
9.02734202879139e-05,17.6159710289533
9.5615109944388e-05,17.6259710289533
0.000101435512571639,17.6359710289533
0.000107790245219989,17.6459710289533
0.000114744568210668,17.6559710289533
0.000122375131392734,17.6659710289533
0.000130772232853398,17.6759710289533
0.000140042718768346,17.6859710289533
0.000150313707590504,17.6959710289533
0.000161737396086699,17.7059710289533
0.000174497309337508,17.7159710289533
0.000188816507696686,17.7259710289533
0.000204968485888591,17.7359710289533
0.000223291833055569,17.7459710289533
0.000244210233576487,17.7559710289533
0.000268260187700561,17.7659710289533
0.000296130109593131,17.7759710289533
0.000328716556971311,17.7859710289533
0.000367206879726304,17.7959710289533
0.000413203712943052,17.8059710289533
0.000468606718609451,17.815919333764
0.000531285071013193,17.8251384701078
0.000601928166205335,17.8336569613068
0.000681498530886216,17.8415271336087
0.000771122951905211,17.8487986214918
0.000872085518597847,17.8555175526255
0.000985839798565728,17.8617268188132
0.00111402968087069,17.8674663659298
0.00125851558496121,17.8727733935028
0.00142140473448311,17.877682440775
0.00160507917983648,17.882225566962
0.00181224076778647,17.8864325883998
0.00204595609739329,17.8903313036753
0.00230970872320033,17.8939475663898
0.00260746278495219,17.8973054198141
0.00294374236840943,17.9004273252647
0.00332373910964241,17.9033343246052
0.00375343004146909,17.9060461485615
0.00423974826120557,17.9085814405175
0.00479081935039482,17.9109579871414
0.00541626912321239,17.9131929301458
0.00612769625628483,17.9153031432988
0.0069110011219574,17.9172415196138
0.00777303411355102,17.9190355686844
0.00872556308897643,17.9207156062867
0.00978570284759705,17.9223114616339
0.0109806394760036,17.9238564580003
0.0123792992200744,17.9254166689758
0.0141652880316339,17.9271346860163
0.0169156508553054,17.9293944131943
0.0186403183545454,17.9306671984164
0.0204449319413327,17.9319399836386
0.0220912791285557,17.9330906572437
0.0235715868507074,17.9341571691115
0.0249040786215797,17.9351896367749
0.0260830845759978,17.9362256710481
0.0270848846357866,17.9373045914427
0.0278625540654883,17.9384852521888
0.0283123827583136,17.9399014103094
0.0279827620877628,17.9421350200743
0.0272096193848108,17.9435426708404
0.0261147072057933,17.9449503216065
0.0248575471634501,17.9462933684352
0.0234386908941778,17.9476641863285
0.0218673454208305,17.9491072644778
0.0201505816345076,17.9506618403347
0.0190167321720519,17.9516989454581
0.0179215557271895,17.9527360505814
0.0153520250075938,17.9554009759211
0.0127416000079682,17.958568745893
0.010771890658039,17.961425021657
0.00926446968852547,17.9640257563152
0.00805646547928331,17.9665011193296
0.00703178345987757,17.9690146222334
0.00616800060782721,17.9715961411887
0.00545298150321359,17.9742687624799
0.00488110671266335,17.9770556202635
0.00445366765906697,17.9799815470092
0.00418109311005092,17.9830744669104
0.00408785014143969,17.9862159762199
0.0041676121424008,17.989044415996
0.00438730262384396,17.9916160777158
0.00472953095602303,17.9939794004759
0.00518875857499229,17.9961832859286
0.00577110262648875,17.9982802351109
0.00649794336352432,18.0003322123823
0.00741742774356145,18.0024243099679
0.00864202991688952,18.0047067127315
0.010371931787428,18.0073669459267
0.0125011642905905,18.0101008640926
0.0141194504880202,18.0119005809648
0.0159471997803398,18.013700297837
0.0178172268796238,18.0153196543975
0.0197802716418947,18.0168104286996
0.0218992691816047,18.0182155106762
0.0242248887474301,18.0195555509104
0.0268022983708037,18.020840747953
0.0296754542462883,18.0220766712096
0.0328884652865162,18.0232664757757
0.0364893132683099,18.0244129459403
0.0405323847459911,18.0255190770148
0.0450777188479609,18.0265874812654
0.0501915765688834,18.0276204254724
0.0559550558352722,18.0286212203293
0.0624607169741904,18.0295928384904
0.0698170279896702,18.0305383090434
0.0781556643768158,18.0314611223001
0.0876342282249592,18.0323648348641
0.0984444763678403,18.0332532559319
0.110823728105476,18.0341306224111
0.125068540612405,18.0350016465062
0.141556072619389,18.0358717472488
0.160776865000325,18.0367474181487
0.18338937312472,18.0376368976674
0.21015515455096,18.038546300976
0.241104561128886,18.0394575703875
0.277004934359704,18.0403796305494
0.31892960884391,18.0413275125131
0.368731352647271,18.0423335344626
0.405570899334447,18.043026528205
0.443447484167566,18.0437195219474
0.477158534885333,18.0443422999832
0.506824170179231,18.0449194104365
0.532859767344391,18.0454793293034
0.555133889530438,18.0460452479117
0.572996540994117,18.0466436359493
0.584913427423577,18.0473188860221
0.587126286448626,18.048061585433
0.577353183023485,18.0488323550704
0.55419441974558,18.0496530693584
0.518007070070335,18.0504927693037
0.468158430174102,18.051364491062
0.403325727218674,18.0522804770855
0.353678891359835,18.0528917135976
0.299869516353668,18.0535029501098
0.252899635638152,18.0540123227937
0.213161551031759,18.0544375113377
0.178519240091644,18.0548120735398
0.147640349940651,18.0551557840856
0.119737764960963,18.0554807363255
0.094274790547726,18.0557957929356
0.0708090019214174,18.056109144917
0.0488561330365437,18.0564311610825
0.0275582498366298,18.0567824922351
0.00928861055913678,18.0571292012656
-0.000306917090951115,18.0573352890662
-0.00899984556829086,18.0575413768669
-0.0157095805613026,18.0577165142865
-0.0218634137109595,18.0578926997647
-0.0280871837620495,18.058090036206
-0.0341176901101138,18.0583049923039
-0.0397851729615402,18.0585353853439
-0.0449944916022098,18.0587804071998
-0.0496955589966289,18.0590401680187
-0.0538656149167685,18.0593154380951
-0.0574987441426188,18.0596075231817
-0.0605994562274056,18.0599182221489
-0.063177398993369,18.0602498420568
-0.0653644518814145,18.0606322431748
-0.0668662540876978,18.0610137254092
-0.06788610085998,18.0614265326366
-0.0684388871991651,18.0618765272222
-0.0685340869374413,18.0623707259381
-0.0681752107950568,18.0629182427343
-0.0673546862439451,18.0635325075735
-0.06604884849228,18.0642315582483
-0.0642073304635136,18.0650426108423
-0.0617226063673354,18.0660130918486
-0.0583130251833069,18.067252424222
-0.0542785458211049,18.0686694140933
-0.05034964811584,18.0700416352548
-0.0465823802635544,18.0713744452782
-0.0430053220605596,18.0726699969795
-0.0396338181382384,18.0739289790009
-0.036475728570011,18.0751513469766
-0.0335339074828046,18.0763367115715
-0.0308074725029944,18.0774845436467
-0.0282926010643718,18.0785942809103
-0.0259831322887445,18.0796653793724
-0.023871079156323,18.0806973320489
-0.0219470897813158,18.0816896669161
-0.0202008667915125,18.0826419307585
-0.0186215451419682,18.0835536625913
-0.0171119887694192,18.084478681462
-0.0156602415628878,18.0854275663964
-0.0142702693187429,18.0864021273841
-0.0129457388955584,18.0874045694776
-0.0116901006878649,18.0884374890635
-0.0105065345129746,18.0895039723121
-0.00939789287259093,18.0906077250212
-0.00836664008552513,18.0917532486203
-0.00741478628581255,18.0929460845748
-0.00654381431034692,18.0941931635796
-0.00575459579314498,18.0955033217177
-0.00504728961162531,18.0968880955561
-0.00442120947678904,18.0983630113277
-0.00387463350969774,18.0999498169282
-0.00342592321201994,18.1015914262205
-0.00306452983050192,18.1032858536931
-0.002774765915031,18.1050516078753
-0.002541982560784,18.1069119222545
-0.00235195355413731,18.1088983825369
-0.00219021331871463,18.111056877431
-0.00204087948134932,18.1134605422091
-0.00188389629033263,18.116243985595
-0.00170712785926633,18.1193633886432
-0.00151172720010824,18.1225803030496
-0.00129172320250261,18.1259118083338
-0.00104645221801171,18.1293762894572
-0.000778410763247636,18.1329922432566
-0.000491460850600904,18.1367786252853
-0.000189494407187925,18.1407551033823
0.00012442335643549,18.1449424679467
0.00044850662927248,18.1493633777918
0.000770367729254887,18.1538714082047
0.00107331544058811,18.1582232047863
0.0013739902931167,18.162640085273
0.00169744531402973,18.1674845084356
0.00202661699136411,18.1724846755687
0.00235178528161068,18.1774622281021
0.00266356072073485,18.1822392764775
0.00293728457399478,18.186411238163
0.00319764868894841,18.1903451732898
0.00345524377752922,18.1941883845028
0.00371623526214,18.1980182638532
0.00398528521761991,18.2018860913238
0.0042665772971136,18.2058315518445
0.00456426328257582,18.2098882994494
0.00488278404323678,18.2140872836968
0.00522715649638038,18.2184589472853
0.0056032771742029,18.2230345940551
0.00601835867216775,18.2278476386018
0.00648160712760774,18.2329346700953
0.00696095698918807,18.2378889302873
0.00747000747882582,18.2428203141384
0.00800835214166419,18.2476796077368
0.00858174732803764,18.2524724583628
0.00919589600123405,18.2571956111808
0.00985808727674262,18.2618514143326
0.0105813515197448,18.2664709132052
0.0113887231071392,18.2711224528957
0.0122962659908398,18.2758039086408
0.0133278336834693,18.280535130372
0.0145173017495481,18.2853544269834
0.0159217954173544,18.2903523048212
0.0176677772980538,18.295779599985
0.0200888760761129,18.3023273577912
0.0216899122540049,18.3062782799243
0.0233420129430996,18.3102292020574
0.0247828991069133,18.3137325322788
0.025996798266763,18.3169053337025
0.0270047036046172,18.319935402465
0.0277693734044801,18.3228457426338
0.028267458998864,18.3256614400674
0.0284916280464927,18.328507636837
0.0283987829224524,18.3315632665359
0.0278241588793036,18.3352998592763
0.0270039498933377,18.3383900760078
0.0259264952580818,18.3414802927394
0.0248440476700449,18.3441286604409
0.0237703834697135,18.3465288059209
0.0226966537231525,18.3488039245954
0.0216230620640653,18.3510106965653
0.0205527583535221,18.3531806042102
0.019489457586705,18.3553341825051
0.0184368121211575,18.3574862667929
0.0173982442725036,18.3596483674976
0.0163768995069342,18.3618299378095
0.0153756477878219,18.3640391037506
0.0143970866344252,18.3662831473378
0.0134435561419617,18.3685688205723
0.0125171494463146,18.3709025809297
0.0116197176881752,18.3732907868951
0.0107528843024064,18.3757398374431
0.00991805198483079,18.3782563100654
0.00911640769547504,18.3808470980731
0.00834257523743714,18.3835425593168
0.00758172687899614,18.3864181251193
0.00683767918415749,18.3894942558997
0.00611422054118235,18.3927954641244
0.00541534115404695,18.396350046919
0.00474519317784703,18.4001907839579
0.00410801361058335,18.4043558890307
0.00350800048704647,18.4088904100688
0.00294913295081489,18.4138485838736
0.00243502697122763,18.4192981322429
0.00196842337145217,18.4253274591816
0.00155122682848557,18.4320553556686
0.00119778011814898,18.4393351894809
0.000904028367430269,18.4472279795252
0.000663378184581231,18.4558697582682
0.000469741984330001,18.465440049606
0.00035988045248606,18.4734124015147
0.000261760828274442,18.4834124015147
0.000193739325670124,18.4934124015147
0.00014627757909558,18.5034124015147
0.000113436045265567,18.5134124015147
9.10530667131127e-05,18.5234124015147
7.6062960126811e-05,18.5334124015147
6.62342127986847e-05,18.5434124015147
5.99941245343747e-05,18.5534124015147
5.62623694730338e-05,18.5634124015147
5.43045635769819e-05,18.5734124015147
5.36207870573746e-05,18.5834124015147
5.38691203631219e-05,18.5934124015147
5.48156331785231e-05,18.6034124015147
5.63015884515457e-05,18.6134124015147
5.82212926965062e-05,18.6234124015147
6.05067254142439e-05,18.6334124015147
6.31167751380309e-05,18.6434124015147
6.60297590582583e-05,18.6534124015147
6.92383144550202e-05,18.6634124015147
7.2745992437034e-05,18.6734124015147
7.65650660181483e-05,18.6834124015147
8.07152104122114e-05,18.6934124015147
8.52228258240844e-05,18.7034124015147
9.01208551826259e-05,18.7134124015147
9.54490082357867e-05,18.7234124015147
0.000101254347062826,18.7334124015147
0.000107592222883824,18.7434124015147
0.000114527584932655,18.7534124015147
0.00012213671292251,18.7634124015147
0.000130509458815205,18.7734124015147
0.000139752125176019,18.7834124015147
0.000149991161439158,18.7934124015147
0.00016137793299756,18.8034124015147
0.000174094921534528,18.8134124015147
0.000188363864207693,18.8234124015147
0.000204456558861934,18.8334124015147
0.000222709391961445,18.8434124015147
0.000243543150325174,18.8534124015147
0.000267490466116944,18.8634124015147
0.000295234504840225,18.8734124015147
0.000327664571137184,18.8834124015147
0.000365957784288095,18.8934124015147
0.00041170201004408,18.9034124015147
0.000466907442168339,18.9133825336442
0.0005293696541539,18.9226227050523
0.000599770788221255,18.9311606675084
0.000679068740158753,18.9390488247455
0.000768385955581636,18.9463369162848
0.000869001989984157,18.9530711676798
0.000982365268791459,18.9592945596153
0.00111011386642183,18.9650471192314
0.00125410148720661,18.9703661245128
0.00141642793361395,18.9752861890786
0.00159946665521068,18.9798394406727
0.00180590983677867,18.984055756577
0.00203881262686745,18.9879629922323
0.00230164594180082,18.9915870558605
0.00259835895729742,18.9949520402098
0.00293345814476567,18.9980804489838
0.00331211453971105,19.000993363944
0.00374028026730821,19.0037105511241
0.00422485786237128,19.0062506813919
0.00477393485724827,19.0086315637421
0.00539708805176006,19.0108703541483
0.0061058505288015,19.0129839276076
0.0068869686182923,19.0149269595414
0.00774654587419413,19.0167247987319
0.00869621220172752,19.0184077581821
0.00975287817265682,19.0200056384064
0.0109433183517673,19.0215515697149
0.012333595414512,19.0231091480649
0.0141038903443837,19.0248196638414
0.0168181916925764,19.0270599831332
0.0185489103444663,19.028341561048
0.0203633818435983,19.0296231389627
0.0220187788799478,19.0307796174669
0.0235061925619121,19.0318487867456
0.0248455195010868,19.032881961988
0.0260320353994947,19.0339170253909
0.0270428643392236,19.0349929033141
0.0278325223597254,19.0361668901152
0.0283018990843015,19.0375661179681
0.0280322014674365,19.0397481692162
0.0272880616127018,19.0411635814666
0.0262101899658052,19.0425789937171
0.0249673853694077,19.0439219420538
0.0235618310302101,19.0452884241196
0.0220029459126115,19.0467240061241
0.0202982839039182,19.0482676037211
0.019168349798839,19.0492990758565
0.0180722542395219,19.050330547992
0.0161680348303248,19.0522545513734
0.0134176567868631,19.0554321068256
0.0112791648437075,19.0583800375804
0.00965873742570805,19.061041489032
0.00838607087797723,19.0635222351293
0.00731132065203328,19.0660208883153
0.00640248379506497,19.0685802711098
0.00564522804054645,19.0712241562391
0.00503208273450513,19.0739754626394
0.00456219817582097,19.0768583879201
0.00424299471367137,19.0798998124974
0.00409419888523673,19.0831307804714
0.00413071696003853,19.0860372383513
0.00431438958163554,19.0886748092868
0.00462403896020567,19.0910901080842
0.00505114375630651,19.0933327710566
0.00559846436611964,19.0954536570386
0.00628195549828406,19.0975096027646
0.00714186287399041,19.0995810406952
0.00826633719354919,19.1017921342017
0.00986433050736383,19.1043772000379
0.0118891145695325,19.1071026208229
0.0135108118928905,19.1089883847641
0.0153464074449555,19.1108741487053
0.0172078192153635,19.112555040537
0.0191326250611705,19.1140806090124
0.0211953794575363,19.1155103436883
0.0234497179476905,19.1168701694363
0.0259415757168483,19.1181724943504
0.0287144417273491,19.1194237803469
0.0318126640038312,19.1206280549494
0.0352833068381181,19.1217883145172
0.0391779532886699,19.122907248427
0.0435531420221262,19.1239872254981
0.0484755068594582,19.1250312697782
0.0540207119418846,19.1260422209394
0.0602755029686334,19.1270228312321
0.067344203633857,19.127976353765
0.0753504728273866,19.1289061181284
0.084442184954902,19.1298155734141
0.0947994877379519,19.1307084819851
0.106643676286991,19.1315889312781
0.120250044680261,19.1324614441595
0.135967061393561,19.1333311942892
0.154244143113573,19.1342042756204
0.175677220434645,19.1350882450775
0.20109515580761,19.1359933666932
0.230620757123642,19.1369032291516
0.264825894699297,19.1378205696067
0.3046592773563,19.1387578173076
0.351622122856242,19.1397394113385
0.389973941635858,19.1404770518498
0.430011783933428,19.1412146923611
0.465505514855513,19.1418650361004
0.496556287863789,19.1424549392101
0.523889812655106,19.143018284222
0.547565368094784,19.143579360544
0.567133559728177,19.14416235148
0.581467951339454,19.1448023694211
0.587664666641026,19.1455406078701
0.582196152589099,19.1462990211935
0.563917077940232,19.1470999418473
0.531685851095903,19.1479469674116
0.486910540831868,19.1488006639641
0.426765494275699,19.149708809376
0.374311001843917,19.1503849354621
0.316269915806555,19.1510610615482
0.266124512633676,19.1516105350077
0.224406649038108,19.1520574268545
0.188413930178444,19.1524445594143
0.156511600112917,19.1527959772409
0.127784883710412,19.1531255091464
0.101642377721806,19.1534426733148
0.0776263684982133,19.1537556218044
0.0552835517195697,19.1540736435304
0.0339379125333519,19.1544125686779
0.0114643311566555,19.1548253559376
0.000636801710169803,19.155054399152
-0.00692893846701363,19.155230627726
-0.0138576661142178,19.1554068563
-0.019908495097263,19.1555751888498
-0.0261397860725734,19.1557662082569
-0.0322539231778277,19.1559759370014
-0.0380486522114798,19.1562016153819
-0.0434091672472097,19.1564420606307
-0.0482735844781993,19.156697130124
-0.0526119404429155,19.1569674049647
-0.056413859942555,19.1572540301986
-0.0596811021091273,19.1575586503921
-0.0624228488433016,19.1578834082382
-0.0646891486160048,19.1582395604463
-0.0663705857805547,19.158610324135
-0.0675655490579346,19.1590108921774
-0.0682889313102328,19.1594464694878
-0.068551806109329,19.1599234632208
-0.0683601757963626,19.1604501237052
-0.0677113404762962,19.1610380193023
-0.0665881731325873,19.1617033302066
-0.0649522070249001,19.1624690996359
-0.0627229839179812,19.1633731600263
-0.0597112934089329,19.1644919910689
-0.0556561422730872,19.1659290663336
-0.0516823521597562,19.1673156936317
-0.0478552870921753,19.1686616345639
-0.0442106441914534,19.1699698125056
-0.040767351883657,19.1712413048931
-0.0375354448657338,19.1724762582766
-0.0345193068381398,19.1736743693856
-0.0317192288885099,19.1748351398848
-0.029132321212643,19.1759580100324
-0.0267531632998752,19.1770424255725
-0.0245743399414689,19.1780878658214
-0.0225869180505764,19.179093847722
-0.0207808797958791,19.1800599139593
-0.0191455149002921,19.1809856096509
-0.0176175315787766,19.1819027547865
-0.0161456992964069,19.1828433774249
-0.0147343608578403,19.1838090024245
-0.0133872427600373,19.1848017215024
-0.0121078748911701,19.1858239884656
-0.0108995349467221,19.1868787107119
-0.00976519298010647,19.1879693669092
-0.00870745201167747,19.1891001653555
-0.00772848392831008,19.190276261993
-0.00682995908798086,19.1915040687334
-0.00601296663842268,19.1927917036673
-0.00527792001280331,19.194149674281
-0.00462443708380413,19.1955919646932
-0.00405117391042627,19.1971378729847
-0.00356854399012221,19.1987657980315
-0.00317917787809059,19.2004401616596
-0.00286662291811304,19.2021792460076
-0.00261598092037519,19.2040042053933
-0.00241294120849066,19.2059432968244
-0.00224321614597878,19.2080365571697
-0.00209159869490435,19.2103455630623
-0.00193997609413125,19.2129772768858
-0.0017667544373406,19.2160683418894
-0.00157846051109665,19.2192516601281
-0.00136683614081015,19.2225434792417
-0.00112971208490654,19.2259622391584
-0.00086876526679787,19.2295263624083
-0.000587580447464613,19.2332546181961
-0.000290157885067257,19.237166407447
2.00984133440101e-05,19.2412820929552
0.000340950233014533,19.2456236006717
0.000671597020588233,19.2502156756392
0.000979072743397523,19.2545985034087
0.00127837480324991,19.258965781517
0.00159074454793003,19.2636170568658
0.00192527577871641,19.2686802574847
0.0022498885268075,19.2736402226903
0.00258378528432354,19.2787606290289
0.00286466579048976,19.2830479865789
0.00312732044789233,19.2870271175835
0.00338496349869434,19.2908856488117
0.00364453610062431,19.2947133696454
0.00391097218108171,19.2985666237028
0.00418852138833931,19.3024873773866
0.00448131994043926,19.306510678123
0.00479369679688942,19.3106678914576
0.00513048579535122,19.3149894598752
0.00549730688736675,19.3195063129517
0.00590096081806743,19.3242511897808
0.00635002470230575,19.3292597292888
0.00682485976231837,19.3342533410767
0.00732537945474452,19.3391930819105
0.00785513251488953,19.3440728926993
0.00841822639194843,19.3488845877421
0.00902032529469318,19.3536268625647
0.0096683620676906,19.3583013281039
0.0103705206837385,19.3629112334605
0.0111532586031987,19.3675567008561
0.0120305524371156,19.3722278767458
0.0130245385329183,19.3769425824166
0.0141653786381727,19.3817312291053
0.0155014293806863,19.3866643732358
0.0171299751112071,19.3919251739757
0.0193689415927423,19.3982099531979
0.0210754040381678,19.4025247641458
0.0228686869043448,19.4068395750937
0.0243952595045918,19.410513115521
0.0256711607711922,19.413759782089
0.0267378871621107,19.4168154629389
0.0275799214143971,19.4197750359626
0.028153447669405,19.4226060025838
0.0284575716692341,19.4254292207558
0.0284626395731198,19.4283996661939
0.0280610434965108,19.4318439601818
0.0272766125848545,19.4352143591349
0.0261664911344128,19.4385847580881
0.0250716421637289,19.4413363376437
0.0239964928905768,19.4437768212465
0.0229228949269504,19.4460722959927
0.021849048641364,19.4482902929385
0.0207777445038246,19.4504659772115
0.0197126552706299,19.4526216005636
0.0186574692582581,19.454772940527
0.0176156619686678,19.4569320797412
0.0165904387830507,19.4591088290763
0.0155847273394571,19.4613115475352
0.0146011810701339,19.4635476652596
0.0136421951623998,19.4658240196512
0.0127099112755997,19.4681471197515
0.0118062314608935,19.4705233298239
0.0109328289065667,19.4729590217499
0.0100911488472869,19.4754607336437
0.00928242470827429,19.4780352768856
0.00850627982282559,19.4806948680018
0.00774231821348559,19.4835306265633
0.00699438105081519,19.4865621650704
0.00626620827436961,19.4898132784981
0.00556175143737894,19.4933113990961
0.00488513326859644,19.4970882843406
0.0042405807752507,19.5011808983989
0.00363231326533546,19.5056326869606
0.00306436836241707,19.5104956578381
0.00254047568423174,19.515834151911
0.00206358148251031,19.521731430519
0.00163574755522368,19.5282989694433
0.0012685916179179,19.5354605022519
0.000962561484405823,19.543211119891
0.000711011523700956,19.5516781940961
0.000507744859928477,19.5610306510039
0.000360029055664956,19.5710306510039
0.000273024258762755,19.5797378211159
0.000201725951579454,19.5897378211159
0.000151972237087706,19.599737821116
0.000117410240070329,19.609737821116
9.3749663810257e-05,19.619737821116
7.78458318770056e-05,19.629737821116
6.7382289023708e-05,19.639737821116
6.07048900862129e-05,19.649737821116
5.66689223076948e-05,19.659737821116
5.44953920773945e-05,19.669737821116
5.36553380123782e-05,19.679737821116
5.37879408080948e-05,19.689737821116
5.46465140948861e-05,19.699737821116
5.60633743896747e-05,19.709737821116
5.79264258692753e-05,19.719737821116
6.016304572147e-05,19.729737821116
6.27288091054321e-05,19.739737821116
6.55996245146304e-05,19.749737821116
6.87663355650778e-05,19.759737821116
7.22311030923236e-05,19.769737821116
7.60050620192569e-05,19.779737821116
8.01068931486233e-05,19.789737821116
8.45620654005653e-05,19.799737821116
8.94025901431099e-05,19.809737821116
9.46671914637506e-05,19.819737821116
0.000100401841881621,19.829737821116
0.000106660648831429,19.839737821116
0.00011350710844061,19.849737821116
0.00012101577366383,19.859737821116
0.000129274417298879,19.869737821116
0.000138386810654442,19.879737821116
0.000148476290547755,19.889737821116
0.000159690357599157,19.899737821116
0.000172206647258477,19.909737821116
0.000186240756482366,19.919737821116
0.000202056616615634,19.929737821116
0.000219980413778503,19.939737821116
0.000240419532379077,19.949737821116
0.000263888736475523,19.959737821116
0.000291046981357807,19.969737821116
0.000322750170333993,19.979737821116
0.00036012839596004,19.989737821116
0.00038216942626356,19.994868910558
0.000406295671384851,20
