ecg,time
0.00118427207923106,15.0036548811176
0.000981973263990677,15.0090863123468
0.000771285035364172,15.0165487581461
0.000592698224409121,15.0250839578836
0.000449997750241907,15.0344615250799
0.000342661593576685,15.0444615250799
0.00026875480206233,15.0544615250799
0.00021857466027425,15.0644615250799
0.000185050728423251,15.0744615250799
0.000163123662229674,15.0844615250799
0.000149277105161175,15.0944615250799
0.00014111718132241,15.1044615250799
0.000137027445270319,15.1144615250799
0.000135917766966714,15.1244615250799
0.00013705585607312,15.1344615250799
0.000139957773429369,15.1444615250799
0.000144316260362401,15.1544615250799
0.000149952852947527,15.1644615250799
0.000156785711007568,15.1744615250799
0.000164808614784588,15.1844615250799
0.000174078389216912,15.1944615250799
0.000184709012853298,15.2044615250799
0.000196871388698299,15.2144615250799
0.000210798413579903,15.2244615250799
0.000226795665940431,15.2344615250799
0.000245258818931895,15.2444615250799
0.000266699909541433,15.2544615250799
0.000291786081974663,15.2644615250799
0.000321396763006937,15.2744615250799
0.000356709111717533,15.2844615250799
0.000399328314344656,15.2944615250799
0.000451491410320619,15.3044615250799
0.000511159906326108,15.3137247506398
0.000579096417163761,15.3222735300925
0.000656386018911895,15.3301621296442
0.00074429751603452,15.337442206599
0.000844279218395447,15.3441617514621
0.000957973220196051,15.3503653282858
0.00108723880140317,15.3560943321536
0.0012341808831647,15.3613872167364
0.00140118322259384,15.3662796986823
0.00159094545178343,15.3708049576628
0.00180652843275863,15.3749938312794
0.00205140674086423,15.378875000403
0.00232953319902749,15.3824751646185
0.00264541844217209,15.3858192214089
0.00300423108814748,15.3889304534483
0.0034119281386634,15.3918307231336
0.00387542656772821,15.39454068606
0.00440283896245363,15.3970800424592
0.00500380809815332,15.3994678479616
0.00569000135595735,15.4017229288337
0.00645117089278368,15.4038028697779
0.00729301644329066,15.4057314706805
0.00822862372284179,15.4075430732455
0.00927790621218314,15.4092730398259
0.0104744749052298,15.4109639395905
0.0118981965659358,15.4126964521007
0.01383281402224,15.4147192689971
0.0155078330708113,15.4162675394013
0.0173217030462184,15.4178158098056
0.0189954376936995,15.4191866270811
0.0204624828958366,15.4203898933239
0.0217763749704991,15.4215141071806
0.0229493941334186,15.4226097418066
0.0239709382290405,15.4237152070395
0.0248133036295412,15.4248733407139
0.0254230953703442,15.4261523943754
0.0256743235889027,15.4277226975183
0.025307890713644,15.4295236085185
0.0243454668911043,15.4313245195187
0.0232279780392853,15.4327900359542
0.0219746933153186,15.4341826452586
0.0205800819617315,15.4355981474026
0.0190522550418992,15.4370804504888
0.0173981406900746,15.438667393749
0.0156468812089945,15.4404065402812
0.0142582465902525,15.4418904262805
0.011792484194798,15.4448357924359
0.00976331766855245,15.447668514591
0.00816405017519764,15.4502758066542
0.00685086845963466,15.4527645675605
0.00570499332261775,15.4552917930847
0.00469939260620303,15.4578873942607
0.00385700969662398,15.4604379445126
0.00317049599778229,15.4628650736774
0.00260126714356796,15.4651985919195
0.00211876763762269,15.4674797878262
0.00169744705138048,15.4697708775169
0.0013109163963741,15.4721939179865
0.000905520091653027,15.475174143096
0.000676525755213567,15.4771167891925
0.000471255267355436,15.4790594352891
0.000303512635288593,15.4808168942689
0.000160574883291293,15.4824571086981
2.98433459132257e-05,15.4840908900599
-9.71058963194889e-05,15.4858184172908
-0.000229696373676021,15.4877943268071
-0.00039098091077547,15.49047649774
-0.000604536050614971,15.4946091179942
-0.000756367725215911,15.4980639275618
-0.000878259816652719,15.501239610476
-0.00099847199117203,15.5048256528111
-0.00112946349463389,15.5094543487205
-0.00125131439605861,15.5150110618804
-0.001318365124216,15.5198511175691
-0.00133438236226987,15.5242416387354
-0.00129440073694028,15.5281943273756
-0.00119294982563641,15.5317553042763
-0.00102399578861489,15.5349793274216
-0.000781018024067492,15.5379197783165
-0.000455877143324372,15.5406345299951
-3.62524325258553e-05,15.5431885654278
0.000497641407899697,15.5456526426018
0.00118428450569162,15.548126596146
0.00210659078065036,15.550773346282
0.00339387557908997,15.5537594151973
0.00502971002635242,15.556893898839
0.00638857508299003,15.559140264848
0.0079268142050399,15.5613866308571
0.00943591949610303,15.563326858324
0.0109765456073171,15.565071365575
0.012624313142456,15.5667086696994
0.0143932760655175,15.5682434352659
0.0163485512988536,15.5697183286784
0.0185080323585495,15.5711289163557
0.0209175001157297,15.572488248068
0.0236033699149528,15.5737945023883
0.0266091039457978,15.5750534363336
0.0299742428111575,15.576266623187
0.033741600367094,15.5774355982818
0.0379676101416462,15.5785644307731
0.0427134260427521,15.5796560418073
0.0480504898846742,15.5807135491177
0.054061928901735,15.5817400770106
0.0608509035887438,15.582739608059
0.0685395218731926,15.5837159739112
0.0772768277879642,15.5846733337906
0.0872476018087049,15.5856163170104
0.0986844490498306,15.5865501720207
0.111889141242361,15.5874812494015
0.127262761322715,15.5884174122232
0.145359818809034,15.5893690081393
0.166888313505321,15.5903464357762
0.191811607296057,15.5913263685412
0.220775890586697,15.5923188374497
0.254645218556556,15.593338127732
0.294697740396972,15.5944079075903
0.341645007710284,15.5955410609013
0.382657213596929,15.596472359728
0.416661892439808,15.5972353165633
0.446104767727367,15.5979162005264
0.471837940385545,15.5985568963118
0.493951750797271,15.5991831604969
0.512092534957095,15.5998172931265
0.525404744427166,15.6004853673806
0.53209146252631,15.6012287248573
0.528894857977222,15.6020295158784
0.514071759511749,15.6028537577115
0.486202987295907,15.6037178107585
0.443443618204266,15.6046334952105
0.383762868499799,15.6056091241979
0.339058101227683,15.6062279461753
0.289954379050879,15.6068467681526
0.246280289170154,15.6073668819744
0.208804438378941,15.607803813102
0.1758567821782,15.6081896132666
0.146334709891283,15.6085436541333
0.119567664269963,15.6088779541539
0.0950920432059305,15.6092012850958
0.0725271445581912,15.6095215270891
0.0514716014304967,15.609848053304
0.0312854575832499,15.6101974938181
0.00979476040831509,15.6106287726689
0.000157324664364544,15.6108513460527
-0.0085348069545572,15.6110739194365
-0.0150543444292944,15.6112583619393
-0.0210455850440068,15.6114447224203
-0.0270555096736199,15.6116523195792
-0.0328432507498469,15.611877700027
-0.038255509653311,15.6121187853847
-0.0432075102558906,15.6123748700223
-0.0476554524110682,15.6126461620242
-0.0515802228973299,15.6129335285651
-0.0549714408685756,15.6132383756492
-0.0578481734934773,15.6135654857735
-0.0601551017832521,15.6139087101156
-0.061959854663938,15.614276424075
-0.0632774139816726,15.6146723595082
-0.0641215315508885,15.615101049246
-0.0645037024536029,15.6155681525494
-0.0644314671781792,15.6160808457987
-0.0639061354938864,15.6166485169934
-0.0629170132850364,15.6172850798063
-0.0614377872187161,15.6180087342187
-0.0594148927521203,15.6188471725845
-0.0567363223732865,15.6198486314412
-0.0531110091539376,15.6211244940211
-0.0490358159467333,15.6225217613691
-0.0450946584525724,15.6238735877491
-0.0413361314293256,15.6251846212765
-0.0377839320574897,15.6264571310327
-0.0344501536796801,15.6276919424742
-0.0313400377964242,15.6288891509204
-0.0284541316391412,15.6300485013356
-0.0257894705576174,15.6311695881892
-0.0233403649276687,15.6322519582733
-0.0210990136311926,15.6332951588388
-0.0190560285323112,15.6342987531314
-0.0172009002201196,15.6352623152256
-0.0155224132536812,15.6361854106988
-0.0139476956572697,15.6371044473951
-0.012432388080125,15.6380470239712
-0.0109809828058377,15.6390147281282
-0.00959741159169154,15.6400096781198
-0.00828540875843809,15.6410343599421
-0.00704845818525887,15.6420917203415
-0.00588974108159281,15.6431852870547
-0.00481208137804189,15.6443193308278
-0.00381788861188276,15.6454990888408
-0.00290909771607771,15.6467310813352
-0.00208710436064963,15.6480235751052
-0.00135269314894038,15.6493872890435
-0.000705953419720303,15.6508365212581
-0.000146172094343386,15.6523910633179
0.000314135579352968,15.6540220164259
0.00067548641404663,15.6557007367041
0.000954103185562797,15.6574455415962
0.00116455428043176,15.659278012858
0.00132055258322846,15.6612270800855
0.00143539219512117,15.6633339437191
0.00152261746105292,15.6656624290594
0.0015973490647076,15.6683246858
0.00168018440203147,15.6715673107026
0.00178735786361165,15.6753083255819
0.00192675419996949,15.6793289780608
0.00209416884724304,15.6834466052897
0.0022693850320168,15.6873397897575
0.00245032378188477,15.6911386280198
0.00263607059164712,15.6949212943016
0.0028267082939877,15.6987394554624
0.0030232232249741,15.7026326555173
0.00322733383942921,15.706634610344
0.00344133252908074,15.7107764904845
0.00366797106215354,15.71508900977
0.0039104063620433,15.7196039035141
0.00417225391902438,15.7243553317144
0.00445780595856507,15.7293812977338
0.00477248290271819,15.7347248810562
0.00510982963791085,15.7402136461784
0.00545515210600924,15.7455600036379
0.00581528014147955,15.7508337010257
0.00619136282200639,15.7560061667837
0.0065877810099057,15.7610933334301
0.00700864100653568,15.7661019043342
0.00745857782360086,15.7710402066629
0.00794245616837278,15.7759133614618
0.00846552159744174,15.7807242806021
0.00903347560357484,15.7854736703971
0.00965259695978723,15.790160545195
0.0103298635598937,15.7947827650689
0.0110848754682752,15.79940633234
0.0119356260662416,15.804054236665
0.0129012557855735,15.8087329664767
0.0140090533403786,15.8134664605708
0.015301196824246,15.8183098344523
0.0168573425886552,15.8234019309028
0.0188975992703409,15.8291981420501
0.0207664634947643,15.833922594116
0.0227711193768184,15.8386470461819
0.0244029292571407,15.8424332962323
0.0257496400176698,15.84569292746
0.0268809635780522,15.848723930216
0.0277992190229124,15.8516702225578
0.0284458026353826,15.8544645590136
0.0288247011281831,15.857224251513
0.0289149953321445,15.8600885973349
0.0286375876471963,15.8633108523412
0.0276746556020942,15.8676432937749
0.0267936963143395,15.8703137150789
0.0257411316321804,15.8729841363828
0.0246724332960352,15.8754076707283
0.0236019643352033,15.8776764285807
0.0225297590680387,15.8798593240723
0.021458466544457,15.8819942943996
0.020391716407575,15.8841049066636
0.0193332086726896,15.8862075676959
0.0182864419022382,15.8883146650892
0.0172546400435357,15.8904361509018
0.016240742581291,15.8925804354255
0.0152474111234937,15.8947549451783
0.0142770423518392,15.8969664940103
0.0133317822617244,15.8992215468144
0.0124135344302663,15.9015264336238
0.0115239749255389,15.9038875100419
0.0106645588817275,15.906311316997
0.00983653242740292,15.9088047187406
0.00904094167147854,15.9113750495992
0.00825565275511367,15.9141136583498
0.00748429000894625,15.917039989875
0.00673058423894353,15.9201769682694
0.00599851156377886,15.9235510892908
0.00529227061717711,15.9271930840458
0.00461623548450723,15.9311387509315
0.00397487542878787,15.9354300437477
0.00337261690749166,15.9401167076887
0.00281359505073424,15.9452593996663
0.00230136320246401,15.9509351138664
0.00183861472201056,15.9572465921643
0.00143832419074453,15.9641183102832
0.00118410391454217,15.9695411097833
0.000982123335779618,15.9749639092835
0.000771490590317035,15.982422410052
0.000592839613028022,15.9909579347988
0.000450105571409498,16.000334781331
0.000342733590991705,16.010334781331
0.000268801217128992,16.020334781331
0.000218602903374484,16.030334781331
0.00018506620088523,16.040334781331
0.000163130199678746,16.050334781331
0.000149277356488849,16.060334781331
0.000141112947039518,16.070334781331
0.000137019944462506,16.080334781331
0.000135907825120941,16.090334781331
0.000137044028700579,16.100334781331
0.000139944425976234,16.110334781331
0.000144301620573027,16.120334781331
0.000149937045680505,16.130334781331
0.000156768781077792,16.140334781331
0.00016479054096513,16.150334781331
0.000174059091279487,16.160334781331
0.000184688352753532,16.170334781331
0.000196849166363853,16.180334781331
0.000210774357093937,16.190334781331
0.000226769415147815,16.200334781331
0.000245229900515916,16.210334781331
0.000266667700225446,16.220334781331
0.000291749754352369,16.230334781331
0.000321355204990863,16.240334781331
0.000356660804603479,16.250334781331
0.000399271143881451,16.260334781331
0.000451422365665044,16.270334781331
0.000511082757216331,16.2795989685747
0.000579010373194406,16.288148668199
0.00065628988332426,16.2960381133976
0.000744189884201928,16.3033189661307
0.000844158484942869,16.3100392224799
0.000957837563135399,16.3162434516168
0.00108708615728044,16.3219730533098
0.00123400891573027,16.3272664855416
0.00140098928824777,16.3321594689252
0.00159072655773366,16.3366851867736
0.00180628118967928,16.3408744800287
0.00205112730350888,16.3447560326312
0.00232921719844977,16.3483565469775
0.00264506089683492,16.3517009231068
0.00300382629362941,16.3548124459971
0.00341146952474368,16.357712980101
0.00387490650507472,16.3604231828027
0.00440224849798897,16.3629627558254
0.00500313657493343,16.3653507559403
0.00568923584089712,16.3676060100956
0.00645032696810346,16.3696861693413
0.00729208452383255,16.3716149529727
0.0082275892344765,16.3734267033663
0.00927674665505598,16.3751567819711
0.0104731505911521,16.3768477492491
0.0118965509370108,16.3785801760246
0.0138304341433672,16.3806025978657
0.0155059411658056,16.3821515560235
0.0173204467772224,16.3837005141813
0.0189943192328531,16.3850715271875
0.020461397371218,16.3862748723045
0.0217753080152563,16.3873991319766
0.022948348540885,16.3884947939718
0.0239699241494339,16.3896002700001
0.0248123393425768,16.3907583932048
0.0254222154806935,16.3920373967089
0.0256736244711763,16.3936075197535
0.0253073919825009,16.3954086628208
0.0243450044461753,16.3972098058882
0.0232275440545219,16.3986753992412
0.0219743079395497,16.400068029829
0.0205797522824301,16.4014835353361
0.0190519862525342,16.4029658298164
0.0173979394035028,16.4045527514253
0.0156467481994813,16.406291857979
0.0142585837755793,16.4077752418481
0.0117928045466639,16.4107205835471
0.00976357647286096,16.4135533420124
0.00816426338361621,16.416160662832
0.00685105734393696,16.4186494255533
0.00570516201117821,16.4211766483262
0.00469954381975016,16.4237722436778
0.00385727543625002,16.4263223625807
0.00317081596065127,16.4287491613997
0.002601593847044,16.4310824807633
0.00211906157277823,16.4333636499019
0.00169766374351787,16.4356549959143
0.00131097115342915,16.4380789679613
0.000905003040446499,16.4410637673594
0.000676237464295866,16.4430048952562
0.000471154236131469,16.4449460231531
0.000303537887596529,16.4467022580712
0.000160633708715933,16.4483421145617
2.98843364807411e-05,16.4499761482271
-9.71285909849275e-05,16.4517046345185
-0.000229859060186882,16.4536829060037
-0.000391585433967551,16.4563734749328
-0.000603749229605476,16.4604793319815
-0.000754560483685565,16.4639073518922
-0.000876103370042529,16.467068170869
-0.000996104006564247,16.4706394502971
-0.00112676494076051,16.4752410252018
-0.00124953881026906,16.480811630995
-0.00131729786474398,16.4856582562222
-0.00133408653234513,16.4900557311079
-0.0012949519445572,16.4940144867513
-0.00119443815437495,16.4975808250064
-0.0010265222810784,16.5008093930533
-0.000784682649595683,16.5037537302026
-0.000460831759958457,16.5064714041483
-4.27535471337411e-05,16.5090272248641
0.000489178252961738,16.5114918616939
0.00117334482786893,16.5139655745986
0.00209117429479087,16.5166080671934
0.0033738684945542,16.5195922323361
0.00500461792059397,16.5227249898662
0.00636565347794522,16.5249799580574
0.00790690795263045,16.5272349262486
0.00941855676785738,16.529181597758
0.0109577978006013,16.5309272480438
0.0126042419012461,16.5325658756457
0.0143712696204997,16.5341015021174
0.0163240161987194,16.5355769960668
0.0184808548176863,16.5369883042649
0.0208872665237724,16.5383482900711
0.0235696689698235,16.5396551536189
0.0265715003702627,16.5409146694178
0.0299320041435353,16.5421283232956
0.0336943562119584,16.5432978051998
0.0379146910816765,16.5444271049636
0.0426540431849945,16.5455191409972
0.0479834928454291,16.5465769876354
0.0539864168571862,16.5476038518598
0.0607655787629293,16.5486036757918
0.06844280075464,16.5495802867363
0.077166761196594,16.5505378393416
0.0871217519993178,16.5514809563246
0.0985396119428299,16.5524148690789
0.111721284478286,16.553345925288
0.127066349979595,16.5542819599218
0.145127002640714,16.5552332813296
0.16661921792329,16.5562107172901
0.191499592845005,16.5571905549468
0.220412305831007,16.558182787734
0.254218121263764,16.5592016323259
0.294187922030592,16.5602705809086
0.34107787421493,16.5614034591693
0.38219685404409,16.5623375650617
0.416271456675805,16.5631019643213
0.445765051820599,16.5637835520516
0.471544159365706,16.5644245638037
0.493705696405446,16.5650508571639
0.511901409439424,16.565684730338
0.525283682925329,16.5663521582634
0.532073446892591,16.5670941582166
0.529018708164452,16.5678947573036
0.514352176560551,16.5687185796837
0.486660899427632,16.5695820351342
0.444104042436777,16.5704970055056
0.38465158788115,16.5714718090574
0.339863832299374,16.5720930598288
0.290624438573607,16.5727143106001
0.246838470625735,16.5732360183181
0.209287518039131,16.5736738595382
0.17628583719969,16.574060206873
0.146721491852848,16.5744145899098
0.119919693679467,16.5747490954207
0.0954149539847307,16.5750725219973
0.0728260684686918,16.5753927481419
0.051752873818987,16.5757191026935
0.0315619585960416,16.5760680274038
0.0101349813591086,16.5764969277461
0.000323973372278072,16.576722918148
-0.00851170398420448,16.5769489085498
-0.0150405583292619,16.5771335626072
-0.0210316098168587,16.5773198707125
-0.0270418513801633,16.5775274196119
-0.0328303839758934,16.5777527586485
-0.0382437036929892,16.5779938055842
-0.0431969082266712,16.5782498521581
-0.0476461220049863,16.5785211046438
-0.0515721859307777,16.57880842882
-0.0549647253754198,16.5791132294668
-0.057843907199941,16.5794404337529
-0.0601518794444763,16.5797836118099
-0.0619576316628263,16.5801512711388
-0.0632761592597159,16.5805471437654
-0.0641212172688229,16.5809757605988
-0.06450430697418,16.5814427783419
-0.0644329787131279,16.5819553698781
-0.0639085606006621,16.5825229154513
-0.0629203841962573,16.5831593227232
-0.0614421746613132,16.5838827782615
-0.0594204405016383,16.5847209487162
-0.0567433492681839,16.5857220086154
-0.0531205020386034,16.5869971048401
-0.049045066199313,16.5883944830595
-0.0451035327816813,16.589746402351
-0.0413445608039432,16.5910575220911
-0.0377918806850127,16.5923301154874
-0.0344576041326021,16.593565010056
-0.0313469846436751,16.5947623021137
-0.0284605782078404,16.5959217370648
-0.0257954269474469,16.5970429095296
-0.0233458465372702,16.5981253663098
-0.0211040399325264,16.5991686546098
-0.0190606219829143,16.600172337627
-0.0172050852889449,16.6011359894201
-0.0155262155538547,16.6020591756094
-0.0139513706824682,16.6029781610805
-0.0124359243437235,16.6039206839452
-0.0109843713860347,16.6048883300426
-0.00960064393778762,16.6058832169002
-0.00828847681728815,16.606907829601
-0.00705135451425762,16.6079651137473
-0.00589245896732429,16.6090585956245
-0.00481461495989077,16.6101925441089
-0.00382023301155092,16.6113721939261
-0.00291124917490808,16.6126040620233
-0.00208906038888556,16.6138964106497
-0.00135445269490154,16.6152599522098
-0.000707517074817303,16.616708975138
-0.000147542366727149,16.6182632557422
0.000313007389731174,16.6198941231024
0.000674561024767088,16.6215727165155
0.000953346987452559,16.6233173525971
0.00116393595156995,16.6251496001467
0.00132004228394315,16.6270983682023
0.00143496040803439,16.6292048214106
0.00152223304537252,16.6315327154368
0.00159697479405677,16.63419403782
0.00167976084333818,16.6374348549063
0.00178688935733775,16.6411757101849
0.00192619212626039,16.6451952913302
0.00209359090854221,16.6493137076808
0.0022687947417847,16.653207257494
0.00244972253678416,16.6570062172874
0.00263545801405396,16.6607888570178
0.00282608200962453,16.6646068852711
0.00302257910723806,16.6684998659816
0.00322666630699936,16.6725015244893
0.0034406347825187,16.6766430347109
0.00366723521282462,16.6809551097239
0.00390962338545769,16.6854694808417
0.00417141328408728,16.6902203006186
0.00445689478564495,16.6952455618232
0.00477148441212531,16.7005883303049
0.00510881584856491,16.706077650495
0.00545409213348307,16.7114241553493
0.00581417681330995,16.7166981752695
0.00619020291988705,16.7218708975933
0.0065865539048508,16.7269583095705
0.00700733373198211,16.7319670979516
0.00745717688966542,16.7369056011767
0.00794094688936933,16.7417789455418
0.00846388800017098,16.7465900497242
0.00903170006587746,16.7513396252805
0.00965065990250176,16.7560266907241
0.0103277430603424,16.7606491083853
0.0110824902942155,16.7652725744515
0.011932933629442,16.7699204124003
0.0128981872179693,16.7745990235093
0.0140055114960465,16.7793322967794
0.0152970193195442,16.7841752040034
0.016852183591999,16.7892661756309
0.0188902312991237,16.7950586140825
0.020760925102186,16.7997891905809
0.0227679646991909,16.8045197670793
0.0244005657982662,16.8083077645
0.0257476650586386,16.8115679699668
0.0268793170241916,16.8145991949537
0.0277980090881703,16.8175458309468
0.028445005275795,16.8203403169098
0.0288243242480781,16.8230999663333
0.0289151008672114,16.8259640103069
0.0286383942377114,16.8291853413853
0.0276761218997873,16.8335182760954
0.0267953081228117,16.8361892928967
0.0257427432902694,16.838860309698
0.024674039635231,16.8412841720477
0.0236035736623986,16.8435531019591
0.0225313695440792,16.8457360935885
0.0214600730686171,16.8478711163684
0.0203933133105205,16.8499817521283
0.0193347904699729,16.85208441555
0.0182880034896928,16.8541914988674
0.0172561767454047,16.8563129570348
0.0162422501512728,16.8584572021942
0.0152488857162386,16.8606316620687
0.0142784805192811,16.8628431512149
0.0133331809141264,16.8650981349347
0.0124148908247309,16.8674029433893
0.0115252866826975,16.869763931995
0.0106658239117438,16.8721876414376
0.00983774897780328,16.8746809353534
0.00904210825495638,16.8772511474131
0.00825680195562429,16.8799894926969
0.00748541598726162,16.8829155309573
0.00673168128614619,16.8860521797648
0.00599957362540017,16.8894259291237
0.00529329132454411,16.893067503384
0.00461720826841681,16.8970126926934
0.00397579364803278,16.9013034408476
0.00337347414659043,16.9059894797026
0.00281438552175528,16.9111314469298
0.00230208223320664,16.9168063065281
0.00183925898356179,16.9231167538297
0.00143886741626963,16.9299877472877
0.00118421927920558,16.9354183657949
0.000981956960870748,16.940848984302
0.000771276971212551,16.9483112017098
0.000592689111991124,16.9568465140065
0.000449989794357874,16.9662241144241
0.000342654945953885,16.9762241144241
0.000268749002077805,16.9862241144241
0.000218569396682333,16.9962241144241
0.000185045804945746,17.0062241144241
0.000163118956183577,17.0162241144241
0.000149272537856733,17.0262241144241
0.000141112701137202,17.0362241144241
0.000137023018589659,17.0462241144241
0.000135913372854196,17.0562241144241
0.000137051482575607,17.0662241144241
0.000139953414767518,17.0762241144241
0.000144311914785489,17.0862241144241
0.000149948521130797,17.0962241144241
0.000156781394855667,17.1062241144241
0.000164804316499308,17.1162241144241
0.000174074110503831,17.1262241144241
0.000184704754161763,17.1362241144241
0.000196867148398071,17.1462241144241
0.000210794186969645,17.1562241144241
0.00022679144395479,17.1662241144241
0.000245254586359178,17.1762241144241
0.000266695642469369,17.1862241144241
0.0002917817440213,17.1962241144241
0.000321392299618469,17.2062241144241
0.000356704441331822,17.2162241144241
0.000399323314347321,17.2262241144241
0.000451485894092101,17.2362241144241
0.000511154397618674,17.245487444792
0.00057909094219202,17.2540363229229
0.000656380572360782,17.2619250117521
0.000744292085646619,17.2692051694247
0.000844273788145154,17.2759247873313
0.00095796777112027,17.2821284303129
0.00108723331179983,17.2878574941574
0.00123417532856398,17.2931504331697
0.00140117757601983,17.2980429645693
0.00159093968389087,17.3025682685442
0.00180652251246246,17.3067571831653
0.00205140063588627,17.3106383897329
0.00232952687720011,17.3142385882263
0.00264541187279111,17.3175826764919
0.00300422424418412,17.3206939375417
0.00341192100018668,17.3235942340906
0.0038754191267232,17.3263042220372
0.00440283123062014,17.3288436019097
0.00500380011952424,17.3312314296389
0.00568999322791718,17.3334865318103
0.0064511628546745,17.335566493024
0.00729300894658118,17.3374951136948
0.00822861756743984,17.3393067362432
0.00927790288673355,17.3410367240805
0.0104744774930287,17.342727648371
0.0118982129299866,17.3444601939898
0.0138328808787249,17.3464830811758
0.0155078243903256,17.3480313004093
0.0173216010284569,17.3495795196428
0.0189952949185566,17.3509503338749
0.0204623129238425,17.3521536069789
0.021776180947091,17.3532778298692
0.0229491770636862,17.3543734746938
0.0239706983441616,17.3554789514063
0.0248130405292942,17.356637098534
0.0254228075152815,17.3579161695696
0.0256740049310674,17.3594865022247
0.0253075467487911,17.3612874090007
0.0243451196773754,17.3630883157767
0.0232276333368556,17.3645538372239
0.0219743532463434,17.3659464540141
0.0205797496585982,17.367361963549
0.0190519338731355,17.3688442734571
0.0173978341312433,17.3704312227882
0.0156465967608372,17.3721703744386
0.0142578401323671,17.3736544215602
0.0117921658806807,17.3765997556008
0.00976307757361437,17.3794324360324
0.00816386190239827,17.3820397020646
0.00685070647603689,17.3845284681048
0.00570485278976707,17.3870557037412
0.00469927049796747,17.3896513184788
0.00385697488961046,17.3922016487755
0.00317051284749136,17.3946286078587
0.00260130744986375,17.3969620220445
0.00211880818885283,17.3992432007251
0.00169746304148367,17.4015344158397
0.00131086374714527,17.4039579211627
0.000905194111672677,17.4069404321378
0.000676320517174369,17.4088823230094
0.000471149226361898,17.4108242138811
0.000303474405550964,17.4125810616592
0.000160557330832305,17.4142210974187
2.9820362716892e-05,17.4158550045316
-9.71573871255191e-05,17.4175830096018
-0.000229814382618044,17.4195600953794
-0.000391314993997679,17.4222464417861
-0.000604166463498359,17.4263655944499
-0.00075547853123037,17.4298068162548
-0.000877190494049816,17.432974911952
-0.000997292795768547,17.4365534024527
-0.00112811382011593,17.4411682049163
-0.00125043604821818,17.4467320197039
-0.00131784940237559,17.451575430669
-0.00133426183082201,17.4559695049527
-0.00129471390443861,17.4599252972991
-0.00119374256867684,17.4634890074679
-0.00102531919779094,17.466715351053
-0.000782922627816888,17.4696577855843
-0.000458440487813339,17.4723740247862
-3.96053283155041e-05,17.4749289675799
0.000493285763400973,17.4773933222811
0.00117865980373684,17.4798671345572
0.00209867146030337,17.4825116889168
0.00338360945792151,17.4854967799224
0.00501684613998558,17.4886303785421
0.00637681866040597,17.4908811302079
0.00791659455203242,17.4931318818738
0.0094269970785775,17.4950753982424
0.0109669190728933,17.4968204960779
0.0126140168805729,17.4984584856888
0.014381989258806,17.4999936929301
0.0163359714343012,17.5014688963704
0.0184940978137113,17.5028798534683
0.0209019984759488,17.5042395207777
0.0235860881106247,17.5055460869908
0.0265898197412192,17.5068053195886
0.0299525860749436,17.50801874829
0.0337173757582052,17.5091879836424
0.0379404739420401,17.5103170560979
0.0426829734415969,17.5114088854479
0.048016140590982,17.5124665690308
0.0540232121542675,17.5134932698022
0.0608071534206093,17.5144929514171
0.0684899261116037,17.5154694433551
0.0772203868075746,17.5164269025019
0.0871830655078487,17.5173699547987
0.098610173454463,17.5183038398882
0.111803060088884,17.5192349070579
0.127162037362618,17.5201710049155
0.145240428520024,17.5211224610162
0.166750317155817,17.5220998935956
0.191651600973826,17.5230797784071
0.220589439696151,17.5240721272564
0.25442620229173,17.5250911902881
0.29443631169335,17.5261605454891
0.341354117678619,17.5272935575464
0.382420819016487,17.5282262912653
0.416461234850678,17.5289899867628
0.445930058280228,17.5296712318687
0.47168674382483,17.5303120902081
0.493824995101926,17.5309383698788
0.511993922586552,17.5315723698223
0.52534205380714,17.5322401125756
0.532081657224789,17.5329827725796
0.528957840639019,17.5337834654386
0.514215095074455,17.5346074922397
0.48643743795249,17.5354712387033
0.443782046223488,17.5363865565976
0.384218537646753,17.5373617614575
0.339471266403008,17.5379818275972
0.290298072834341,17.5386018937369
0.246566681636379,17.539122824401
0.209052350293243,17.5395602222143
0.176077003268189,17.5399463031099
0.14653325902833,17.5403005195917
0.119748395220369,17.540634925095
0.0952578448389786,17.5409583051086
0.0726806510359692,17.5412785388711
0.0516160704262433,17.5416049766612
0.0314275293217669,17.5419541512837
0.0099699410671168,17.5423841986311
0.000244170229390187,17.5426085086523
-0.00852108861992536,17.5428328186735
-0.0150456238865868,17.5430173715704
-0.0210367114411187,17.5432036986521
-0.0270468267579975,17.5434112657908
-0.0328350577440481,17.5436366205735
-0.0382479761631289,17.543877682166
-0.0432007266672178,17.5441337432817
-0.0476494617686209,17.5444050108661
-0.0515750394455217,17.5446923512172
-0.0549670818097856,17.5449971695708
-0.0578453159283678,17.5453243352453
-0.060152901213763,17.5456675306656
-0.0619582837642736,17.5460352104908
-0.0632764535384512,17.5464311066285
-0.0641211643534051,17.5468597506907
-0.0645039151943296,17.5473268003159
-0.0644322527756579,17.5478394296645
-0.0639074984906961,17.54840702182
-0.0629189745275262,17.5490434866297
-0.0614403920544547,17.5497670155464
-0.0594182330719648,17.5506052845724
-0.0567406016641431,17.5516064907769
-0.0531168567762125,17.5528818668687
-0.0490415155128971,17.5542792038738
-0.0451001258980484,17.5556310884449
-0.0413413232840997,17.5569421758361
-0.0377888257981069,17.5582147377606
-0.0344547383277175,17.5594496009925
-0.0313443098918486,17.5606468614927
-0.0284580931979592,17.5618062645117
-0.0257931278221969,17.5629274046209
-0.023343727443295,17.5640098286232
-0.0211020934797896,17.5650530837443
-0.019058839654255,17.5660567332018
-0.0172034578074578,17.5670203510621
-0.0155247332103484,17.5679435029304
-0.0139499367604143,17.5688625078036
-0.0124345431939522,17.5698050510104
-0.0109830463889599,17.5707727190951
-0.00959937833382597,17.5717676298599
-0.0082872736589238,17.5727922687338
-0.00705021662329363,17.5738495817521
-0.0058913888899707,17.5749430957498
-0.00481361492001274,17.5760770803107
-0.0038193048617069,17.5772567710896
-0.00291039434446757,17.5784886862807
-0.00208827982767884,17.5797810898534
-0.00135374680941193,17.5811446966676
-0.000706885650918764,17.5825937988191
-0.00014698446662159,17.5841481783909
0.000313473322964903,17.5857790782153
0.000674949866627443,17.5874577196557
0.00095367146404075,17.5892024196404
0.00116420792198311,17.5910347518725
0.00132027304481929,17.5929836331699
0.00143516113236919,17.5950902417243
0.00152241551841794,17.597418359549
0.00159715310049832,17.600080035528
0.00167995746042313,17.6033215365998
0.00178710268076762,17.6070624521314
0.00192644063929443,17.6110824386212
0.00209384473565588,17.6152005426928
0.00226905291233441,17.6190939478807
0.00244998480520087,17.6228928591953
0.00263572475228904,17.626675508814
0.00282635431785304,17.6304935888569
0.00302285873937787,17.6343866553927
0.00322695557245022,17.6383884300197
0.00344093646915333,17.642530085313
0.0036675525498729,17.6468423346337
0.00390996007360996,17.6513569108547
0.00417177365231974,17.6561079694408
0.00445728413422059,17.6611335073068
0.00477190963784806,17.6664765956366
0.00510924816518579,17.6719656844405
0.00545454415560596,17.6773121230356
0.00581464759474267,17.682586006972
0.00619069796566149,17.6877586204815
0.00658707768930305,17.6928459285755
0.00700789169375472,17.6978546245877
0.00745777470949978,17.7027930423133
0.00794159076827195,17.7076663058537
0.00846458470260454,17.7124773310749
0.0090324570697391,17.7172268273496
0.00965148552759035,17.7219138114477
0.0103286466297798,17.726536144749
0.011083506391782,17.7311596538538
0.0119340803723754,17.7358075199962
0.0128994939114752,17.7404861815712
0.0140070194719263,17.7452195487417
0.015298797651025,17.7500626544048
0.0168543793358599,17.7551541042883
0.0188933660283491,17.760948146018
0.0207632805137917,17.7656761141862
0.0227693048307815,17.7704040823544
0.0244015695586965,17.7741913368278
0.0257485038806405,17.7774512984318
0.026880016461727,17.7804824290546
0.0277985232093393,17.7834289191414
0.0284453442933933,17.7862233415979
0.0288244848168948,17.7889830092399
0.0289150567183047,17.7918471812198
0.0286380526453012,17.7950689041443
0.0276755003506458,17.7994016294035
0.0267946248203811,17.8020723934287
0.0257420600565899,17.8047431574539
0.0246733586434878,17.8071668805713
0.0236028913858752,17.8094357374335
0.0225306867678482,17.8116186882278
0.0214593919615763,17.8137536887044
0.0203926362825854,17.8158643144412
0.0193341198524667,17.8179669767877
0.0182873414525645,17.8200740660066
0.0172555252768755,17.8221955358217
0.0162416110574662,17.8243397975875
0.0152482606333059,17.826514278513
0.0142778709149779,17.8287257928519
0.013332588104389,17.8309808057286
0.012414315978514,17.8332856472449
0.01152473081489,17.835646672891
0.0106652879145492,17.8380704234484
0.00983723360034891,17.840563762806
0.00904161413391756,17.8431340249025
0.00825631519401726,17.8458724818017
0.00748493906171578,17.8487986442956
0.00673121661707272,17.851935432722
0.00599912377985839,17.8553093395212
0.00529285900304201,17.8589510919039
0.00461679625665495,17.8628964835104
0.00397540476248295,17.8671874623711
0.00337311110827411,17.871873765989
0.00281405078580669,17.8770160401828
0.00230177778202276,17.8826912617355
0.00183898623029451,17.8890021456933
0.00143863748830836,17.8958734460999
0.00118416425654335,17.9013009022377
0.000982017345868174,17.9067283583755
0.000771357234266097,17.9141891010208
0.000592744946338346,17.9227245180896
0.000450032548776265,17.9321018360451
0.000342683726403628,17.9421018360451
0.000268767818481989,17.9521018360451
0.000218581146711426,17.9621018360451
0.000185052595349373,17.9721018360451
0.000163122280102156,17.9821018360451
0.000149273425397336,17.9921018360451
0.000141111852157104,18.0021018360451
0.000137020906710124,18.0121018360451
0.000135910318459446,18.0221018360451
0.000137047700890691,18.0321018360451
0.000139949047009135,18.0421018360451
0.000144307048626947,18.0521018360451
0.000149943204339447,18.0621018360451
0.000156775644264852,18.0721018360451
0.000164798123541875,18.0821018360451
0.000174067444049808,18.0921018360451
0.000184697561102885,18.1021018360451
0.00019685935217152,18.1121018360451
0.000210785683959261,18.1221018360451
0.000226782097419239,18.1321018360451
0.0002452442171699,18.1421018360451
0.000266684015422528,18.1521018360451
0.000291768547689912,18.1621018360451
0.000321377116409169,18.1721018360451
0.000356686702193641,18.1821018360451
0.000399302228657274,18.1921018360452
0.000451460338032894,18.2021018360452
0.00051112572770916,18.2113655174463
0.00057905885030529,18.2199147317377
0.000656344599805383,18.2278037297473
0.000744251695111332,18.2350841712618
0.000844228365878636,18.2418040496587
0.000957916620692837,18.2480079316074
0.00108717564452406,18.2537372145723
0.00123411025146714,18.2590303544033
0.00140110407852816,18.2639230697431
0.0015908566217351,18.268448542088
0.00180642858938694,18.2726376107097
0.00205129438074518,18.2765189580127
0.0023294066176985,18.280119284987
0.00264527570110944,18.2834634903975
0.00300406997423124,18.2865748580818
0.00341174611211466,18.2894752514889
0.0038752206918404,18.2921853271514
0.00440260580838965,18.2947247861186
0.00500354360936574,18.297112684707
0.00568970064573528,18.2993678497081
0.0064508401431883,18.3014478912185
0.00729265234552048,18.3033765786122
0.00822822133949931,18.3051882544431
0.00927745812997673,18.3069182815899
0.0104739684244068,18.3086092275236
0.0118975780385869,18.3103417344253
0.013831955081602,18.3123644575425
0.0155070991462923,18.3139129497886
0.0173211361361129,18.3154614420347
0.0189948900751952,18.3168323319796
0.0204619254943547,18.3180356341901
0.0217758048636583,18.3191598731052
0.0229488132245465,18.320255526662
0.0239703506101419,18.321361005513
0.0248127159962284,18.3225191462605
0.0254225197532748,18.3237981949751
0.0256737920454488,18.3253684532332
0.0253074153113611,18.3271694499131
0.0243450027755786,18.3289704465929
0.0232275269457881,18.3304359967203
0.021974264733857,18.3318286203784
0.0205796811991099,18.3332441299092
0.0190518868724441,18.334726435311
0.0173978105222766,18.3363133752516
0.0156465955255431,18.3380525106317
0.0142580412157182,18.339536336276
0.0117923450116742,18.342481666544
0.0097632192930376,18.3453143682688
0.00816397698149106,18.3479216499336
0.00685080758135686,18.3504104157695
0.00570494235912272,18.3529376485708
0.00469935010943409,18.3555332586853
0.00385708322174058,18.3580834616873
0.00317063296451487,18.3605103235695
0.00260142603971397,18.3628436795308
0.00211891413006853,18.3651248509454
0.00169754358138385,18.367416142647
0.001310894042462,18.3698399247445
0.000905052366136298,18.3728237946328
0.000676245606723994,18.3747652338175
0.000471128963472232,18.3767066730023
0.000303490802279329,18.3784631573685
0.000160583006873131,18.3801030868938
2.98401289297133e-05,18.3817370690555
-9.71571180077281e-05,18.3834653592664
-0.000229856299111752,18.3854431474042
-0.000391489038575588,18.3881319932998
-0.000603929852758193,18.3922432371742
-0.000754942109073597,18.3956765805727
-0.000876552150518144,18.3988403222776
-0.000996592928174914,18.4024144940183
-0.00112731757347853,18.4070213696406
-0.00124991006521556,18.4125892506768
-0.00131753058796553,18.4174345855448
-0.00133416856615311,18.4218306954349
-0.00129486834575296,18.4257882622894
-0.00119417109002835,18.4293535437823
-0.00102605150457992,18.4325812180065
-0.000783988105906882,18.4355247904457
-0.000459883516059559,18.438241886746
-4.15009777092353e-05,18.4407973536719
0.000490816297584327,18.4432618751851
0.00117546732728536,18.4457356237224
0.00209417173134601,18.4483789387693
0.00337776729853681,18.4513634741198
0.00500951626834749,18.4544965679745
0.00637012590631447,18.4567498414663
0.00791078723669275,18.4590031149581
0.00942193642308403,18.4609485191696
0.0109614526686497,18.4626939491374
0.0126081618121383,18.4643323228199
0.0143755693008551,18.4658677813105
0.0163288126418008,18.4673431592939
0.0184861681322994,18.4687543267331
0.0208931772607556,18.4701141849012
0.0235762560776051,18.4714209291321
0.0265788494846221,18.4726803314712
0.0299402617875471,18.4738938956334
0.0337035913489308,18.4750632787998
0.0379250342194156,18.4761924875405
0.0426656482927156,18.4772844408308
0.0479965906883226,18.4783422226432
0.0540011779746785,18.4793690214732
0.0607822564702942,18.4803687884843
0.0684617044181295,18.4813453518675
0.0771882717024251,18.4823028671721
0.0871463457827101,18.4832459584127
0.0985679146609503,18.4841798602786
0.111754085349537,18.4851109211496
0.127104731726655,18.4860469814598
0.145172501456038,18.4869983572877
0.166671805645153,18.4879757921686
0.191560567810509,18.4889556490744
0.220483360546633,18.4899479288358
0.254301592756381,18.4909668615899
0.294287568661715,18.4920359739944
0.34118866961237,18.4931689059887
0.382286593661868,18.4941024601655
0.416347439809961,18.4948665768868
0.445831072783589,18.4955480273253
0.47160116598475,18.4961889777808
0.493753344233005,18.4968152659088
0.511938295951609,18.4974491901699
0.525306859578005,18.4981167445347
0.532076497260386,18.4988590091297
0.528994041555662,18.4996596460129
0.514296936776856,18.5004835505236
0.486571015702057,18.501347122775
0.443974647764861,18.5022622325271
0.3844776723675,18.5032371968979
0.339706192653271,18.5038579717968
0.290493409538844,18.5044787466958
0.246729375864084,18.5050001423612
0.209193138103684,18.5054378055924
0.176202036469616,18.5058240460188
0.146645966354517,18.5061783622478
0.119850970168218,18.5065128276557
0.0953519299908464,18.5068362355661
0.0727677416373841,18.5071564647632
0.0516980105104074,18.5074828526558
0.0315080619702343,18.5078318773857
0.010068897791238,18.5082612354981
0.000292261106807333,18.5084865477899
-0.00851503744379155,18.5087118600817
-0.0150422085218242,18.5088964739965
-0.0210332611556576,18.5090827882337
-0.0270434580525859,18.5092903432622
-0.0328318884303724,18.5095156876223
-0.0382450731706142,18.5097567395297
-0.0431981254885366,18.5100127910439
-0.0476471790991519,18.5102840486598
-0.0515730805496804,18.5105713783279
-0.0549654537997951,18.5108761849787
-0.0578443096318296,18.511203375249
-0.0601521544894289,18.511546559096
-0.0619577852788788,18.5119142252603
-0.0632761954642929,18.5123101057093
-0.064121139670431,18.5127387315802
-0.0645041184243676,18.5132057598794
-0.0644326808803838,18.513718363904
-0.0639081529679196,18.5142859248205
-0.0629198632125377,18.514922350995
-0.0614415322654967,18.5156458305733
-0.0594196601065531,18.516484033223
-0.0567423938876081,18.517485140739
-0.0531192568532723,18.5187603276486
-0.0490438538061775,18.5201576922583
-0.0451023693252968,18.5215096000181
-0.0413434546890523,18.5228207089675
-0.0377908362802273,18.5240932918347
-0.0344566235568118,18.5253281758992
-0.0313460685304441,18.5265254573654
-0.0284597260974333,18.5276848815903
-0.025794637529127,18.5288060431806
-0.0233451178318142,18.5298884889401
-0.0211033694452803,18.5309317660817
-0.0190600068408853,18.5319354378102
-0.0172045223640024,18.5328990781875
-0.0155257015726755,18.5338222528293
-0.0139508730867577,18.5347412448359
-0.0124354445990276,18.5356837745522
-0.0109839106314011,18.5366514280548
-0.00960020326529702,18.5376463229636
-0.0082880572558956,18.5386709444783
-0.00705095701540742,18.5397282383468
-0.00589208438982642,18.5408217310397
-0.00481426405420728,18.5419556916714
-0.00381990640332654,18.5431353552803
-0.00291094734754247,18.5443672392336
-0.00208878366461801,18.5456596063593
-0.00135420121340817,18.5470231698887
-0.00070729076732,18.5484722194885
-0.000147340921476868,18.5500265334108
0.000313177762541183,18.5516574117035
0.00067470533449313,18.5533360212881
0.000953469519382556,18.5550806788854
0.00116404069874398,18.5569129549457
0.00132013304962723,18.5588617611261
0.00143504095337416,18.5609682666326
0.00152230733697828,18.5632962359991
0.00159704757155511,18.565957677412
0.00167983966875797,18.5691987247222
0.00178697370257487,18.5729396002696
0.00192628824131327,18.5769593178562
0.00209368857377522,18.5810776244127
0.00226889375442475,18.5849711233604
0.00244982291212438,18.5887700659837
0.0026355599567134,18.5925527089917
0.0028261859599309,18.5963707551961
0.00302268572236235,18.6002637657712
0.00322677643284731,18.6042654647424
0.00344074943214921,18.6084070255527
0.00366735555800646,18.6127191613745
0.00390975077113228,18.6172336040623
0.00417154928690937,18.6219845071823
0.00445704133792602,18.6270098649463
0.00477164402555501,18.6323527450595
0.00510897830196224,18.6378419799442
0.00545426199514662,18.6431884588421
0.00581435380839766,18.648462428147
0.00619038907628061,18.6536351097671
0.00658675088591385,18.6587224829375
0.00700754355331043,18.6637312367255
0.00745740166370298,18.6686697078761
0.00794118892726641,18.6735430218744
0.00846414982928705,18.6783540963695
0.00903198448484896,18.6831036421138
0.0096509700286233,18.6877906769754
0.010328082389174,18.6924130629315
0.0110828718045387,18.6970365451335
0.0119333641161163,18.7016843936435
0.0128986776745244,18.7063630236717
0.0140060774262751,18.7110963321512
0.0152976866301022,18.7159393137867
0.0168530074282738,18.7210304647447
0.0188914071782567,18.7268235042354
0.0207618085102371,18.7315531019357
0.022768467096995,18.7362826996359
0.0244009420712035,18.7400704184733
0.025747979524526,18.7433305325486
0.0268795792654583,18.7463617221725
0.0277982018941892,18.749308303487
0.028445132474576,18.7521027656441
0.0288243845881,18.7548624218793
0.0289150845095334,18.7577265137913
0.0286382664530564,18.7609479916276
0.0276758892281435,18.7652808478437
0.026795052314077,18.7679517699275
0.025742487507373,18.7706226920112
0.0246737846869101,18.7730465021869
0.0236033182274348,18.7753154047202
0.0225311139182357,18.777498381039
0.0214598180659284,18.7796333954492
0.0203930598352046,18.7817440274381
0.0193345393967519,18.7838466904384
0.0182877556328206,18.7859537759452
0.0172559328510673,18.7880752384512
0.0162420108974735,18.7902194898027
0.0152486517173484,18.7923939575293
0.0142782523266407,18.794605456073
0.013332959022261,18.7968604506682
0.0124146756731598,18.7991652714523
0.0115250786532792,18.8015262738674
0.0106656233404203,18.8039499986332
0.00983755614694199,18.8064433094778
0.00904192340480882,18.8090135401692
0.00825661985774466,18.8117519272154
0.00748523756920436,18.8146780119577
0.00673150745411473,18.8178147130032
0.00599940534055047,18.8211885212671
0.00529312959806029,18.8248301621694
0.00461705414343452,18.8287754271637
0.00397564817927611,18.8330662616294
0.00337333835311632,18.8377523995342
0.00281426032311614,18.8428944815969
0.00230196837204546,18.8485694765987
0.00183915698947996,18.8548800872473
0.00143878145232119,18.8617511955419
0.00118419674047319,18.8671806783841
0.000981976355809655,18.8726101612264
0.000771303743583696,18.8800718592293
0.00059270748267176,18.8886072153556
0.000450003790564355,18.897984721876
0.000342664273636843,18.907984721876
0.000268754994702527,18.917984721876
0.000218573019419548,18.927984721876
0.000185047761700396,18.937984721876
0.000163119747032369,18.947984721876
0.000149272508229059,18.957984721876
0.00014111208585091,18.967984721876
0.000137021976650071,18.977984721876
0.000135912011951103,18.987984721876
0.000137049875203655,18.9979847218761
0.000139951608640776,19.0079847218761
0.000144309939657654,19.0179847218761
0.000149946393327384,19.0279847218761
0.000156779120245268,19.0379847218761
0.000164801892311854,19.0479847218761
0.000174071526239889,19.0579847218761
0.000184701991736051,19.0679847218761
0.000196864181575719,19.0779847218761
0.000210790980066449,19.0879847218761
0.000226787949672212,19.0979847218761
0.000245250742495793,19.1079847218761
0.000266691367066747,19.1179847218761
0.000291776928218476,19.1279847218761
0.00032138679702519,19.1379847218761
0.00035669805193951,19.1479847218761
0.000399315759595513,19.1579847218761
0.000451476777130905,19.1679847218761
0.000511144219106451,19.177248179568
0.000579079598930493,19.1857971795061
0.00065636790751083,19.1936859802588
0.000744277915050081,19.2009662405925
0.00084425790129808,19.2076859526392
0.000957949929105284,19.213889681921
0.0010872132440331,19.2196188248484
0.00123415272869065,19.2249118362995
0.00140115209739119,19.2298044340204
0.00159091093408458,19.2343297986829
0.0018064900470894,19.2385187688013
0.00205136395081776,19.2424000260837
0.00232948539970594,19.2460002708829
0.00264536494991203,19.2493444013847
0.00300417112831173,19.2524557009071
0.00341186083038527,19.2553560324387
0.0038753509034679,19.2580660521162
0.00440275378122735,19.2606054606669
0.005003712048517,19.2629933141751
0.0056898928423219,19.2652484393195
0.00645105219883688,19.2673284293891
0.00729288677059154,19.2692570742497
0.00822848197226621,19.2710687164193
0.00927775094375674,19.2727987192041
0.0104743040418979,19.274489652653
0.0118979975582019,19.276222187463
0.0138325699277955,19.2782450237697
0.0155075763687316,19.2797933324107
0.0173214350410073,19.2813416410517
0.0189951464616314,19.2827124808892
0.0204621684384955,19.2839157644196
0.0217760385913844,19.2850399934309
0.0229490372169184,19.2861356419729
0.0239705623403229,19.287241120246
0.0248129107603796,19.2883992661708
0.0254226884997616,19.2896783308485
0.0256739092326014,19.2912486402561
0.0253074770068976,19.2930495773959
0.0243450546622296,19.2948505145357
0.0232275720911182,19.2963160461302
0.0219742984368136,19.2977086658053
0.0205797022537616,19.2991241758735
0.0190518945964217,19.3006064847374
0.017397803893719,19.3021934313034
0.0156465757578739,19.3039325777721
0.0142578793500669,19.3054165609642
0.0117922039837646,19.3083618913936
0.00976310856811578,19.3111945760733
0.00816388755449323,19.3138018455571
0.00685072926124797,19.316290611899
0.00570487319000943,19.3188178472993
0.0046992888328697,19.3214134614403
0.00385700934414192,19.3239637323743
0.0031705550622601,19.3263906459748
0.00260135084089251,19.3287240327582
0.00211884728073013,19.331005207712
0.0016974916865563,19.3332964580424
0.0013108702759968,19.3357200914738
0.000905122131653433,19.3387032317698
0.000676280091564604,19.3406449137812
0.000471134635429473,19.3425865957927
0.000303477231941153,19.3443432753275
0.000160564819833144,19.3459832619116
2.9825441254e-05,19.3476172037494
-9.71610266427061e-05,19.3493453407349
-0.000229837235913186,19.3513227513966
-0.000391398595167599,19.3540102533745
-0.00060405914508781,19.35812573558
-0.000755231524730341,19.3615632918105
-0.000876895794065452,19.3647293575638
-0.000996969237341796,19.3683058331204
-0.00112774516877036,19.3729169355498
-0.00125019341935979,19.3784826470646
-0.00131770345719138,19.3833269551909
-0.00133422117097275,19.3877219788596
-0.00129478885165383,19.3916785991277
-0.00119394540808316,19.3952430415891
-0.00102566373415736,19.3984700055877
-0.000783422515186039,19.4014129706227
-0.000459116415518754,19.4041296090604
-4.04922816556895e-05,19.4066847958732
0.000492131191729405,19.4091492276428
0.00117716774851444,19.4116230086311
0.00209656914182653,19.4142669832348
0.00338088099254455,19.417251814637
0.00501342391559578,19.4203851775518
0.00637369350240756,19.4226371045411
0.00791388207737337,19.4248890315304
0.0094246326722524,19.4268334280264
0.0109643657943074,19.4285786813269
0.012611282941065,19.4302168508534
0.0143789917618323,19.4317521754226
0.0163326293181892,19.4332274605363
0.018490395828352,19.4346385158372
0.0208978802639611,19.4359982722735
0.0235814977918449,19.4373049215578
0.0265846979148314,19.4385642334316
0.0299468324516423,19.4397777255824
0.0337109403420938,19.440947029981
0.0379332655628953,19.4420761660985
0.0426748846402561,19.4431680533494
0.0480070137724732,19.4442257829926
0.0540129253906861,19.445252529584
0.0607955299606525,19.4462522511045
0.0684767502577197,19.4472287764371
0.0772053930543845,19.4481862618442
0.0871659218079379,19.4491293323689
0.0985904434578639,19.4500632253355
0.111780194479746,19.4509942896253
0.127135282264623,19.4519303700253
0.145208714747262,19.452881788738
0.166713661575269,19.4538592224553
0.191609099229272,19.4548390943152
0.220539913419518,19.455831411005
0.254368025021624,19.4568504133356
0.294366867849002,19.4579196553352
0.341276868258154,19.4590526300008
0.382358123501355,19.4599857463718
0.416408066811825,19.460749638443
0.445883798726637,19.4614309794399
0.471646739869661,19.4620718808372
0.493791489976896,19.4626981645081
0.511967896194842,19.4633321291558
0.525325565603331,19.4639997839579
0.532079194247114,19.4647422592505
0.528974690608931,19.4655429260041
0.514253258425435,19.466366895722
0.486499762999524,19.4672305608432
0.443871938347035,19.4681457815319
0.384339506510269,19.4691208740432
0.339580938565313,19.4697412709554
0.290389271750032,19.4703616678676
0.24664264774528,19.4708828155755
0.209118092371696,19.4713203372995
0.176135391635242,19.4717064926853
0.146585893721644,19.472060755748
0.119796300010894,19.472395189228
0.0953017865275693,19.4727185822688
0.072721327883173,19.4730388138922
0.0516543440650995,19.473365228355
0.0314651501962845,19.4737143328834
0.0100161998428239,19.4741440574678
0.000266739754072196,19.4743688340672
-0.00851810410455623,19.4745936106665
-0.0150438886536221,19.4747781922138
-0.0210349550998197,19.4749645127428
-0.0270451108723135,19.4751720737797
-0.0328334420733567,19.4753974233204
-0.0382464946389163,19.4756384800465
-0.0431993973084481,19.47589453634
-0.0476482930808803,19.4761657989181
-0.0515740341485906,19.4764531339029
-0.0549662434638428,19.4767579463757
-0.0578447886494342,19.4770851241428
-0.0601525054740486,19.4774283137191
-0.0619580138960698,19.4777959866464
-0.0632763056084206,19.4781918748571
-0.0641211348351421,19.4786205097215
-0.0645040013427547,19.4790875485566
-0.064432453084843,19.4796001650835
-0.063907813761199,19.4801677414106
-0.0629194087859894,19.4808041866305
-0.0614409541604897,19.4815276905115
-0.0594189410531214,19.4823659258281
-0.0567414955139791,19.4833670818655
-0.0531180602872251,19.4846423616736
-0.0490426881822033,19.4860397126556
-0.0451012509434745,19.4873916089492
-0.0413423920088888,19.4887027072253
-0.0377898336920351,19.4899752797153
-0.0344556831953208,19.4912101534512
-0.0313451910510756,19.4924074245189
-0.0284589110723592,19.4935668382238
-0.0257938836907623,19.4946879891558
-0.0233444232545435,19.4957704241189
-0.0211027316970666,19.4968136903324
-0.0190594231182996,19.497817351008
-0.0172039896132988,19.4987809802099
-0.0155252165976754,19.4997041435486
-0.0139504040388268,19.5006231419434
-0.0124349929106982,19.5015656783575
-0.0109834774156104,19.5025333390997
-0.00959978958885161,19.5035282418804
-0.00828766412368435,19.5045528720131
-0.00705058535632853,19.5056101753885
-0.0058917350419953,19.5067036786579
-0.00481393774955972,19.5078376511689
-0.0038196037514889,19.5090173282659
-0.00291066881874316,19.5102492277264
-0.0020885295711173,19.5115416129451
-0.00135397168847123,19.5129051979618
-0.000707085739750228,19.5143542736489
-0.000147160081639053,19.5159086201602
0.000313328341548037,19.5175395091422
0.000674830550802168,19.5192181345409
0.000953573563423093,19.5209628131803
0.00116412747551936,19.522795117125
0.00132020627900856,19.5247439605942
0.00143510431461308,19.5268505172541
0.00152236471105718,19.5291785603147
0.00159710359682419,19.5318401181627
0.00167990174757011,19.5350813907023
0.00178704130431751,19.5388222860884
0.00192636744654595,19.5428421371492
0.00209376957900612,19.5469603418504
0.00226897621402802,19.5508537936296
0.00244990672465753,19.5546527204668
0.00263564522795536,19.5584353667411
0.00282627303743044,19.5622534298903
0.00302277516961073,19.5661464685226
0.00322686899587892,19.5701482054422
0.00344084601327056,19.5742898136553
0.00366745720272181,19.5786020064278
0.00390985867714385,19.5831165161239
0.00417166485454611,19.587867497262
0.00445716628130251,19.5928929454089
0.00477178057567029,19.5982359300139
0.00510911709149143,19.6037250902682
0.00545440711015367,19.6090715481184
0.00581450492802175,19.614345473665
0.00619054797644837,19.6195181203121
0.00658691900684185,19.6246054600833
0.00700772264693944,19.6296141841925
0.00745759355845569,19.634552627883
0.00794139561791251,19.6394259159324
0.00846437349053773,19.6442369650813
0.00903222751977994,19.6489864853774
0.00965123511010521,19.6536734941272
0.0103283725119155,19.6582958530016
0.0110831980746956,19.6629193490284
0.0119337323526953,19.6675672065964
0.0128990972893969,19.6722458528351
0.0140065616940665,19.6769791914752
0.0152982577356592,19.6818222368477
0.0168537126043636,19.6869135414177
0.0188924139549819,19.6927070958816
0.0207625650027811,19.697435855883
0.0227688975219585,19.7021646158844
0.0244012644570922,19.7059520960941
0.0257482489304405,19.7092121318383
0.0268798038990608,19.7122432911515
0.0277983670016613,19.7151898256002
0.0284452413362424,19.7179842673598
0.0288244361291976,19.7207439294493
0.0289150702916663,19.7236080624822
0.0286381566898375,19.726829666193
0.0276756895380309,19.7311624551324
0.0267948327879308,19.733833296022
0.0257422680035023,19.7365041369117
0.0246735659044153,19.7389279023654
0.0236030990333763,19.7411967814361
0.0225308945644183,19.7433797446403
0.0214595992487191,19.7455147518892
0.0203928423284174,19.7476253806618
0.0193343239489682,19.7497280433206
0.0182875429407887,19.7518351307275
0.0172557235531581,19.7539565969801
0.016241805573557,19.756100853672
0.0152484508926883,19.7582753281677
0.0142780564723957,19.7604868348122
0.0133327685608111,19.7627418387831
0.0124144909796598,19.7650466701991
0.0115249000533826,19.7674076845263
0.010665451120363,19.7698314225156
0.00983739054699466,19.7723247479769
0.00904176462911892,19.7748949947648
0.00825646344702314,19.7776334176747
0.00748508431904323,19.7805595423355
0.00673135814210914,19.783696288243
0.00599926079139726,19.7870701470956
0.00529299067931612,19.7907118452323
0.00461692175001488,19.7946571752292
0.00397552321596815,19.7989480838264
0.0033732216940295,19.8036343068066
0.00281415275693133,19.8087764875064
0.00230187053555291,19.814451598815
0.00183906933657358,19.8207623497745
0.00143870755852777,19.8276335566985
0.00118417947783382,19.8330620132633
0.00098199644127083,19.838490469828
0.000771330231334066,19.8459516869434
0.000592725962529831,19.8544870757536
0.000450017956325383,19.863864488985
0.000342673829322001,19.873864488985
0.000268761264516633,19.883864488985
0.000218576959933136,19.893864488985
0.000185050067925653,19.903864488985
0.000163120911300471,19.913864488985
0.000149272870104472,19.923864488985
0.000141111876006454,19.933864488985
0.000137021351171112,19.943864488985
0.000135911076395109,19.953864488985
0.000137048700448929,19.963864488985
0.000139950241161637,19.973864488985
0.000144308408279478,19.983864488985
0.000148861941054076,19.9919322444925
0.000154138145058486,20
