ecg,time
0.00814318214492918,15.0015311303997
0.00916651903470937,15.0032677932438
0.0103258087334877,15.0049524523666
0.0116755550458444,15.0066414887555
0.0134278716266239,15.0085300475876
0.0153252564552304,15.0103169938612
0.0169688690132906,15.0117281858486
0.0186998522324693,15.013139377836
0.0202458278384259,15.014382592157
0.0216264960696511,15.0155230982098
0.0228648295647658,15.0166194742229
0.0239572173954838,15.0177120088908
0.0248825993533932,15.018840084516
0.025599360338973,15.0200587460824
0.0260203743777262,15.0214816265949
0.0258109671989279,15.0236126502791
0.0251214044137888,15.0251153583579
0.0240845512886047,15.0266180664368
0.0228961284708618,15.028011801731
0.0215607331091084,15.0294083239912
0.020087486972962,15.0308577548576
0.0184854138745505,15.0323975063042
0.0174696319315747,15.0333759698185
0.0164812477541591,15.0343544333328
0.0146910000496984,15.036251223034
0.0130642061725319,15.0381480127352
0.0118057028216807,15.039759928344
0.0107572660062454,15.0412232236499
0.00981105737399796,15.0426589259246
0.00890683996844206,15.0441552371027
0.00798738474088564,15.0458301358045
0.00694206086035957,15.0479732996124
0.00587716260008484,15.0505061949953
0.0049594906291173,15.0530856518214
0.00421570838432801,15.0555629238932
0.00354369451181595,15.058234747337
0.00293430597099001,15.061192892685
0.00241897608633159,15.0643267510607
0.00199313108942784,15.0676665767874
0.00165449080057318,15.0712529316435
0.00140555852676882,15.0751363494766
0.00125712547379954,15.079381509266
0.00123134954155731,15.0835818731577
0.00131538449464378,15.0873325779856
0.00148997454945479,15.0907060839306
0.001744963168979,15.0937467338559
0.0020758739589045,15.0965013909612
0.0024829428695922,15.0990189819623
0.00297072003676855,15.1013473139848
0.00354919999249745,15.1035354841723
0.00423694327809502,15.1056381498593
0.00506809480733227,15.1077235567581
0.00610563938856583,15.1098842254341
0.00747799184466538,15.1122713135472
0.00933085930004127,15.1149703936624
0.010947740107656,15.1169967539339
0.0127894724720063,15.1190231142055
0.014620753558502,15.1207878437161
0.0165009797091746,15.1223760979252
0.0184889589235748,15.123844120356
0.0206506442166053,15.1252337215516
0.0230361070872883,15.1265625134182
0.0256834281932995,15.1278356657727
0.0286445147100372,15.1290618905852
0.031959781696966,15.1302419959552
0.0356833648099306,15.1313802993618
0.0398708346189507,15.1324792568654
0.0445825645697457,15.1335408998412
0.0498937112869536,15.1345687171225
0.0558883686630011,15.1355655853417
0.0626651140987156,15.1365345324317
0.0703432398538814,15.1374790587406
0.0790647692330167,15.138402694024
0.0890017356471178,15.1393091987574
0.100367239798271,15.1402028202247
0.113426807437476,15.141088251897
0.128517784058307,15.1419708944622
0.146077548649232,15.1428571632506
0.166691381553676,15.1437551400332
0.191177487977009,15.1446757562185
0.219592085868732,15.1456000491455
0.252531631064323,15.1465324387752
0.290908615037026,15.1474851428407
0.336122270939328,15.1484809911176
0.374687852840946,15.1492594209428
0.415192003426868,15.1500378507679
0.451024492434498,15.1507186600189
0.482235957554692,15.1513299071998
0.509675262226091,15.1519088556563
0.533477333116597,15.1524808312716
0.553268383863053,15.1530693184973
0.568069644693869,15.1537056675998
0.575532856433043,15.1544525560599
0.571597941986146,15.155216050059
0.555202091536575,15.1560165538217
0.524608083014843,15.156873837358
0.480414529382702,15.1577510856566
0.421210404535115,15.1586694026147
0.369849283176151,15.1593457045712
0.312866595852112,15.1600220065277
0.263413624688872,15.1605729964638
0.222134649765096,15.1610219383459
0.186458642556207,15.1614110710292
0.154807143914335,15.1617643036546
0.12629034553265,15.1620954500713
0.100331184907284,15.1624140198398
0.0764832750253393,15.1627281212599
0.0543072798949627,15.1630468969897
0.0331593255486552,15.1633856304273
0.0111062926813936,15.1637931994962
-0.000365627432794081,15.1640375779901
-0.00793460705800402,15.1642157332276
-0.0148627559030175,15.164393888465
-0.0209039651048926,15.1645638967328
-0.0270901546706038,15.164755787589
-0.0331607758422035,15.1649665326085
-0.0389134899244548,15.1651933388146
-0.0442329052829539,15.1654349890575
-0.049056774796924,15.1656913226085
-0.053354842634159,15.1659629114424
-0.0571164368895093,15.1662508961722
-0.0603429842213877,15.1665569192601
-0.0630388622712912,15.1668831221685
-0.0652738818625428,15.1672450064228
-0.0668980939033277,15.1676178877216
-0.06803372669532,15.1680206519869
-0.0686951159926825,15.1684585600705
-0.0688924156534468,15.1689380304694
-0.0686305093066647,15.1694673221985
-0.067905165690016,15.1700580504126
-0.0666973251654683,15.1707263699924
-0.064965983801623,15.1714952978794
-0.0626268788159469,15.1724025670865
-0.0594840396139397,15.1735242417627
-0.0552814086562447,15.1749587183465
-0.0511692642899415,15.1763426459674
-0.0472120146873981,15.1776855919972
-0.0434450319565837,15.1789905329072
-0.0398872265990623,15.180258584372
-0.0365486543963611,15.1814899237528
-0.0334336640107005,15.1826842738829
-0.0305424268775004,15.1838411589536
-0.0278718480459503,15.1849600386217
-0.025416227699319,15.1860403749675
-0.023167814125202,15.18708166042
-0.0211172978611023,15.1880834215218
-0.0192542620155149,15.1890452066796
-0.0175675895976834,15.1899665624337
-0.0159801168757119,15.1908862169641
-0.0144514768347693,15.1918294664315
-0.0129861023378315,15.1927979260637
-0.011587895793724,15.193793723055
-0.0102605557716054,15.1948193556574
-0.00900752249820965,15.1958777867882
-0.007831923459382,15.1969725654209
-0.00673651603671392,15.1981079903061
-0.00572362673143321,15.1992893359677
-0.00479508587996338,15.2005231733297
-0.00395215566951642,15.201817839665
-0.00319544724429833,15.2031841550751
-0.00252481878291279,15.2046365692599
-0.00193923811162904,15.2061951139238
-0.00145274924194039,15.2078271972254
-0.00106398993464175,15.2095077039445
-0.000756613292298077,15.2112549532688
-0.000515837918662976,15.2130907233874
-0.000327638430745135,15.2150442591399
-0.000178248868112386,15.2171573140061
-5.33635604941774e-05,15.2194947956437
6.35283530344725e-05,15.2221713909081
0.000196269090706935,15.2254420878986
0.000356628779426268,15.2291852715711
0.000549328502440482,15.2332221912046
0.000798260010185824,15.2379498391176
0.00107597234706122,15.2429278766776
0.00133307088419429,15.2474524999269
0.00157692662996492,15.2517651985766
0.00181980771370455,15.2561222307419
0.00208042235956205,15.2608760647456
0.0023476523063793,15.2658136295671
0.00261134401140532,15.2707123015507
0.00286757714840227,15.2754597750922
0.00309226304425981,15.2795815820437
0.00330639047311715,15.2834580215356
0.0035188720548772,15.2872394528256
0.00373484289207167,15.2910037144382
0.00395817415079482,15.2948019751111
0.00419232862934116,15.2986735002835
0.00444073004327986,15.3026513691767
0.00470702688981167,15.3067659893655
0.00499530273563359,15.3110472093562
0.00531028770075908,15.3155256377089
0.00565765856094465,15.3202338687635
0.00604452544288656,15.3252077917083
0.00646725957731781,15.330333770061
0.00690820774974846,15.3353512608651
0.00737597412945928,15.3403249843319
0.00787175555484835,15.3452228382886
0.0084009320784651,15.3500511294149
0.00896921989341871,15.3548109751554
0.00958350616324282,15.3595062356602
0.0102514198740604,15.3641390341463
0.0109926822226642,15.3687774447262
0.0118252617757256,15.3734462690335
0.0127681463914826,15.3781533180098
0.0138480426606416,15.3829228508096
0.0151055553350111,15.387808531645
0.0166157680779269,15.3929433286574
0.0185787200467556,15.3987520615884
0.0204524664306593,15.4036836136667
0.0220315526043601,15.407566847113
0.0236466588265534,15.4114500805592
0.0250340079605427,15.4148768634149
0.0262021287123631,15.4180155599584
0.0271648828782055,15.4210403552089
0.0278731271368742,15.4239300752043
0.0283153366491772,15.4267478131782
0.0284790946559888,15.4296243215803
0.0283092487973642,15.432763422507
0.0275718957745092,15.4368172196547
0.0267209665536576,15.4397412648328
0.0256544161072975,15.4426653100109
0.0245762268747248,15.4452432861343
0.0235017477875233,15.4476148994003
0.0224267441761313,15.4498776904232
0.0213525913243944,15.4520804055943
0.02028265253459,15.454251488974
0.0192206422640049,15.4564100047401
0.0181701587380463,15.4585699794694
0.0171345570357735,15.4607424518844
0.0161169165056784,15.462936592714
0.0151200399669024,15.4651603756723
0.0141464651424318,15.4674210062048
0.0131984711309688,15.4697252331674
0.0122780925122886,15.4720795646704
0.0113871279138419,15.4744904476649
0.0105271454930813,15.4769644278799
0.00969949606947306,15.4795082736229
0.00890531698791756,15.4821291199635
0.00813568882174866,15.484871127545
0.00738002328700088,15.4877981167667
0.00664212905413818,15.4909314318341
0.00592587361746529,15.4942964218723
0.00523534595370422,15.4979223539284
0.00457470468626755,15.5018431663544
0.0039481573272964,15.5060984885261
0.00335982772770924,15.5107352077034
0.00281355479705859,15.5158101056726
0.00231260657855096,15.5213948874316
0.00185948065110376,15.5275838417148
0.00145695095358892,15.5344837070041
0.00111914662588663,15.5419198569901
0.000839320734883065,15.5500008681277
0.000611006369573875,15.5588733337579
0.000454476067974086,15.567672996682
0.000346181902371962,15.5763699653371
0.000257256291707637,15.5863699653371
0.000195313459563234,15.5963699653371
0.000152441861743342,15.6063699653371
0.000123236007694007,15.6163699653371
0.000103736337048972,15.6263699653371
9.10447001105548e-05,15.6363699653371
8.31047175638634e-05,15.6463699653371
7.84995368773929e-05,15.6563699653371
7.62677494491613e-05,15.6663699653371
7.57586454942404e-05,15.6763699653371
7.65310234445791e-05,15.6863699653371
7.82867228989467e-05,15.6963699653371
8.0827363227755e-05,15.7063699653371
8.40255000582286e-05,15.7163699653371
8.78048670495117e-05,15.7263699653371
9.21267249089005e-05,15.7363699653371
9.69805686966972e-05,15.7463699653371
0.000102378034527497,15.7563699653371
0.000108349176885682,15.7663699653371
0.000114940529111155,15.7763699653371
0.000122214559557334,15.7863699653371
0.000130250301451621,15.7963699653371
0.000139145070812552,15.8063699653371
0.000149017305334961,15.8163699653371
0.000160010673305247,15.8263699653371
0.000172299732682561,15.8363699653371
0.000186097586827757,15.8463699653371
0.000201666212141119,15.8563699653371
0.000219330464556174,15.8663699653371
0.000239497270869297,15.8763699653371
0.000262682284105698,15.8863699653371
0.000289547512327958,15.8963699653371
0.000320955439620213,15.9063699653371
0.000358048531772354,15.9163699653371
0.000402368856757823,15.9263699653371
0.000456042992457095,15.9363699653371
0.000518092853240149,15.9458162515317
0.000588352687320775,15.9545395947082
0.000667804995337446,15.9625882905202
0.000757651135646402,15.9700151159153
0.000859269983049003,15.9768692621776
0.000974227194811878,15.9831963365734
0.00110429669682469,15.9890386555985
0.00125148768300028,15.9944355000052
0.00141807767972338,15.9994233106223
0.00160664665103322,16.0040358967698
0.00182012244038355,16.0083046520179
0.00206182961013517,16.0122587637837
0.00233555243512345,16.0159253805019
0.00264560718707422,16.0193297850798
0.00299693648488081,16.0224955915669
0.00339523104197752,16.0254449418238
0.00384708396711114,16.0281987004086
0.00436020494528974,16.0307766944889
0.00494371966525104,16.0331980052652
0.0056086021281534,16.0354813321977
0.00635262774301579,16.0376045985013
0.0071740077692545,16.0395665416798
0.00808414731624904,16.0414010066412
0.00910023633910884,16.0431422157336
0.0102500137807141,16.0448287237305
0.0115855498971536,16.0465151505285
0.0133032500144274,16.0483835132419
0.0152540641449988,16.0502324582033
0.0169005017407404,16.0516502015527
0.0186371795217958,16.0530679449022
0.020190433659872,16.0543167268436
0.0215767420581885,16.0554598794001
0.0228204174298884,16.0565571425701
0.0239186225857439,16.0576491421621
0.0248509364938186,16.0587750332265
0.0255767554184298,16.0599888133064
0.0260118271781049,16.0614000308151
0.0258482910627507,16.0634692120945
0.0251839417135457,16.0649849952533
0.0241591622604666,16.0665007784121
0.0229810819167057,16.0678969991576
0.0216555012075339,16.0692914042162
0.0201913573360683,16.070736018549
0.0185979001127492,16.0722683971766
0.0175841088020366,16.0732440026949
0.0165943116934064,16.0742196082132
0.0152441769698184,16.0756254074964
0.0137450495507434,16.0773104828223
0.0123725225042802,16.0789955581482
0.0112445731989012,16.0805072545109
0.010258235031786,16.0819447060166
0.00934034901152818,16.0834004338618
0.00843660288915802,16.0849696593879
0.00747463355684461,16.0868247411424
0.00634450338928825,16.0893226083527
0.00535330258106387,16.0919035420919
0.00455304518428594,16.0943667101091
0.00385789349585185,16.0969025228841
0.00320301744355459,16.0997889836067
0.00264483526639175,16.1028396285121
0.00217827698493195,16.1060800723753
0.00179951743835316,16.1095472982616
0.00150855150803899,16.1132868561408
0.00131174366185891,16.1173562630338
0.00122726803879513,16.1217899390497
0.00126645586350208,16.1257178024767
0.00140309204592593,16.1292520404927
0.00162372115973345,16.1324325433914
0.00192184769124878,16.1353082749156
0.00229525788105805,16.1379232065448
0.0027467923862401,16.1403280667912
0.00328396295168547,16.1425715059094
0.00392098518877937,16.1447046404887
0.00468360280353339,16.146787497729
0.00561955002724861,16.1488999178164
0.00682341154481401,16.1511648634091
0.00847720519739462,16.1537652915165
0.0105382699315191,16.1564872104032
0.0121217239779254,16.1582992798777
0.0139116772488243,16.1601113493522
0.0157553167169822,16.1617507697859
0.017695557011875,16.1632615373655
0.0197801964371409,16.1646770447974
0.0220751882990028,16.1660297739438
0.0246152850649586,16.1673239834496
0.0274497273620864,16.1685686274104
0.0306209544765551,16.1697662581516
0.0341813295283584,16.1709212769843
0.0381791483853263,16.172034747636
0.0426785376854235,16.1731106197533
0.0477473599083646,16.1741514195951
0.0534639379708377,16.1751598600758
0.059922957819512,16.176139317541
0.0672347169661441,16.177093017128
0.0755304264945503,16.1780243128274
0.0849707275259394,16.178937017716
0.0957512952471493,16.1798351563915
0.108114950316184,16.1807231909372
0.122368056539147,16.1816062062994
0.138905313065158,16.1824902096398
0.158247031447025,16.1833825319563
0.181105903416851,16.1842927586217
0.207940049483872,16.1852161958896
0.239009853097569,16.1861442504045
0.27512219799724,16.1870870860393
0.317429810660803,16.1880620089285
0.368018474428302,16.1891075951765
0.403754795936471,16.1897998125032
0.440225631687217,16.1904920298298
0.472720600908015,16.191119456945
0.501318014065801,16.1917055754456
0.526297443759211,16.1922773083571
0.547438588635003,16.1928577417753
0.563991224033092,16.1934743520495
0.574219167469877,16.1941748195123
0.574286551873777,16.1949306031031
0.562322377006663,16.1957160360134
0.536838686414785,16.1965518268835
0.497260263941383,16.197424348567
0.443321852875086,16.1983282344883
0.376772078283235,16.199238387465
0.330373422215102,16.199799657729
0.280821155154028,16.2003609279929
0.237144421397487,16.2008384995198
0.199596685266686,16.2012465188426
0.166535740568112,16.2016114855864
0.136896866000685,16.2019498231496
0.110013962926024,16.2022722303968
0.0854058985836214,16.2025870839943
0.0626463392931321,16.2029027797019
0.0412125009784638,16.2032311777409
0.0199825811372493,16.20360023616
0.00240713873778952,16.2039553597879
-0.00553377806386102,16.2041369519813
-0.0127995832607579,16.2043185441748
-0.0190978748200746,16.204490867328
-0.025271288892394,16.2046766551356
-0.0314019945446597,16.2048822378979
-0.0372632825612741,16.2051045082398
-0.0427184144629411,16.2053418506235
-0.0476922441336529,16.2055938367954
-0.0521466994208855,16.2058608460571
-0.0560662943153918,16.2061438622364
-0.0594494836118529,16.2064443830092
-0.0623021421364582,16.2067644003738
-0.0647735740454698,16.2071324435614
-0.0665269310934195,16.2074984260253
-0.067786953211605,16.2078929972226
-0.0685695093089056,16.2083212877581
-0.0688857720158743,16.2087893340219
-0.0687422081817304,16.2093048571653
-0.068137616211196,16.2098783104825
-0.0670570583955937,16.2105247838219
-0.0654665002335205,16.2112649397775
-0.0632962831783928,16.2121315256671
-0.0603925189896774,16.2131861433376
-0.0562792242284876,16.2146012497153
-0.0521390830208231,16.2159955325518
-0.0481406978082307,16.2173478729826
-0.0443260963779902,16.2186617257608
-0.0407171510747806,16.2199385370826
-0.0373256424447839,16.2211786509613
-0.0341571033407655,16.2223818683504
-0.0312126039978193,16.2235477447704
-0.0284897623889176,16.2246757469633
-0.0259834472634505,16.2257653325386
-0.023686349845695,16.2268159854671
-0.0215894899065552,16.2278272246638
-0.0196826762090171,16.2287985950313
-0.0179549242310889,16.2297296461798
-0.0163541698785954,16.2306438216003
-0.0148110115877167,16.2315813296666
-0.0133301629922668,16.2325435860849
-0.0119155665473373,16.2335326412826
-0.0105709747899871,16.2345508970104
-0.0092998944799322,16.2356011954414
-0.00810553289729982,16.2366869325314
-0.00699074120373507,16.2378122101521
-0.00595795455083249,16.2389820448529
-0.00500912802618869,16.2402026619817
-0.00414566655230618,16.2414819232074
-0.00336834513646378,16.2428299717419
-0.00267721256724472,16.2442602520952
-0.00207146475160072,16.2457912182836
-0.00155900167925466,16.2474144180022
-0.00114857453012579,16.2490816747987
-0.000823200073088118,16.2508112751253
-0.000567862719275359,16.2526236574398
-0.000368394757177578,16.254545956092
-0.00021102518106935,16.2566162759915
-8.16786539925549e-05,16.258892502208
3.53819316629284e-05,16.2614732594453
0.000161300140245833,16.2645628645509
0.000317995028198772,16.2682955515325
0.000500853417490559,16.2722257337594
0.000734390764147452,16.2767503057065
0.00100960746896652,16.2817318433902
0.0012711761504464,16.2863426465585
0.00151722416140092,16.2906834915125
0.00175902193220921,16.2950041073202
0.00201260728871419,16.2996106634955
0.00228324766907253,16.3045992905904
0.00254651537263059,16.3094866188763
0.00281761427269855,16.314518188203
0.00304667702480072,16.3187289021696
0.00326207484651495,16.3226400148969
0.00347441396009191,16.3264334511663
0.00368931675685349,16.3301964970425
0.00391082226749368,16.3339841460774
0.00414243846608901,16.3378374802091
0.00438757837454944,16.3417906066609
0.00464982274392002,16.3458742346239
0.00493314875735607,16.3501182141619
0.00524213138414326,16.3545528987186
0.00558221767868949,16.359210362618
0.00596016620022425,16.3641257120506
0.00638004078095281,16.3692814189845
0.00681548224501243,16.3743022513234
0.00727802715388122,16.379291599154
0.00776754384720771,16.3842033097132
0.0082894635064836,16.3890460534229
0.00884919366059155,16.3938195443876
0.00945345441718268,16.3985278360627
0.0101097116035791,16.4031733264747
0.0108338938937735,16.407803769763
0.011646533327801,16.4124668321691
0.0125649269177627,16.4171645154786
0.0136140837970107,16.4219182798746
0.0148307636613364,16.426773182272
0.0162797721587079,16.4318383492111
0.0181172007041076,16.4374357851454
0.0205286881082975,16.4438549378265
0.0220824188209859,16.4476692158235
0.0236688908687492,16.4514834938206
0.0250511027775661,16.4549003283422
0.0262162930644972,16.4580362226304
0.0271761584246285,16.4610604069022
0.0278806775899852,16.4639483547049
0.0283191508966029,16.4667659531158
0.0284787874682823,16.4696444141773
0.0283034770532261,16.4727896172709
0.0275528534650366,16.4768706508501
0.0266997971401738,16.4797827387338
0.025633947721671,16.4826948266175
0.0245561127451573,16.4852671375412
0.0234816685719702,16.4876360670882
0.0224066712275275,16.4898974156756
0.0213325755768797,16.4920993439751
0.0202627615294616,16.4942700551755
0.0192009437591011,16.4964284929307
0.0181507166315683,16.4985886148037
0.0171154308668873,16.500761415885
0.0160981595888738,16.5029560421888
0.0151017018890807,16.5051804472768
0.0141285892502393,16.5074418289014
0.013181096679673,16.5097469286393
0.0122612558176058,16.5121022481806
0.0113708586736495,16.5145142407911
0.0105114697076079,16.516989454411
0.00968443698604322,16.5195346592566
0.00889089325984894,16.5221570004802
0.00812149909204397,16.5249022510939
0.00736613831352768,16.5278328417843
0.00662861718006727,16.5309701948656
0.00591280986096305,16.5343397200879
0.00522280512411071,16.5379707726169
0.00456276381148358,16.5418973814453
0.00393689332047117,16.5461592930321
0.00334931409468963,16.5508035496164
0.00280385750470189,16.5558871508402
0.00230377844196687,16.5614821417211
0.00185155933179202,16.5676833180418
0.0014502702621448,16.5745920296475
0.00111357823848771,16.5820387813296
0.000834741919302576,16.5901327324477
0.000607305147739817,16.599021174888
0.0004568737509361,16.6075034766478
0.000345773917714019,16.6163935638915
0.000256951403319615,16.6263935638915
0.000195084223415356,16.6363935638915
0.00015227780114957,16.6463935638915
0.000123124770951619,16.6563935638915
0.000103663957987081,16.6663935638915
9.09990930684045e-05,16.6763935638915
8.30771902166074e-05,16.6863935638915
7.84844372739452e-05,16.6963935638915
7.62615017994464e-05,16.7063935638915
7.57589302022153e-05,16.7163935638915
7.65362780733091e-05,16.7263935638915
7.82958795023757e-05,16.7363935638915
8.08397065530738e-05,16.7463935638915
8.40405771621004e-05,16.7563935638915
8.78224210339972e-05,16.7663935638915
9.21466454534265e-05,16.7763935638915
9.7002857199604e-05,16.7863935638915
0.000102402781598895,16.7963935638915
0.000108376549504453,16.8063935638915
0.000114970765089223,16.8163935638915
0.00012224796772439,16.8263935638915
0.000130287266764185,16.8363935638915
0.000139186064242234,16.8463935638915
0.000149062898933746,16.8563935638915
0.000160061561379909,16.8663935638915
0.000172356760642469,16.8763935638915
0.000186161790112073,16.8863935638915
0.000201738868826975,16.8963935638915
0.000219413167018084,16.9063935638915
0.000239592024559726,16.9163935638915
0.00026279164576134,16.9263935638915
0.000289674786724451,16.9363935638915
0.000321104965272613,16.9463935638915
0.000358226105162574,16.9563935638915
0.000402582378350349,16.9663935638915
0.000456303478993168,16.9763935638915
0.000518388664293808,16.9858365787542
0.000588687335826292,16.9945567777354
0.000668183426853629,17.00260257125
0.000758079120016735,17.0100267232055
0.000859754101596973,17.0168784082201
0.000974774912059297,17.0232032181644
0.0011049164672407,17.0290434553956
0.00125218908473393,17.0344383875175
0.00141887156731401,17.0394244430886
0.00160754532586471,17.0440354201087
0.00182113986612772,17.0483027018132
0.00206298166564934,17.0522554661301
0.00233685719801016,17.055920852724
0.00264708532393032,17.0593241365635
0.00299861171039673,17.062488924678
0.00339713073455839,17.0654373527398
0.00384923998417861,17.0681902800778
0.0043626547309871,17.0707675298333
0.00494650784963949,17.0731881805889
0.0056117829005128,17.0754709311183
0.00635613686345493,17.0775933973472
0.00717788622370513,17.079554691676
0.00808845766038356,17.0813886601075
0.0091050739337886,17.0831295310335
0.0102555414940618,17.084815896444
0.0115921032034498,17.0865025005967
0.0133122711202271,17.0883722882631
0.0152589922183365,17.0902165116701
0.0169052722656846,17.091633829224
0.0186415963081225,17.0930511467779
0.0201943391273798,17.0942995346282
0.0215802507559617,17.0954424983644
0.0228235514753676,17.0965396971359
0.0239213493321584,17.0976317323006
0.0248531785118095,17.0987577741765
0.025578365149347,17.0999718922892
0.026012460106277,17.1013839139738
0.0258458458092918,17.1034572084642
0.0251797815334374,17.1049720343129
0.0241542175794818,17.1064868601616
0.0229754538452931,17.1078828936058
0.0216492192159232,17.1092774319236
0.0201844683665272,17.1107223613639
0.0185904372182571,17.1122552246746
0.0175765132340103,17.1132310165891
0.0165868108744025,17.1142068085037
0.0152054428752037,17.1156468355802
0.0137146246724158,17.1173258875654
0.0123494093286271,17.1190049395507
0.0112251928755179,17.1205140327314
0.0102406931016941,17.1219510351637
0.00932355200425139,17.1234079327013
0.00841949430797299,17.1249805115938
0.00745524434178289,17.1268440801298
0.00632750427859134,17.1293430629759
0.00533851357996071,17.1319252324753
0.00454066698042351,17.1343878834951
0.00384653310184927,17.1369275704093
0.00319320180541448,17.1398168126134
0.00263655219503033,17.1428702860845
0.00217144343110383,17.1461140975251
0.00179409823958664,17.1495853553398
0.00150459045983442,17.1533297721259
0.00130942080932837,17.1574050970858
0.00122706950105743,17.1618306397836
0.00126784038791815,17.1657523700622
0.00140579727097762,17.1692810061873
0.00162760748787229,17.1724566290441
0.00192686198601718,17.1753282189885
0.00230140716221114,17.177939705861
0.00275414116467863,17.180341781437
0.00329267174469515,17.1825831976627
0.00393132713428783,17.184715089441
0.00469607671392717,17.1867976860984
0.00563508761241268,17.1889112096111
0.00684399769731197,17.191179630062
0.00850611295613337,17.1937862017321
0.0105726360006898,17.1965081595095
0.0121557809636399,17.1983152887643
0.013945190142376,17.200122418019
0.0157898760497076,17.201758820089
0.0177322544568198,17.2032675243819
0.019820158218363,17.2046816407952
0.0221193946666557,17.2060333104375
0.0246643812419209,17.2073265172809
0.0275047591751766,17.2085703473
0.0306825756934034,17.2097671369246
0.0342504615154424,17.2109213661746
0.0382568538820137,17.2120341112449
0.042765980993924,17.2131093065905
0.047845988612822,17.2141495026557
0.0535752545739828,17.2151573800472
0.0600488161001388,17.2161363327949
0.0673773347322885,17.2170895908802
0.0756924539634471,17.2180205104221
0.0851553949548004,17.2189329099047
0.0959625845437893,17.2198308208493
0.108357879378909,17.2207187174049
0.122648932966137,17.2216016929668
0.139232379184927,17.2224857766394
0.158631329114597,17.2233783304483
0.181562952060973,17.2242889956131
0.208468587463781,17.2252124470353
0.239622726044968,17.2261406669459
0.275836596550836,17.2270839004748
0.318272370419809,17.2280596616349
0.369046111802886,17.2291072227838
0.404697332480681,17.2297971053493
0.441047559321263,17.2304869879147
0.47344057840556,17.2311130122496
0.501951200474087,17.2316985061286
0.526844230481423,17.2322701778229
0.547887971483472,17.2328511121476
0.564316845422973,17.2334690196868
0.574357310686895,17.2341724649932
0.57414243306768,17.2349287160025
0.561867986649819,17.235715144696
0.536028436476444,17.2365524035339
0.49613797365174,17.2374249648113
0.441823431806053,17.2383300101523
0.375132125257568,17.2392383620899
0.32890654998419,17.2397960682477
0.279598739690924,17.2403537744056
0.236119309004621,17.2408289544791
0.198705751363071,17.2412355778398
0.165742859253005,17.2415996963157
0.136181215371255,17.2419375112598
0.109361659230722,17.242259627138
0.0848059084278013,17.2425743927791
0.0620874398242434,17.2428902378757
0.0406776025315044,17.2432191951316
0.0194200581088843,17.2435901209868
0.00138285814345803,17.2439572413979
-0.00655408529291489,17.2441408016035
-0.0138051733422496,17.244324361809
-0.0199818815452259,17.2444956735505
-0.0261655223307345,17.24468452191
-0.0322690664519417,17.2448926733852
-0.0380783594826053,17.2451171860924
-0.0434675594605338,17.2453566469397
-0.0483680975891004,17.2456107628246
-0.0527458821264616,17.2458800096166
-0.0565878758184762,17.2461654489373
-0.0598940463915694,17.246468649676
-0.0626697525795737,17.2467916768008
-0.0650356752912626,17.2471589481095
-0.0667224512142654,17.2475284852091
-0.0679182126463079,17.2479272409598
-0.068638193575499,17.2483604397492
-0.0688930583460326,17.2488343114526
-0.0686884789826525,17.2493568483657
-0.0680217427170477,17.249939089465
-0.0668758354118884,17.2505966531478
-0.0652132710739004,17.2513513674238
-0.0629572643828041,17.2522384111339
-0.0599339916239448,17.2533262355171
-0.0557256427027399,17.2547677918527
-0.0516001759227645,17.2561563277985
-0.0476242966159919,17.2575034171587
-0.0438359444003266,17.2588123056767
-0.0402552772873355,17.2600842480588
-0.0368930906394026,17.2613194907687
-0.0337542466133868,17.2625177886252
-0.0308393089124245,17.2636786782288
-0.0281454944795287,17.2648016215506
-0.0256673523722182,17.2658860782475
-0.0233973242883879,17.2669315368002
-0.0213262439839306,17.2679375203358
-0.0194437920345868,17.2689035757938
-0.0177389078021967,17.2698292512589
-0.0161455164716568,17.2707464659634
-0.0146104116609983,17.2716871575439
-0.0131381498745181,17.2726528525672
-0.0117326516133287,17.2736456437097
-0.0103976397172777,17.2746679858216
-0.00913658427395095,17.275722787476
-0.00795264853195694,17.2768135287164
-0.00684863185799818,17.2779444195099
-0.00582690936023509,17.2791206178947
-0.00488936716565291,17.2803485385064
-0.00403733129454173,17.2816363031037
-0.00327148620728348,17.2829944243142
-0.00259177547672607,17.2844368938061
-0.00199726937587292,17.2859830214126
-0.00149935074146384,17.2876110472755
-0.00110106054251779,17.2892855418301
-0.000785778210259437,17.2910247896553
-0.000538620456141442,17.2928499562062
-0.000345501884085432,17.2947893155681
-0.000192659300594653,17.2968829336388
-6.58992350638914e-05,17.2991924424134
5.09188342410387e-05,17.3018249302302
0.000180320754985485,17.3050107234335
0.000338843459586818,17.3087469239314
0.000526955021043186,17.3127335935081
0.000768667852610968,17.3173647069662
0.00104754888188795,17.3223841854891
0.0013066467176545,17.3269462794599
0.00155136376353903,17.331269314602
0.00179366261225316,17.335608478683
0.0020509805566772,17.3402938738565
0.00231952265770504,17.3452507799804
0.00258289316446407,17.3501422683112
0.00284509862578856,17.3550042396875
0.00307162452572509,17.3591638748499
0.00328627802792477,17.3630552437062
0.00349866638602397,17.3668417064494
0.00371413099546362,17.3706051371762
0.00393661432874481,17.3743983629181
0.00416959821803873,17.3782614539939
0.00441649942150871,17.3822279264618
0.00468093471923863,17.3863283164981
0.00496693825333089,17.39059246591
0.00527916818365201,17.395050861306
0.00562319450400701,17.3997358526719
0.00600596383697051,17.4046829690823
0.0064273953087323,17.4098226137858
0.00686582799253778,17.4148417823377
0.00733120217262685,17.4198227015257
0.00782410771535426,17.4247268999126
0.00834994943852546,17.4295617736407
0.00891430281763854,17.4343278124515
0.00952398234810617,17.439028997739
0.010186541928807,17.4436675726125
0.010919952580213,17.4483023370334
0.0117433588434011,17.452968481826
0.0126749660043306,17.4576711612254
0.013740677367678,17.4624332756007
0.0149792654332227,17.467304373027
0.0164608327853544,17.4724058563933
0.0183633266142461,17.4781108478223
0.020775824520564,17.4844526901463
0.0223084497444383,17.4881932667528
0.023863295377725,17.4919338433593
0.0252146625043955,17.4953002088098
0.0263530640541513,17.4984130502611
0.0272854618554224,17.5014328576296
0.0279545189430915,17.5043050815037
0.0283571545900508,17.5071225711777
0.0284768316910581,17.5100215670989
0.0282473405267368,17.5132302376216
0.0273492309347673,17.517626285352
0.0264743187099475,17.5204249005603
0.0254133900167825,17.5232235157686
0.0243382783659016,17.5257394646306
0.0232639346937569,17.528080722152
0.0221889164837008,17.5303269885563
0.0211154019220084,17.5325206746307
0.0200469155708023,17.5346875445452
0.018987168643741,17.5368452887815
0.0179397114131946,17.5390071415268
0.0169078398691357,17.5411836512677
0.0158945709616707,17.54338367866
0.01490264883473,17.5456149942981
0.0139345526054795,17.5478846812183
0.012992506603477,17.5501994175666
0.0120784937845895,17.552565680485
0.0111942595856241,17.5549899302159
0.0103413230002113,17.5574787518274
0.00952098886290332,17.5600389778267
0.00873434810393011,17.5626778433451
0.00796747607855959,17.5654590478546
0.00721542043866213,17.5684295820897
0.00648196206733034,17.5716117366795
0.00577103637414458,17.5750316611038
0.00508675030005994,17.5787195933304
0.00443327799954403,17.5827106240726
0.00381482248743051,17.58704582514
0.00323546261484427,17.5917740055201
0.00269894298961452,17.5969546567274
0.0022083697211877,17.6026637388076
0.00176606057187513,17.6090018366299
0.0013782389410772,17.6160096907575
0.00105362019494434,17.6235753230532
0.00078552178688787,17.6318145525193
0.000568734366270267,17.6408826709525
0.000442977026721165,17.6484898451038
0.000325929907645218,17.6583218402042
0.000243095953283595,17.6683218402042
0.000185418408805301,17.6783218402042
0.000145636070202782,17.6883218402042
0.000118653981041316,17.6983218402042
0.000100724919772127,17.7083218402042
8.91284914572854e-05,17.7183218402042
8.19524536780732e-05,17.7283218402042
7.7886539397593e-05,17.7383218402042
7.60427551076324e-05,17.7483218402042
7.58194400560435e-05,17.7583218402042
7.68083663444335e-05,17.7683218402042
7.87341066663313e-05,17.7783218402042
8.14143547056152e-05,17.7883218402042
8.47332314361213e-05,17.7983218402042
8.86229068652966e-05,17.8083218402042
9.30509170172339e-05,17.8183218402042
9.80115848342742e-05,17.8283218402042
0.000103520458818728,17.8383218402042
0.000109610988384934,17.8483218402042
0.000116332889404558,17.8583218402042
0.000123751848076787,17.8683218402042
0.000131950370816398,17.8783218402042
0.000141029719433278,17.8883218402042
0.000151112987458641,17.8983218402042
0.000162349491041936,17.9083218402042
0.000174920784142065,17.9183218402042
0.000189048784046034,17.9283218402042
0.000205006738733282,17.9383218402042
0.000223134126475387,17.9483218402042
0.000243857121391333,17.9583218402042
0.000267717105095537,17.9683218402042
0.000295411058240203,17.9783218402042
0.000327849888601036,17.9883218402042
0.000366244506239258,17.9983218402042
0.000412235992867244,18.0083218402042
0.000468097988471612,18.0183218402042
0.000531782498735767,18.0276198348046
0.000603839211736174,18.0362006546153
0.00068531754504743,18.044117796217
0.00077745683370051,18.0514234453698
0.000881673470544686,18.0581660384407
0.000999574028677984,18.0643904856199
0.0011329782883044,18.0701384627581
0.00128394754376767,18.0754486535207
0.00145481834927941,18.0803569424856
0.0016482378549846,18.0848966262779
0.001867210830551,18.0890986306727
0.0021151508718653,18.0929917127525
0.0023959442536849,18.0966026239417
0.00271402756227009,18.0999562885607
0.0030744854591162,18.103076003964
0.00348317932657854,18.1059836333559
0.00394691161049036,18.1086998074645
0.00447365379779373,18.1112441755927
0.00507286912600634,18.1136357070758
0.00575598262528158,18.1158930812571
0.0065152543848074,18.1179804084381
0.00735383105471924,18.1199133057861
0.0082841530436379,18.1217257054283
0.00932502071611816,18.1234522092159
0.0105075466137982,18.125133315219
0.0118979803215293,18.1268361758048
0.0137424792297451,18.128780200895
0.0155284560249959,18.1304353860813
0.0174821973762014,18.1320905712676
0.0192016661770671,18.1334806838606
0.0206936647341796,18.1346853973293
0.0220289646704509,18.1358071510314
0.0232229203082258,18.1368983207579
0.0242661168163601,18.1379974013374
0.0251320114835352,18.1391465048557
0.0257693606827149,18.1404114906305
0.0260598145640686,18.1419519556426
0.0256179119524028,18.1440716230192
0.0246211939555142,18.1458351231373
0.0234896714231407,18.1472816485115
0.0222218610040348,18.1486708796663
0.0208130462336663,18.1500903099445
0.019271661816608,18.1515821185749
0.0176042379187025,18.1531848206273
0.0158453696668987,18.1549487066566
0.0139191703675073,18.157068104133
0.0124404310464343,18.1588693549719
0.0112975555165402,18.1603940957112
0.0103059964957819,18.1618330045453
0.00938590540473771,18.1632858061426
0.00848271565494123,18.1648464701814
0.00752630257891422,18.1666800095992
0.00638976589879025,18.1691749558753
0.00539266109619935,18.1717526214057
0.00458579253901343,18.1742177378419
0.00388779632248431,18.1767439490978
0.00323183392371389,18.1796086781946
0.00266921764211749,18.1826506971241
0.00219840697680968,18.1858812655565
0.00181550610579965,18.1893366802763
0.0015202842521146,18.1930620092598
0.00131871517886468,18.1971140933884
0.00122804062166547,18.2015667908275
0.00126250325320769,18.2055134327439
0.00139521503797371,18.2090642952678
0.00161235309237147,18.2122593685983
0.00190698998431484,18.2151460553259
0.00227704496685384,18.2177715117181
0.00272498922336007,18.2201845959924
0.00325807260593057,18.2224339328947
0.00389018981728878,18.2245706717493
0.00464690419189961,18.2266554549323
0.00557544895714422,18.2287680040217
0.00676515393289448,18.2310233538774
0.00839541106030772,18.2336063116946
0.0104408480570168,18.2363279153645
0.0120252672912271,18.2381541901203
0.013816901176223,18.2399804648761
0.0156579626296661,18.2416287752547
0.0175921865178948,18.2431453771773
0.0196676829807826,18.2445648435359
0.0219507955997364,18.2459206003925
0.0244771154869173,18.247217631538
0.0272949561063309,18.2484646162531
0.0304476496766039,18.2496646243767
0.0339868437387736,18.2508218588658
0.0379605836154538,18.2519373931795
0.0424325960640481,18.2530151833121
0.0474699306326695,18.2540576861254
0.0531508334296362,18.2550677225608
0.059568971525381,18.2560486113004
0.0668335702844597,18.2570035574028
0.0750747230995088,18.2579359214986
0.0844514040525168,18.2588494954544
0.0951571829359488,18.2597482843431
0.107431970412507,18.2606367156367
0.121578547131306,18.2615198524476
0.137986200023482,18.2624036398503
0.157167439072348,18.2632953225425
0.179822467425675,18.2642043292918
0.206455961242343,18.2651277373685
0.237289159641039,18.2660553403971
0.273116936631646,18.2669970792288
0.315066225335439,18.2679696943965
0.365141342997144,18.2690098883186
0.40111825497865,18.2697087868509
0.437929986359697,18.2704076853831
0.470711732756441,18.2710391369753
0.499551059397693,18.2716270667693
0.524769770864396,18.272199033605
0.546179279550106,18.2727781519477
0.563070884492861,18.2733912874794
0.573806797931355,18.2740838168942
0.574647019532744,18.2748383824731
0.563530555780968,18.2756211433469
0.539017486758871,18.2764529557729
0.500282572630548,18.2773256266769
0.447371460215184,18.2782262994523
0.381267977622206,18.2791407298801
0.334390961507313,18.2797119912863
0.284158751967145,18.2802832526924
0.239935500307425,18.2807674918481
0.202018521676686,18.2811793816901
0.168689140847077,18.2815466930142
0.138839439438735,18.2818864764361
0.111783815002009,18.2822096973396
0.0870330299263956,18.2825248147543
0.0641608273459007,18.2828401425342
0.0426590681417954,18.2831671051366
0.0214906482465768,18.2835314515044
0.00607608267974975,18.2838357402772
-0.00272082466683206,18.2840301174629
-0.0107327963853823,18.2842244946485
-0.017318095024091,18.2843998890162
-0.0234464119112838,18.284579068169
-0.0296168998148156,18.2847791859579
-0.0355753018931316,18.2849967779192
-0.0411599798162732,18.2852297720805
-0.046280764435884,18.2854774392427
-0.0508905294860515,18.28573994859
-0.0549682368994134,18.2860181194078
-0.0585089084732991,18.286313302823
-0.0615174688709758,18.2866273440484
-0.0640595992463726,18.2869728012632
-0.0659835815953572,18.2873296283473
-0.0674100642440939,18.2877138134364
-0.0683545450616014,18.2881299571274
-0.0688293393624544,18.2885836295127
-0.0688427615707524,18.2890819095116
-0.0683968727738855,18.2896339985735
-0.0674818719402693,18.2902535508703
-0.0660713816000048,18.2909587488915
-0.0641109138316784,18.2917771773689
-0.0614854445633418,18.2927571004078
-0.0578932367067586,18.2940109670902
-0.0537174405431114,18.2954236013643
-0.0496580387459092,18.2967916239389
-0.0457695314692969,18.2981200736259
-0.0420797388919603,18.2994110801496
-0.038603704267434,18.3006653330889
-0.0353490958742131,18.3018828003789
-0.0323185604848733,18.3030631100384
-0.0295109532313534,18.3042057517854
-0.0269221296145614,18.3053101815718
-0.0245455567854944,18.3063758716224
-0.022372841226239,18.3074023280686
-0.0203942061202627,18.3083890880226
-0.0185989256540278,18.3093357026433
-0.0169757157267883,18.3102417098022
-0.015409234395548,18.3111700001319
-0.0139034648270541,18.3121223206798
-0.0124624189204081,18.3131005983639
-0.011089931568215,18.3141070869585
-0.00978961223226661,18.3151444440709
-0.00856479230729678,18.316215832732
-0.00741846964094785,18.3173250566196
-0.00635324999339312,18.3184767439123
-0.00537128477715187,18.31967660352
-0.00447420363823741,18.3209317927521
-0.00366303908195534,18.3222514636086
-0.00293813781111037,18.3236476096678
-0.00229904833208182,18.3251364503198
-0.00174436303445896,18.3267408525919
-0.00129664823466452,18.3283886466241
-0.000940160476590149,18.330091954131
-0.000659408376037956,18.331869477828
-0.000439938719040894,18.3337454030906
-0.000267892457824501,18.3357528707954
-0.000129421557799016,18.3379405668082
-9.67500315182581e-06,18.3403873524738
0.000109602013204353,18.3432424205711
0.000259194778471828,18.3468901112951
0.000428903575229469,18.3506902360282
0.00064121926408419,18.3549524083266
0.000908646725269742,18.3598894729847
0.00117772299939821,18.364659092394
0.00142832212179869,18.3690699698057
0.00167018916609941,18.3733684723309
0.00191694447282986,18.3778234446932
0.00219457545667061,18.382920143951
0.00245910048662917,18.3878219572287
0.00272613427817254,18.3927826376722
0.00296452078472852,18.3971821842045
0.00318317076746872,18.4011729361321
0.00339582801294881,18.4049969304502
0.00360925492866273,18.4087636807625
0.00382789217449984,18.4125369271703
0.00405537312003249,18.4163617460552
0.00429510967353533,18.4202743048981
0.00455058982226902,18.4243061840967
0.00482562293083897,18.4284873858075
0.00512453611171079,18.4328479311344
0.00545241385060794,18.4374191127559
0.00581546305071987,18.4422347559952
0.0062216084297299,18.4473324328679
0.00665025381433967,18.4523942564952
0.00710274482230802,18.4574010928978
0.00758169281084278,18.4623413827851
0.00809098624177215,18.4672101786202
0.00863589816954157,18.4720089909451
0.00922274291712558,18.4767412081024
0.00985871076521336,18.4814098866248
0.0105532802474109,18.4860261719219
0.0113314714473665,18.4906797995815
0.012207736615032,18.4953623561379
0.0132045429596696,18.5000917607623
0.0143530724579925,18.5049008585709
0.015704411581665,18.509867167662
0.017365145408228,18.515197039091
0.0197179189324043,18.5217433372319
0.021364616890165,18.5258858215306
0.0230811284319777,18.5300283058293
0.0245625267640979,18.5336293174778
0.0258062053806598,18.5368485123614
0.0268431595035747,18.539897750922
0.0276484254608401,18.5428422993055
0.0281865590984673,18.5456723472058
0.0284538959154293,18.5485103610601
0.0284154284300424,18.5515204808017
0.0279432213699195,18.5550804215865
0.0271417077275447,18.5583345874323
0.0260454845479288,18.5615887532781
0.0249547036403925,18.5643047812642
0.0238788614915443,18.5667360471725
0.0228040349160114,18.5690300011593
0.0217292493571786,18.5712499000055
0.0206574161511201,18.5734295845208
0.0195922079818547,18.5755907319114
0.0185372879729528,18.57774882953
0.0174961030112135,18.5799158048803
0.016471829447108,18.5821013932136
0.0154673677262402,18.5843139271481
0.0144853457201273,18.5865608460824
0.0135281333703524,18.588849027652
0.0125978500001577,18.5911850422135
0.0116963743458887,18.5935753443799
0.0108253566152734,18.5960264235123
0.00998622166179904,18.5985449583886
0.00918018154791901,18.6011379380626
0.00840649578891836,18.6038190902871
0.00764542861683493,18.6066785198839
0.00690083070026032,18.6097361266697
0.00617646376699381,18.6130160262494
0.00547637312340277,18.6165460239128
0.00480468780726687,18.6203583040771
0.00416560830544301,18.6244903409524
0.00356330813427016,18.6289862198191
0.00300175474936918,18.6338988100939
0.00248444991917404,18.6392937922607
0.00201417766200547,18.6452563985358
0.00159292615138819,18.6519007019715
0.00123283450252914,18.6591334391504
0.000933067473265885,18.6669691089939
0.000687054462326479,18.6755393997945
0.000494573670149657,18.6850188914341
0.000362356151888792,18.6947438957698
0.000269516828575068,18.7046461706701
0.000204042388008879,18.7146461706701
0.000158526958273362,18.7246461706701
0.000127355708443796,18.7346461706701
0.000106446660548074,18.7446461706702
9.27727294668778e-05,18.7546461706702
8.41534311877961e-05,18.7646461706702
7.90730935742838e-05,18.7746461706702
7.65014709813021e-05,18.7846461706702
7.57428993995694e-05,18.7946461706702
7.63268754821895e-05,18.8046461706702
7.79354186737734e-05,18.8146461706702
8.03561733084527e-05,18.8246461706702
8.34515856266185e-05,18.8346461706702
8.71379832837037e-05,18.8446461706702
9.13711265108189e-05,18.8546461706702
9.61363108088424e-05,18.8646461706702
0.000101441808981779,18.8746461706702
0.000107314796477202,18.8846461706702
0.000113799144023164,18.8946461706702
0.000120954660380591,18.9046461706702
0.000128857536794709,18.9146461706702
0.000137601885416131,18.9246461706702
0.000147302385105701,18.9346461706702
0.000158098163820932,18.9446461706702
0.000170158174184397,18.9546461706702
0.000183688477658407,18.9646461706702
0.000198942068763593,18.9746461706702
0.000216232181683892,18.9846461706702
0.000235950486847392,18.9946461706702
0.000258592302654294,19.0046461706702
0.000284792084273842,19.0146461706702
0.000315374299917506,19.0246461706702
0.000351427894058918,19.0346461706702
0.000394417854272103,19.0446461706702
0.000446356854961645,19.0546461706702
0.000507094164273525,19.0642162089729
0.000575910602304273,19.0730585004037
0.00065373583044291,19.0812169981338
0.000741740418721187,19.0887449721053
0.00084127301526969,19.0956922441471
0.000953866441999857,19.1021050042068
0.00108125781110834,19.1080261035702
0.00122541455822266,19.1134953194396
0.00138856668597814,19.1185495565234
0.00157324043757387,19.1232230523319
0.0017823018014664,19.1275475917941
0.00201900433455088,19.1315527209117
0.00228705060243041,19.1352659200171
0.0025906608848518,19.1387127729831
0.00293466499195268,19.1419171603124
0.00332461797801637,19.1449014589793
0.00376694768724928,19.1476867332459
0.00426915795102689,19.1502929655951
0.00484011024264683,19.1527393404473
0.00549042851505279,19.1550445901945
0.00622227092809885,19.157198364811
0.00702997653235228,19.1591851120893
0.00792417064417148,19.161038658636
0.00892087880354224,19.1627930649099
0.0100454765187077,19.1644856339145
0.0113441268229502,19.1661667839484
0.012975947644722,19.1679869701142
0.0154542595841088,19.1703494186308
0.0170623760050446,19.1717238326727
0.0187507463881514,19.1730982467146
0.0202884553316778,19.1743350909775
0.0216646880524486,19.1754735314651
0.0228988933061948,19.1765692632592
0.0239867725666884,19.1776622506901
0.0249067679902227,19.1787920640292
0.0256164650816146,19.1800145902403
0.0260264147612929,19.181446785699
0.0257937311606209,19.183583478222
0.0250944235811055,19.1850792279779
0.0240539328117451,19.1865749777337
0.0228615541911213,19.1879676041352
0.0215222616480854,19.1893650136719
0.0200453858228838,19.1908164238064
0.0184398710639069,19.1923591891853
0.0174233018139213,19.1933388329002
0.016435747183517,19.1943184766151
0.0146513708927201,19.1962132063941
0.0130299906007505,19.1981079361731
0.0117783389543311,19.1997145420726
0.0107333167877213,19.2011760427295
0.00978877146642065,19.2026121658961
0.0088849397237233,19.204111124826
0.00796422378934896,19.2057925615659
0.00691290526632628,19.2079553547212
0.0058515519316452,19.2104904586624
0.00494160941727447,19.2130585114521
0.0042009299785739,19.2155345735464
0.00352994289643767,19.2182129320333
0.00292258268556746,19.2211744612732
0.00240916736097327,19.2243122617417
0.00198515372814715,19.2276567970916
0.00164833935998147,19.23124880487
0.0014013562256465,19.2351390649896
0.0012552279423306,19.2393926120987
0.00123205764115408,19.2435837489662
0.00131816252122706,19.2473259625525
0.00149453549007522,19.2506919776554
0.00175116300628871,19.2537261353173
0.0020836630924089,19.2564752451727
0.00249237175610201,19.2589883251513
0.00298194055394738,19.261313183991
0.00356250064745195,19.2634989600142
0.00425284326721297,19.2656004764975
0.00508754090922213,19.2676863427878
0.00613049863970382,19.2698499517052
0.00751202033089271,19.2722439245767
0.00937254653532611,19.2749443917863
0.0109873011763504,19.2769615956191
0.0128258282600773,19.2789787994519
0.0146569271502789,19.28073877257
0.0165389130856605,19.2823243655009
0.0185295128080358,19.2837903782248
0.0206954247218637,19.2851788316441
0.0230855844673699,19.2865064257022
0.0257386623335796,19.2877786143502
0.0287062447782332,19.2890038817822
0.0320291741470687,19.2901831741867
0.0357612780731443,19.2913206516373
0.0399585470909137,19.2924188669215
0.0446813304051932,19.293479803875
0.0500050754511682,19.2945069741981
0.0560142310848681,19.2955032720413
0.0628075441554205,19.2964717014784
0.0705047927649209,19.2974157782832
0.0792485342102201,19.298339037184
0.0892115202868583,19.299245247621
0.100607697495151,19.3001386597003
0.113703828834717,19.3010239810835
0.128838926382669,19.3019066292621
0.146452769956266,19.3027930460815
0.167134171472728,19.3036913519439
0.191707352661812,19.3046125580757
0.220205407714882,19.3055369270176
0.253244016229848,19.3064695850229
0.291741885177732,19.3074228753661
0.337113811665958,19.3084199813482
0.375576876688767,19.3091951318468
0.415936798415098,19.3099702823454
0.451660254905554,19.3106491499036
0.482793933637736,19.3112594789069
0.510164241592127,19.3118380773014
0.533894680534454,19.3124101410541
0.553601998843911,19.3129992042859
0.568291984872857,19.3136369047743
0.57556675572658,19.3143853401705
0.571403850079361,19.3151493405844
0.55475347917393,19.3159507608316
0.523864315791998,19.3168093081738
0.479396313577398,19.3176870609926
0.419904089912656,19.3186059863996
0.368694493797621,19.3192783449501
0.311953743015003,19.3199507035006
0.262682934124462,19.3204992875738
0.221516365802933,19.3209469435638
0.185915932808276,19.321335339315
0.154321228151875,19.3216881202872
0.125850017091217,19.3220189936824
0.0999285049482132,19.3223374270834
0.0761114050052199,19.3226515245273
0.0539583039012965,19.3229704727474
0.0328183095987741,19.3233097478753
0.0107035458771753,19.3237196323005
-0.000490980483927396,19.3239587039988
-0.00804362729314718,19.3241367130835
-0.0149569181376364,19.3243147221682
-0.0209866900013938,19.3244846319015
-0.0271727631426831,19.3246767901325
-0.0332402132615352,19.3248877642386
-0.0389877355071878,19.3251147744478
-0.0443008350856135,19.3253566205305
-0.0491178076136181,19.3256131532509
-0.0534087271438175,19.3258849530105
-0.0571631252382563,19.3261731674148
-0.0603825539833558,19.3264794455066
-0.0630712975710538,19.326805935635
-0.0652949791787695,19.3271673693085
-0.0669135528990969,19.32754055663
-0.0680437607447089,19.3279436871028
-0.0686998615468961,19.3283820257267
-0.0688919615592955,19.3288620084285
-0.0686248710827262,19.3293919189315
-0.0678942167041145,19.3299834257764
-0.0666807489618488,19.3306527343716
-0.0649431316955703,19.3314229739959
-0.0625963846220029,19.3323321228892
-0.0594423436036062,19.3334569993797
-0.0552402868130706,19.3348908435246
-0.0511294135908373,19.3362743472573
-0.0471739069184823,19.3376169109156
-0.0434089124009065,19.338921486667
-0.0398532288854382,19.3401891777656
-0.0365168452544815,19.3414201554174
-0.0334040633962481,19.3426141396217
-0.0305150188845863,19.3437706534872
-0.02784658822802,19.3448891564884
-0.0253930488684144,19.3459691109424
-0.0231466314403871,19.3470100096437
-0.0210980134603663,19.3480113794425
-0.0192367692335383,19.3489727688672
-0.0175517767532758,19.3498937242955
-0.0159648523649603,19.3508136047349
-0.0144368109165294,19.3517570911517
-0.0129720739290421,19.3527258069694
-0.0115745421139458,19.3537218826056
-0.0102479117730882,19.3547478203667
-0.00899562034859793,19.3558065882497
-0.00782079199595627,19.3569017416766
-0.00672618019065368,19.3580375877119
-0.00571410691498392,19.3592194118001
-0.00478639732115787,19.3604537995385
-0.00394430766473846,19.3617491084693
-0.00318844227388147,19.3631161876756
-0.00251865137986758,19.3645695301526
-0.00193389325344178,19.3661292360954
-0.00144845243744986,19.3677617034386
-0.00106056683617319,19.3694427761519
-0.00075391414415904,19.3711907782555
-0.00051372220742295,19.3730275460618
-0.000325970928216783,19.3749824169607
-0.000176893676573772,19.3770973061538
-5.21735742121982e-05,19.3794374376932
6.47368127474697e-05,19.382118242304
0.000197812400809793,19.3853971912799
0.0003583579782662,19.3891412127294
0.000551499541494893,19.3931830321181
0.000801131423442404,19.3979201836682
0.00107862327424768,19.4028924832679
0.00133553302219669,19.4074136564218
0.00157931413242187,19.411725527047
0.00182225856156453,19.4160844063396
0.00208320456716737,19.420845078106
0.00235032338062791,19.4257810366472
0.00261405596724189,19.4306805677115
0.00286975884661497,19.4354178536446
0.00309427603743621,19.4395361640663
0.00330835589470157,19.4434112134437
0.00352084863004085,19.4471921893246
0.00373687037156344,19.4509565563267
0.00396028571751521,19.4547553276955
0.00419455574300538,19.4586276922219
0.00444310500598408,19.4626066887952
0.0047095851829494,19.4667227131923
0.00499808476277148,19.4710056152292
0.00531334102862574,19.4754860159836
0.00566104140204458,19.4801965343263
0.00604831232570015,19.485173095015
0.00647117357280754,19.4902977249727
0.00691236826273314,19.4953150386556
0.00738036975843751,19.5002880525071
0.00787643433772627,19.5051852834755
0.00840593956724374,19.5100129312853
0.00897461532386719,19.5147721729796
0.0095893556791657,19.5194668548913
0.0102577970092937,19.5240990887765
0.0109998337841971,19.5287378576234
0.0118333188003321,19.5334069492252
0.0127773176310868,19.5381144354842
0.0138586183149415,19.5428847164009
0.0151180126791278,19.5477718777562
0.0166311015320535,19.5529100893576
0.0186003074566393,19.5587297499378
0.0204681642217127,19.5636411682149
0.0220458181776599,19.5675192929988
0.0236587975246034,19.5713974177828
0.0250441900246842,19.5748208688219
0.0262106557382944,19.5779580440617
0.0271717331586015,19.5809824906784
0.0278778041464606,19.5838711702454
0.0283178315648461,19.5866888206936
0.0284791807237539,19.5895664630205
0.0283061408976205,19.5927091154806
0.0275610586025287,19.5967787335207
0.0267088828403653,19.5996957698165
0.0256427403476899,19.6026128061122
0.0245647531289644,19.6051874643042
0.0234902881363877,19.6075575042873
0.0224152811847186,19.6098194473317
0.0213411545553534,19.6120216965723
0.0202712810283979,19.6141925559392
0.0192093753224278,19.6163510190403
0.0181590334873144,19.6185110720729
0.0171236077213744,19.6206837290546
0.0161061744454851,19.6228781448623
0.0151095335623661,19.6251022831044
0.0141362200119965,19.6273633428657
0.0131885102248556,19.6296680693736
0.012268436166862,19.6320229693402
0.0113777940645827,19.6344344897466
0.0105181496495694,19.6369091781661
0.00969085144976545,19.6394538060449
0.0088970345919992,19.6420755130473
0.00812753560296885,19.644819395639
0.00737204029837326,19.6477484673676
0.00663435605684298,19.6508841173338
0.00591835358353177,19.6542517331343
0.00522812293992518,19.6578806273954
0.00456782354672192,19.6618047932794
0.003941662859947,19.6660639281776
0.00335376281638787,19.6707050090455
0.002807958015975,19.6757849437306
0.00230750893595214,19.6813756339226
0.00185490440533144,19.6875716618194
0.00145309137131141,19.6944766232166
0.00111592956204323,19.7019188812991
0.00083667525901531,19.7100073490578
0.000608867783256991,19.7188890223131
0.00045597721217325,19.7274981328992
0.000345999047952304,19.7363095410416
0.000257115543155115,19.7463095410416
0.000195204775425236,19.7563095410416
0.000152363254536609,19.7663095410417
0.000123182886068193,19.7763095410417
0.000103702199824352,19.7863095410417
9.10235817939164e-05,19.7963095410417
8.3092299376172e-05,19.8063095410417
7.8493055227866e-05,19.8163095410417
7.62654954612871e-05,19.8263095410417
7.57595283618071e-05,19.8363095410417
7.65343113116905e-05,19.8463095410417
7.82919141506843e-05,19.8563095410417
8.08341215711976e-05,19.8663095410417
8.40336140863044e-05,19.8763095410417
8.78142198417182e-05,19.8863095410417
9.21372706828046e-05,19.8963095410417
9.69923161479464e-05,19.9063095410417
0.00010239103612263,19.9163095410417
0.000108363522899281,19.9263095410417
0.000114956345258265,19.9363095410417
0.000122232007439312,19.9463095410417
0.000130269581437298,19.9563095410417
0.000139166427309528,19.9663095410417
0.000149041034680019,19.9763095410417
0.000160037134771715,19.9863095410417
0.000168389748165556,19.9931547705208
0.000177370819056318,20
