ecg,time
0.0152974496164717,15.00109077061
0.0139590708781589,15.0025428311773
0.0115534136952166,15.0054545528991
0.00956199261521386,15.0082652037547
0.00798436188871959,15.0108605616967
0.00667869026119278,15.0133542055727
0.00553710641978407,15.0158889179064
0.00453343421156385,15.0184938530467
0.00364933333706834,15.0211923110118
0.00286995511351374,15.0240077820142
0.00222953748521852,15.0267466428841
0.00171321687559682,15.0293373986954
0.00128649016576453,15.031822950548
0.000924642832024973,15.0342486135948
0.000610886351644669,15.0366529806878
0.000333523407020214,15.0390695570604
8.15818645162345e-05,15.041555364436
-0.000163103817581346,15.0442900197785
-0.000357139457007332,15.0467234499167
-0.000532755112260036,15.0491568800549
-0.000664323069830748,15.0511381319003
-0.000772595432056893,15.0528767575149
-0.000871410008910575,15.0545519068977
-0.00096787405128346,15.0562701254972
-0.00106863953845082,15.0581527808466
-0.00118578272448059,15.0604527625074
-0.00139265413339807,15.0647923105722
-0.00157132620688038,15.0688066756315
-0.00171382247293574,15.0721733998931
-0.00185776995551018,15.0757227094566
-0.00202708234282837,15.0801210593364
-0.00222675059758995,15.0858449872841
-0.00236323312619594,15.0907786571742
-0.00243383452108404,15.0952234264213
-0.00242645378917901,15.0991980305533
-0.00233296133877127,15.102776360737
-0.00214666740947639,15.1060417057604
-0.0018607478687029,15.1090661141849
-0.00146867805806742,15.1118990969996
-0.000961800386519398,15.1145898057763
-0.000320707258573691,15.1172127476637
0.000500667366595076,15.1198893468257
0.00163131317444771,15.1228847677103
0.0030767142401797,15.1260765624446
0.00487555856626755,15.1294862045017
0.00615115501086492,15.131643016968
0.00755428600171077,15.1337998294343
0.00898326263402334,15.1357759593352
0.0104224848409964,15.1375530040113
0.0119440542283204,15.1392184023081
0.0136016497066523,15.1408138869871
0.0154097616089798,15.1423338889028
0.0174164624036216,15.1437998576931
0.0196424996502312,15.1452075700322
0.0221268244478993,15.1465642569433
0.024897536843573,15.1478688572142
0.0279945430920027,15.149125212086
0.0314598930746893,15.1503359608692
0.0353403402477687,15.1515036198435
0.0396885011353661,15.1526307048139
0.0445710644739321,15.1537212711341
0.0500634737443145,15.1547787288204
0.056255273504052,15.1558066668955
0.0632539298656842,15.1568088988345
0.0711886990958587,15.1577893819785
0.0802213296415843,15.1587527854569
0.0905532914111714,15.1597042169772
0.102442714317444,15.1606496731
0.116229772007212,15.1615965214575
0.132379241691566,15.1625543084594
0.151561097402873,15.1635364129326
0.174000360723334,15.1645298380066
0.200045594497689,15.1655319760521
0.230443757438178,15.166555863675
0.266248142585527,15.1676212979063
0.30902125538244,15.1687608091827
0.34364982846306,15.1696161633904
0.379577568913322,15.1704715175982
0.411558770414626,15.1712320199237
0.439553743449188,15.1719241470816
0.463956834734889,15.1725802207195
0.48472433992353,15.1732240360691
0.501419891143924,15.1738773612985
0.51310143618812,15.1745660970891
0.517851166456639,15.1753309619922
0.51257346475429,15.1761465560051
0.495716218542578,15.1769847292191
0.465863590124556,15.1778601318612
0.421272986057693,15.1787831072468
0.374316749512921,15.1795531156989
0.319396669422246,15.180323124151
0.280971379371305,15.1808142437535
0.240739474963873,15.1813053633561
0.204587531477422,15.1817380788618
0.172523869441898,15.1821236207595
0.14369986895437,15.1824786296138
0.117513599616307,15.1828145514775
0.093534670849242,15.1831399574812
0.0714025665311605,15.1834626682838
0.0507290326479338,15.1837921239968
0.0308799920797121,15.1841453323626
0.00963102545490625,15.1845841367166
0.000401806122234849,15.1848034348058
-0.00794237067041449,15.185022732895
-0.014390093159439,15.1852097321508
-0.0203331166612533,15.1853993384468
-0.026281499003548,15.1856102294125
-0.0320005705714312,15.1858389638744
-0.0373418523776174,15.1860834964769
-0.0422235759521687,15.1863431536338
-0.0466037561636068,15.1866181738268
-0.0504633965712819,15.1869094542957
-0.0540364055024108,15.1872446344378
-0.0567652916162842,15.1875723365449
-0.0589808655737599,15.1879217238177
-0.0607001868204345,15.1882962252964
-0.0619375078528643,15.1886996114709
-0.0627061694756482,15.1891365390957
-0.0630171115698619,15.1896128247438
-0.0628771722733047,15.1901358499054
-0.0622864794129125,15.190715507271
-0.0612329908305297,15.1913659999352
-0.0596886721192658,15.1921062333231
-0.0575969300460583,15.1929652086349
-0.0548385378582925,15.1939942546561
-0.0510930187347615,15.1953165541141
-0.0470802374747831,15.1967026601723
-0.0432123922208583,15.1980437112876
-0.0395328198344046,15.1993438644412
-0.0360624038978843,15.200605236185
-0.0328114763828337,15.2018286000325
-0.0297839810395587,15.2030140488513
-0.0269794275973974,15.2041613484912
-0.0243940029406575,15.2052701235638
-0.0220213326145123,15.2063399522293
-0.0198530827697983,15.2073704093454
-0.017879475788176,15.2083610785965
-0.016089745614354,15.2093115447622
-0.014472540418543,15.2102213722276
-0.0129222083212727,15.2111480282369
-0.011433005448772,15.2120985943298
-0.0100090641227798,15.2130749318846
-0.00865426710902561,15.2140792697146
-0.00737228210528292,15.2151142325885
-0.00616651091527746,15.2161829410854
-0.00504003692733012,15.2172891437364
-0.0039955703442665,15.218437396321
-0.00303539097141375,15.2196333111777
-0.00216128788396551,15.2208839140052
-0.00137449447047594,15.2221981723594
-0.000675615861167409,15.2235878118623
-6.45428838216972e-05,15.2250686439541
0.000459659434201203,15.2266628745261
0.000877835297121573,15.2283073539943
0.00120271405356485,15.2300057541872
0.00144970039055479,15.2317766755921
0.00163298718919106,15.233643752947
0.00176602249003803,15.2356392204312
0.00186199280868625,15.2378101230752
0.00193460577402587,15.2402319411036
0.00199981248294705,15.2430451718092
0.00208183234593384,15.24659863768
0.00218731488396412,15.2503824750421
0.00231803018845049,15.2541942105203
0.00246868296132653,15.2579673611742
0.0026355613816083,15.2617583116689
0.00281540148357163,15.2656100759858
0.00300620819368332,15.2695580214207
0.00320741586793667,15.2736339349795
0.00341976755861368,15.2778685072051
0.00364510628174679,15.2822929637302
0.00388618753351309,15.286940429968
0.00414661108477028,15.2918473703382
0.00443096349605132,15.2970549263215
0.00474528644692838,15.3026103326156
0.00506949244738315,15.3080927812946
0.00540499965307128,15.3134851694323
0.00575366723176598,15.3187728588822
0.00611889620526089,15.3239629889921
0.00650452618626373,15.3290654634963
0.00691471427206262,15.3340903123778
0.00735381706299399,15.3390450854144
0.00782645101217488,15.3439347448599
0.00833758234489859,15.3487618488369
0.00889264447335241,15.3535269901833
0.00949765119751294,15.358229175141
0.0101593054699075,15.3628662255546
0.0108918970847884,15.3674759067938
0.0117169895751744,15.3721122836533
0.0126514197187018,15.3767736844879
0.0137201577709401,15.3814799068528
0.0149601244564889,15.3862741867686
0.0164367699603685,15.3912627462227
0.0183079148865727,15.3967583891791
0.0207819054102425,15.4030885157649
0.0223709568506617,15.4068279643472
0.0239972865150757,15.4105674129294
0.0254181707652992,15.4139166122909
0.0266195177104256,15.4169874912694
0.0276141939143321,15.4199462329817
0.0283502716267247,15.4227638474387
0.0288196203153949,15.4255096823697
0.0290109752529649,15.4283099700658
0.0288716916984043,15.431358534434
0.0281834035419626,15.4352556148889
0.0273503393430439,15.4381310448207
0.026292736791519,15.4410064747525
0.0252210979558249,15.4435293867316
0.0241520391199588,15.4458427026589
0.0230810227034095,15.4480457204619
0.0220093639224884,15.4501873732797
0.020940450445294,15.4522958923477
0.0198780152205611,15.4543900664685
0.0188256592466648,15.4564836457223
0.017786723415634,15.4585874111255
0.0167642623807066,15.4607102916042
0.0157610468927114,15.462860036189
0.0147795764888332,15.4650436479462
0.0138220938237032,15.4672676859833
0.012890594575797,15.4695384998983
0.0119868434568983,15.4718624029256
0.0111123804544618,15.4742458414677
0.0102685311484256,15.4766955436154
0.00945642307581967,15.479218646878
0.00866269053034242,15.4818725308737
0.00788098360198177,15.4847052098945
0.00711506016949539,15.4877378449777
0.00636880468803599,15.4909953589529
0.00564634579637432,15.4945066293266
0.00495201661124545,15.4983052813053
0.00429030170848678,15.5024306170844
0.00366572691897238,15.5069289792002
0.00308266426920352,15.5118560839754
0.00254505461181664,15.5172812369566
0.00205607511060384,15.5232951526309
0.00162290023332631,15.529936873607
0.00125756530043801,15.5370678975088
0.00103718969297734,15.5428074325004
0.000807869710527703,15.5507045472705
0.000623850191842668,15.5592934349393
0.000478911284187098,15.568598143663
0.000369438682097526,15.578598143663
0.000294735373697217,15.588598143663
0.000244677631090694,15.598598143663
0.000211904335151588,15.608598143663
0.000191197524912739,15.618598143663
0.000178966330104168,15.628598143663
0.000172787033436546,15.638598143663
0.000171038589269199,15.648598143663
0.000172645359894591,15.658598143663
0.000176908078975477,15.668598143663
0.000183395575593542,15.678598143663
0.00019187526440933,15.688598143663
0.000202268787267318,15.698598143663
0.00021462543767678,15.708598143663
0.000229109612591387,15.718598143663
0.000246000610393881,15.728598143663
0.000265704664257353,15.738598143663
0.000288780802465027,15.748598143663
0.000315984401072607,15.758598143663
0.000348335688189599,15.768598143663
0.000387225954251909,15.778598143663
0.00043458371535166,15.788598143663
0.000490748763730335,15.7982247018773
0.000554939826868826,15.8071204934829
0.000628117273955479,15.8153274373427
0.000711496940814032,15.8228991179542
0.000806480174437878,15.8298857649305
0.000914659128539376,15.8363339825814
0.00103783669452837,15.8422870221904
0.00117805327647419,15.8477850385917
0.00133761879119041,15.8528653165543
0.0015191488716918,15.8575624822225
0.00172560793475389,15.8619087059309
0.00196035976887196,15.8659338975592
0.00222722957332803,15.8696658921156
0.00253057909966896,15.8731306335731
0.00287540252693444,15.8763523651011
0.00326744913064203,15.8793538291036
0.00371338518895325,15.8821564835633
0.00422101496083427,15.8847807526745
0.00479959191867915,15.8872463355716
0.00546027657053631,15.8895726132854
0.00620025536712266,15.8917350176127
0.00701913366531768,15.8937361562575
0.00792915906960327,15.8956114441287
0.00894910514765524,15.8973973856899
0.0101102675666886,15.8991368844398
0.011474712122657,15.9008954250538
0.0132918427448978,15.9029090081751
0.0149944510737999,15.9045704839385
0.0168512419946088,15.9062319597019
0.0185066744467151,15.9076481581229
0.0199460650481966,15.9088795011613
0.0212327833204293,15.9100264173669
0.0223805560910313,15.9111417655137
0.0233795115203363,15.9122645795356
0.0242030169020289,15.9134374779659
0.0247999835623447,15.9147268491656
0.0250528064159068,15.916292472471
0.0247028395526185,15.9181339054549
0.0237516078860598,15.9199753384388
0.0226454586242901,15.9214653867536
0.0214095713512615,15.9228726211935
0.0200375360432709,15.9242977824552
0.0185373551286085,15.9257856555941
0.0169163953265808,15.9273735635058
0.015206739980857,15.9291073656704
0.013800120000932,15.9306446104944
0.0114247475355664,15.9335473806323
0.0094629997922766,15.9363422173146
0.00790556925287516,15.9389271871107
0.00661026253923392,15.9414227826255
0.00547713787492058,15.9439614309266
0.00448069337642337,15.9465717015407
0.00360284907074142,15.9492768599474
0.00282892040963809,15.9521004718404
0.0022003601621801,15.9548134832327
0.00169213138866782,15.9573829528478
0.00127080543267433,15.95985226637
0.000912473772593954,15.9622667129657
0.000600578969147993,15.9646674452286
0.000323034687664988,15.9670961569005
6.74793101808098e-05,15.9696315714679
-0.000190755267351527,15.9725473282628
-0.000364510025706121,15.9747451427336
-0.000523343436630058,15.9769429572044
-0.000650690999263196,15.9788472223103
-0.000758773844003207,15.9805689013668
-0.000858700660338763,15.9822502174694
-0.000957260064781472,15.9839946982117
-0.00106162444770597,15.9859359234856
-0.00118678588695644,15.988390289559
-0.00140195143363784,15.9929168093302
-0.00157906213343319,15.9969178837776
-0.00172325236528871,16.0003492983817
-0.00187249385607379,16.0040694249648
-0.00205141769621236,16.0088102490269
-0.00223744616665411,16.0143671423112
-0.00235975942255095,16.019187853614
-0.00241372334250055,16.0235269197763
-0.00238806913267183,16.0274131346292
-0.00227514830502206,16.0309179078583
-0.00206845829440366,16.03412306384
-0.00176115455830169,16.0370979378197
-0.00134608796637739,16.0398935100644
-0.000812592178026144,16.0425636585879
-0.00013574967503072,16.0451940883328
0.000739713810682002,16.0479169835373
0.00194255725468021,16.0509730064965
0.00346484781089092,16.0542163276119
0.00533152123661798,16.0576436154775
0.00658254863652388,16.0596933594427
0.0079588532129016,16.061743103408
0.00938388333861481,16.063649839282
0.0108557432097502,16.0654038187104
0.012410385394039,16.0670413439765
0.0141155253408922,16.068617399332
0.0159785021055863,16.0701187231613
0.0180492894137662,16.0715672265618
0.0203487057081131,16.0729584974608
0.0229158028907533,16.074299180539
0.0257834998106453,16.0755901230721
0.0289860918798611,16.0768320456833
0.0325706019259238,16.0780292526546
0.0365863051644209,16.079184468352
0.0410897467348105,16.0803005660842
0.0461473880348881,16.0813807603408
0.0518401855798874,16.0824289270017
0.0582627175209226,16.0834487229884
0.0655287884261521,16.0844440353773
0.073777139188378,16.0854190728331
0.0831786686973597,16.0863784205538
0.0939507504159735,16.0873275126895
0.106373198244276,16.0882727062983
0.120818522776772,16.0892219337321
0.1378032680831,16.0901857067496
0.158084081032051,16.0911790005461
0.181563623328955,16.0921742102773
0.208855691517555,16.0931817020932
0.240783438827413,16.0942161357666
0.278550242879446,16.0953009313471
0.322561546664216,16.0964407215503
0.363751122472628,16.0974374514148
0.398068577762407,16.0982506050939
0.427727379150197,16.0989684975393
0.453657039520321,16.0996371875448
0.476018664680039,16.1002838963419
0.494547622593377,16.1009305450063
0.508550117199971,16.1016003714032
0.516631387418491,16.1023256041289
0.515950731261929,16.1031369915463
0.504164349187372,16.1039636476581
0.480038333998168,16.1048217896
0.441947438370422,16.1057235098952
0.388058894951483,16.1066776367666
0.343909146322997,16.1073285199565
0.294664203772436,16.1079794031464
0.25072705515297,16.1085221111788
0.213122053474072,16.1089735100847
0.180114166155189,16.1093693170671
0.150557227099563,16.1097307239022
0.123766975807876,16.110070549499
0.0992801579948557,16.1103978751811
0.0767273124883582,16.110720523801
0.0557390863245004,16.1110472217068
0.0357828176921623,16.1113919851848
0.0154077877887331,16.1117950311006
0.00139644039397886,16.112116971711
-0.00590173871277266,16.1123052334499
-0.0125706066393879,16.1124934951887
-0.0184336174708522,16.1126750453378
-0.0244061751116447,16.11287951885
-0.0302177466659827,16.1131029062097
-0.035690006521082,16.1133425702109
-0.0407234662369447,16.1135974590681
-0.045265621722685,16.1138675565435
-0.0492920425065035,16.1141535679597
-0.0528559498545598,16.1144635120216
-0.055780536753835,16.1147832324582
-0.0581894903555858,16.1151238787963
-0.0600968995301367,16.1154883964183
-0.0615169218941743,16.1158802634377
-0.0624634086678065,16.1163037688866
-0.0629484018960947,16.1167642456416
-0.062980532666558,16.1172684154584
-0.0625630641023222,16.1178249198308
-0.0616890226976664,16.1184464485243
-0.0603373842964139,16.1191496059298
-0.0584648055569889,16.1199586979966
-0.0559830387278563,16.1209139979578
-0.0526835840462384,16.1220987294123
-0.0486313767367137,16.1235058248555
-0.0446998177027065,16.1248638927547
-0.0409437674096791,16.126179595834
-0.0373903642635144,16.1274558936642
-0.0340533450474003,16.1286939850054
-0.030938832595129,16.1298941743869
-0.0280478990649485,16.1310563270499
-0.0253779194793603,16.1321801082371
-0.0229234366652955,16.1332651073551
-0.0206768126893923,16.1343108980985
-0.01862877344397,16.1353170609839
-0.0167688859408215,16.1362831824321
-0.0150859811508979,16.1372088381407
-0.0135136052464311,16.1381266038774
-0.0120003922742094,16.1390678361073
-0.0105509099851825,16.1400340738216
-0.00916910772556087,16.1410274172755
-0.00785874132925355,16.1420503293402
-0.00662332014787728,16.143105727412
-0.00546605540996688,16.1441971016584
-0.00438980630254511,16.145328674137
-0.00339702372061756,16.1465056178846
-0.00248969122266685,16.1477343668491
-0.00166926205035111,16.1490230686247
-0.000936589895290961,16.1503822718697
-0.00029184887599685,16.1518260209795
0.000265566343922145,16.1533737076575
0.00072468471869589,16.1550025160832
0.00108383550887981,16.1566779973233
0.00135934330547603,16.1584184580837
0.00156578652491205,16.1602451441121
0.00171685552521213,16.1621864516987
0.00182577213591481,16.1642826535003
0.00190592123780012,16.166595774972
0.00197206910746756,16.1692337991874
0.00204382255090478,16.1724298702796
0.00213962940282603,16.1761674655629
0.00226160674431812,16.1800026872573
0.00240490360676044,16.183780581324
0.002566223994487,16.1875623854167
0.00274196552133668,16.1913943293449
0.00292954316270103,16.1953133568869
0.00312779276892136,16.199351953401
0.0033369400914926,16.2035409229532
0.00355841609173492,16.2079112165094
0.00379465108196223,16.2124953192344
0.00404895380600051,16.2173286628182
0.00432557245850327,16.2224510145984
0.00463004743489811,16.227907848875
0.00495292440774477,16.2334618597614
0.00528339666420455,16.2388759764343
0.0056271713156913,16.2442036642442
0.00598593624475927,16.2494250614789
0.00636387091453266,16.2545569148472
0.00676490579793209,16.2596077203669
0.00719335278529466,16.2645864536566
0.0076537007292269,16.2694987370451
0.00815076914097179,16.274347890147
0.00868980149839488,16.2791350924587
0.00927658764624975,16.2838598499905
0.00991756917530884,16.2885203320935
0.0106206805696975,16.2931184064468
0.0114118093660445,16.2977486513685
0.0123050249121686,16.3023992288635
0.0133228133687893,16.3070864133747
0.0144966659736645,16.3118418342897
0.0158786811004304,16.3167420627743
0.0175785910971023,16.3219922626484
0.0199954135560863,16.3284462010093
0.0216723978958795,16.3324880797065
0.0234226052387913,16.3365299584036
0.024939147966091,16.3400512226917
0.0262160153640918,16.3432003106514
0.0272846150972798,16.3461830435163
0.0281174470878417,16.3490539403177
0.0286821856911579,16.3518122076226
0.0289760958126232,16.3545764803902
0.0289657587006263,16.3575038806906
0.0285295100492258,16.3609492115624
0.0277477079463183,16.3641473360527
0.0266614322071381,16.3673454605431
0.025577378782808,16.3700023635927
0.0245073529718109,16.3723727720746
0.0234369748872891,16.3746055832892
0.022365187110127,16.3767638748044
0.0212949351978099,16.3788810343271
0.0202299200247213,16.3809783157047
0.0191738091367169,16.3830708446478
0.0181300355539633,16.3851702344538
0.017101749416726,16.3872859411691
0.0160918141156235,16.3894260522788
0.0151028183695223,16.3915977814505
0.0141370877096322,16.3938078125264
0.0131966985757292,16.3960625465003
0.012283492010625,16.3983682929484
0.0113990791384238,16.4007314492921
0.0105448579932169,16.4031586349539
0.00972201887352675,16.4056568495273
0.00892511165903152,16.4082554303043
0.00813897177474856,16.4110266211572
0.0073673800347969,16.4139902582307
0.00661413634639737,16.4171700913907
0.00588328991302946,16.4205936126795
0.00517911132052913,16.4242927747958
0.00450604393883275,16.4283048709091
0.00386861464712818,16.4326737261929
0.00327127521148169,16.4374515883553
0.00271814411066468,16.4427026187583
0.00221268629265371,16.4485092823844
0.00175746231634572,16.4549829385705
0.00137053406560567,16.4619435375774
0.00105858917014285,16.469455266187
0.000825447725701968,16.4772773070482
0.000644547164207555,16.4854797528545
0.000495373945195333,16.4946840268365
0.000381008608811141,16.5046840268365
0.000302782423418368,16.5146840268365
0.000250226975382369,16.5246840268365
0.000215709832984996,16.5346840268365
0.000193789482573822,16.5446840268365
0.000180704261351396,16.5546840268365
0.000173909844703525,16.5646840268365
0.000171703591372394,16.5746840268366
0.00017295472013777,16.5846840268366
0.000176925569338092,16.5946840268366
0.000183157055494728,16.6046840268366
0.000191395325103018,16.6146840268366
0.000201544898073458,16.6246840268366
0.000213640245857048,16.6346840268366
0.000227831694029412,16.6446840268366
0.000244383766935167,16.6546840268366
0.000263685687111887,16.6646840268366
0.000286275400537247,16.6746840268366
0.000312880676445192,16.6846840268366
0.000344484049618558,16.6946840268366
0.000382423543171337,16.7046840268366
0.000428549981353617,16.7146840268366
0.000483662136430112,16.7243922574638
0.000546679391204192,16.7333670788412
0.000618526145381065,16.7416474176912
0.000700393722103783,16.7492870783158
0.000793658662363533,16.7563366169276
0.000899885972592363,16.7628429492773
0.00102084792385694,16.7688496196702
0.00115855014323555,16.7743970587771
0.00131526290022383,16.7795228111473
0.00149355669183447,16.7842617461781
0.00169634408584822,16.7886462603455
0.00192692918435569,16.7927064722222
0.00218906774323747,16.7964704078785
0.00248704002304916,16.7999641832988
0.00282574337441916,16.8032121923382
0.00321081009641076,16.8062373040075
0.00364876268329035,16.8090610743053
0.0041472243142426,16.8117039892004
0.00471521367404938,16.814185761176
0.0053635757704392,16.8165257154147
0.00609312014416782,16.8187091611536
0.00690013453108957,16.8207265150684
0.00779607613271668,16.8226129578596
0.00879845036238802,16.8244044724549
0.00993584472272887,16.826142075289
0.0112629826599278,16.8278852328414
0.0129817855605031,16.82982760711
0.0148026826092924,16.831627662683
0.0163962887247018,16.8330661340928
0.0180729435758487,16.8345046055026
0.0195687816863382,16.8357719897055
0.0209034236259649,16.8369352569683
0.0220981654847509,16.8380535473892
0.0231487143886363,16.8391676301604
0.0240337464192581,16.8403173775631
0.0247115492335798,16.8415584400425
0.0250949422893505,16.8430053825047
0.0248504423321239,16.8451617786596
0.024149660836903,16.8466856561671
0.0231088366683197,16.8482095336746
0.0219229546950126,16.8496205737818
0.0205959374105573,16.8510311958857
0.0191365046639873,16.8524918304432
0.0175535097333042,16.854039616218
0.0165403907961263,16.855032135258
0.0155591842122734,16.856024654298
0.0131801724551574,16.8586455592689
0.0108374192173111,16.8616229943814
0.00899466534719324,16.8643622196579
0.00752714179170614,16.8669007257257
0.00628020290228377,16.869404382763
0.00518724462438234,16.8719600753939
0.00422553687055723,16.8745939215016
0.00337809627199947,16.8773290705629
0.00263093756262575,16.8801894688078
0.00203604549031655,16.8828841333685
0.00155301700691513,16.885442662582
0.00115031915175577,16.8879119760282
0.000806122797506606,16.8903359843524
0.000505774731909395,16.8927500663824
0.00023850978787548,16.8951892294244
-7.70540169413975e-06,16.8977323181324
-0.000258127637306063,16.9006696927409
-0.000423913321722573,16.9028415658438
-0.000576027748446839,16.9050134389466
-0.000699088902649509,16.9069059906289
-0.000804204680086146,16.908623611552
-0.000901816649147773,16.9103045173635
-0.000998510673879588,16.9120522776098
-0.00110143931956506,16.9140029743404
-0.00122606905174072,16.9164869875145
-0.00143785071809216,16.920996127499
-0.00161123851406925,16.9249388891101
-0.0017538529202399,16.9283410322662
-0.00190271600824059,16.9320495836532
-0.00208179206872107,16.9367800560485
-0.00226870353797339,16.9423397847992
-0.00239114992094598,16.9471573235578
-0.00244431026725314,16.9514897299758
-0.00241695318233955,16.9553686163681
-0.00230146220323444,16.9588708149994
-0.00209119291927239,16.9620793500084
-0.00177933212310757,16.9650609171082
-0.00135934812054924,16.9678617276982
-0.000821203025923074,16.9705341563015
-0.000140221265929584,16.9731645479307
0.000737803326624306,16.9758827086131
0.00194446236047672,16.978937228307
0.00346978719620174,16.9821769219267
0.00533972762895314,16.9856010274182
0.00659492306661555,16.9876528701795
0.0079753830637605,16.9897047129409
0.00940103914289419,16.9916090869519
0.0108810890629825,16.9933702235269
0.0124373409401394,16.9950070956311
0.0141439002667916,16.996582581942
0.016008553550669,16.9980837477011
0.0180809795417145,16.9995321314801
0.0203822098051951,17.0009234166051
0.022951143841178,17.0022641036413
0.0258208880334195,17.0035551093998
0.0290256891672646,17.0047971037094
0.0326126935100159,17.0059944149316
0.0366312538006979,17.007149767219
0.0411380190633927,17.0082660378227
0.0461995338559013,17.0093464365108
0.0518969189556999,17.0103948480198
0.0583249460556906,17.0114149357503
0.0655976831173187,17.0124105960163
0.0738542436998502,17.0133860508975
0.0832660534798404,17.0143459032777
0.0940513040239362,17.0152956157342
0.106491087426685,17.0162415871995
0.120960041460412,17.017191816806
0.137978509221913,17.0181569302914
0.158286508514037,17.0191510195001
0.181799997975743,17.0201472704276
0.209136249878698,17.0211561696917
0.241124648133726,17.022192578683
0.278982566376142,17.0232803524833
0.322978372606203,17.0244208748462
0.363889367861759,17.0254129478725
0.398036240195638,17.0262245910751
0.427574288412125,17.0269423987093
0.453397361435566,17.0276115938613
0.47565293292924,17.0282591516917
0.494068075655126,17.0289069278838
0.507940277003909,17.0295781770555
0.515861041014398,17.0303052238094
0.514980021308492,17.0311174668925
0.502989257708996,17.0319450896266
0.478650555100501,17.0328041937306
0.440340139427619,17.0337067516833
0.386232408844726,17.0346615963533
0.342290073250397,17.0353082330265
0.293349014006421,17.0359548696997
0.249659538350258,17.0364948883101
0.212222461561153,17.036944863071
0.17933628914864,17.0373398964188
0.149874956295228,17.03770088061
0.123163592539191,17.0380405065496
0.098743528033053,17.0383678023623
0.0762473789930482,17.0386905819174
0.0553056071764248,17.0390176156096
0.0353801375920602,17.0393631115545
0.0149798634543002,17.0397684834585
0.00160680547183101,17.0400764633639
-0.00571552659348879,17.0402651753233
-0.0124061054180386,17.0404538872826
-0.0182576768449252,17.0406348955446
-0.0242275350542114,17.040838981853
-0.0300423661133231,17.0410620888321
-0.0355213494892004,17.0413015257835
-0.0405635238370599,17.0415562075826
-0.0451155164970718,17.0418260964161
-0.0491523703013123,17.0421118821104
-0.0527278374352064,17.042421626324
-0.0556629638083406,17.0427410535981
-0.0580823886596484,17.0430813526335
-0.060000146823139,17.043445455759
-0.0614303686918501,17.0438368239187
-0.0623869159766793,17.0442597242217
-0.0628818798612129,17.0447194605286
-0.0629239860013078,17.0452227147833
-0.0625166530857597,17.0457780715646
-0.0616532315995607,17.0463980987346
-0.0603131198440751,17.0470992784059
-0.0584537656248147,17.0479056445544
-0.0559886806820994,17.0488568614184
-0.0527149454212619,17.050034204739
-0.0486629152026016,17.0514424010186
-0.0447302804100503,17.0528011983547
-0.0409724354700365,17.0541174977758
-0.0374168790940955,17.055394321803
-0.0340775261289024,17.0566329023063
-0.0309606007689675,17.0578335617633
-0.0280672403331148,17.0589961752465
-0.0253948653633046,17.060120413401
-0.0229380518739911,17.0612058686007
-0.0206891862989717,17.0622521161965
-0.0186390119567042,17.0632587377123
-0.0167771075285304,17.064225320337
-0.0150923107776745,17.0651514405662
-0.0135193320882174,17.0660689550506
-0.0120054573366346,17.0670099231934
-0.0105552674973972,17.0679758746735
-0.00917271389384077,17.0689689062153
-0.00786155493071719,17.0699914762191
-0.00662530306353262,17.0710464964591
-0.00546717318941976,17.0721374499539
-0.00439002875706497,17.0732685495399
-0.00339632554575871,17.0744449561491
-0.00248805265748549,17.0756730874898
-0.00166666958941804,17.076961068779
-0.00093303708674848,17.0783194167901
-0.000287337271324047,17.079762128513
0.000271025952431309,17.0813085211465
0.00073134259194182,17.0829369166636
0.00109149543021172,17.0846117794758
0.0013678386642834,17.086351414598
0.0015749629060304,17.0881770047241
0.00172656697890612,17.0901168465547
0.00183587593187425,17.0922110402186
0.00191626936385055,17.0945212782708
0.00198248928851049,17.0971547796394
0.00205405156470526,17.1003422631925
0.00214967647454108,17.1040793094986
0.0022715680790874,17.1079177489261
0.00241477614775979,17.1116962769144
0.00257601966656904,17.1154768971059
0.00275169920729239,17.1193062794197
0.00293922854667713,17.123221579194
0.00313744149887943,17.1272553736067
0.00334656199946175,17.131438484113
0.00356802006381476,17.1358018257159
0.00380424594139557,17.1403778000315
0.00405854749479985,17.1452017023311
0.00433516783551632,17.1503131175152
0.00463963124386153,17.1557572795396
0.00496314987454965,17.1613091877744
0.00529417161615801,17.1667190365892
0.00563864203632422,17.1720443506584
0.00599813431383997,17.177263352538
0.00637685767412366,17.1823930477579
0.00677874473698791,17.1874417222179
0.00720812815256655,17.1924183602682
0.00766951814705,17.1973285706811
0.00816775837896979,17.2021756671564
0.00870811687275177,17.2069608075783
0.00929640865463771,17.2116834685736
0.00993910193822881,17.2163417941718
0.0106446859678124,17.2209408861795
0.0114386612820521,17.2255716177487
0.0123353360271594,17.230223067255
0.0133573919259983,17.2349117487132
0.0145367406834883,17.2396701753914
0.0159264668196323,17.2445770971161
0.0176395517369036,17.249844945711
0.0200994520859908,17.2563823738245
0.0217617459323519,17.2603747873733
0.0234921577994062,17.2643672009221
0.0249964197125835,17.2678648292581
0.0262643335828943,17.2710035343022
0.0273244388333832,17.2739826244746
0.0281460745206808,17.2768465407094
0.0286999196953488,17.2796025771902
0.0289823285811657,17.2823699287374
0.0289580201673536,17.2853089167684
0.0284977861607009,17.2887930207807
0.0277104235308293,17.2919517682369
0.0266285464374789,17.2951105156931
0.0255462796697793,17.2977527032863
0.0244764435776174,17.3001174087499
0.023406013018623,17.3023473359411
0.0223342271118538,17.3045040047655
0.0212640836912779,17.3066202838247
0.0201992891096101,17.308717187958
0.0191435057929572,17.3108097112249
0.0181001589432818,17.3129093872996
0.0170723904941932,17.3150256211928
0.0160630558142475,17.3171664667717
0.0150747359704666,17.3193391153827
0.0141097493412906,17.3215502360839
0.0131701653547305,17.3238062212531
0.0122578187128172,17.3261133753686
0.0113743143388194,17.328478094609
0.0105210438471423,17.3309070015628
0.00969919230431257,17.3334070991682
0.00890254450002623,17.336010356294
0.00811677301573788,17.3387867404886
0.00734565608596244,17.3417562008362
0.0065930011765884,17.3449425842817
0.00586286467659532,17.3483734972633
0.00515952289057464,17.35208103075
0.00448742350754257,17.3561026415295
0.00385109414884372,17.3604823589759
0.00325498118495011,17.3652727060502
0.00270318927973097,17.3705382492033
0.00219915964823226,17.3763621028197
0.00174542662292214,17.3828566195618
0.00136044931592477,17.3898320120395
0.00105036433397724,17.3973614423334
0.00082104742224277,17.405111778689
0.000639909864035784,17.4133758074098
0.00049186439568588,17.4225806584263
0.000378379425650791,17.4325806584263
0.000300762331587378,17.4425806584263
0.000248621686538833,17.4525806584263
0.000214382241800177,17.4625806584263
0.000192644782704752,17.4725806584263
0.000179677722538087,17.4825806584263
0.000172957384731617,17.4925806584263
0.000170795076155862,17.5025806584263
0.000172069444678596,17.5125806584263
0.000176049246368152,17.5225806584263
0.000182279767883698,17.5325806584264
0.000190510084204933,17.5425806584264
0.000200646589913888,17.5525806584264
0.000212724826882439,17.5625806584264
0.000226895537205288,17.5725806584264
0.00024342307593857,17.5825806584264
0.000262695900244497,17.5925806584264
0.000285250497680799,17.6025806584264
0.000311812277334055,17.6125806584264
0.000343360139807459,17.6225806584264
0.000381226565604323,17.6325806584264
0.000427253846924393,17.6425806584264
0.000482334975901866,17.6523055004407
0.000545324447801395,17.6612959678127
0.000617141927058795,17.6695904635684
0.000698977158668546,17.6772429255284
0.000792205665735723,17.6843040504487
0.000898391610873362,17.6908208788715
0.00101930643736466,17.6968370660262
0.00115695491957256,17.7023931419149
0.00131360644090595,17.7075267405294
0.00149183061331292,17.7122728120091
0.0016945390930665,17.7166638259866
0.00192503509512919,17.7207299676685
0.00218707350541568,17.7244993241419
0.00248493376579261,17.7279980674421
0.00282351251007851,17.7312506431877
0.0032084414727924,17.7342799686662
0.00364624288872439,17.7371076454353
0.00414454017309479,17.7397542031932
0.00471235310809998,17.7422393975653
0.00536052936620187,17.7445825980341
0.00608993723164958,17.7467692510026
0.006896852818638,17.7487896580976
0.00779276592184266,17.7506790949262
0.00879524697402244,17.7524736749086
0.00993302908410543,17.7542146336185
0.0112612432528154,17.7559619408994
0.0129836340291447,17.7579113021552
0.0147931488078612,17.7597036805564
0.0167882116005962,17.7614960589575
0.0184721260644689,17.7629351432621
0.0199199646747328,17.7641704723869
0.0212128254055691,17.7653182525825
0.0223666265240148,17.7664330954075
0.0233721095411766,17.7675541764464
0.0242032198929248,17.76872373808
0.0248099618975829,17.7700068189566
0.0250786503747771,17.7715571695903
0.0247464762795197,17.7734092669235
0.0238012657556713,17.7752613642566
0.022697256675365,17.776754782542
0.0214637394745814,17.7781617174981
0.0200937376728797,17.7795853915155
0.0185951365101457,17.781071069875
0.0169753799235694,17.782656055759
0.0152651214570178,17.7843859132447
0.0139256788027498,17.7858422189316
0.0115282839982455,17.7887502414032
0.00954316156979634,17.7915576164775
0.00796961907322978,17.794151038211
0.00666596590960963,17.7966452858692
0.00552599457317651,17.7991810018399
0.00452367309427072,17.8017872244017
0.00364071760171822,17.8044872499668
0.00286231490498867,17.8073045870968
0.00222605464363069,17.8100297334502
0.00171238545955023,17.8126088597676
0.00128728856208125,17.8150848037755
0.000926357616543582,17.8175028860602
0.000612797781468503,17.8199034651688
0.000334585994590046,17.8223251432735
7.99625348618237e-05,17.8248368774773
-0.000172485953453037,17.8276651652863
-0.000354951759780691,17.8299566212202
-0.000521041275593742,17.832248077154
-0.000650723711634782,17.8341865785526
-0.000759277849318327,17.8359164530202
-0.000858975366549045,17.837594642467
-0.000956762628336101,17.8393256986593
-0.00105954143389657,17.8412365103437
-0.00118070962209164,17.8436083430238
-0.00139832496498642,17.8481765072971
-0.00158420384312082,17.8523730770247
-0.00173336241310501,17.8559260450941
-0.00188508782596066,17.8597136053195
-0.00206709839650588,17.8645476718408
-0.00225079302506331,17.8700658294598
-0.00237108750194388,17.8748693343973
-0.00242240599092692,17.8791883693871
-0.00239370509220244,17.8830568918674
-0.00227742240378203,17.8865476580554
-0.00206695860807178,17.8897437086679
-0.0017555940004917,17.8927111921223
-0.00133638485256753,17.8954998487402
-0.000798710206849403,17.8981637576878
-0.00011839588111631,17.9007858677066
0.000763502151370546,17.9035099573238
0.00197412652824149,17.9065681625634
0.00350668245840441,17.9098185231073
0.00538342747385768,17.9132516224585
0.00663620140682557,17.9152970061396
0.00801467286991735,17.9173423898208
0.00944829291079249,17.919252954637
0.010905338113478,17.9209823219111
0.0124651023123273,17.9226192705693
0.0141759443473398,17.9241943402977
0.0160444238144704,17.9256937824486
0.0181218372949878,17.9271406097402
0.0204285129146982,17.9285300639883
0.0230039606560418,17.9298690348259
0.0258814655022055,17.9311584813308
0.0290948313027968,17.9323988573373
0.0326915823040864,17.9335946188977
0.0367212165868184,17.9347484954319
0.0412410617677696,17.9358634855642
0.0463168921846763,17.9369425556221
0.0520304999983923,17.9379897003067
0.0584769867685544,17.9390085851601
0.0657708041956851,17.9400031039421
0.0740515448133783,17.9409774764574
0.0834912610332493,17.941936305419
0.0943088101806909,17.94288503967
0.106786181229961,17.9438300684436
0.121299108531292,17.9447793743068
0.138369233865804,17.945743553526
0.15873722209434,17.9467366124941
0.182319604845435,17.9477318198982
0.209734694058143,17.9487396200112
0.24181272908147,17.949774808423
0.279771775818323,17.9508611464737
0.323922169815816,17.9520010815312
0.36489921189265,17.9529908521969
0.399075255702659,17.9538001771007
0.428633155251628,17.9545159920039
0.454472791442131,17.9551835218743
0.47674189313753,17.9558297276556
0.495165333460462,17.9564764945719
0.509035030141292,17.9571471991624
0.516927718400285,17.9578745319023
0.515970286458326,17.9586859380695
0.503877568415607,17.9595131174373
0.479403470339629,17.9603722091841
0.440913043603746,17.9612752007513
0.386568816040205,17.9622308969317
0.342534886337643,17.9628769779174
0.293513287400814,17.9635230589031
0.249766910815832,17.9640626005578
0.2122881758915,17.9645121930669
0.179369781398946,17.9649069047402
0.149882391532271,17.9652676105917
0.123149219471164,17.9656069932453
0.0987102879530256,17.9659340781777
0.076197077932719,17.9662566830006
0.0552385820570003,17.9665835952646
0.0352933946666507,17.9669290870137
0.0148530474196924,17.9673349816422
0.00166474207349586,17.9676383063678
-0.0056694820896076,17.9678268842011
-0.0123710970901072,17.9680154620345
-0.0182232623789489,17.968196044221
-0.0241974814106173,17.9683997434989
-0.0300190611827002,17.9686224876683
-0.0355060328837627,17.9688615688935
-0.0405567398781439,17.9691158903555
-0.0451173947954686,17.9693854058523
-0.0491627926907863,17.9696707985177
-0.052708319556419,17.969976353212
-0.0556578037411835,17.9702950375621
-0.0580915573052459,17.9706345741091
-0.0600230710296095,17.9709978315368
-0.0614664756364874,17.9713882527312
-0.0624356745053275,17.9718100831361
-0.0629428344518128,17.9722685988194
-0.0629967931072194,17.9727704448273
-0.0626011263765804,17.9733241547327
-0.0617494958116052,17.9739421779402
-0.0604216486677698,17.9746408997758
-0.0585756477549511,17.9754441282004
-0.0561263279860674,17.9763910342322
-0.0528749156345122,17.9775613607079
-0.0488183154906051,17.9789711925429
-0.0448794610497763,17.9803313224912
-0.0411143980297219,17.9816488995759
-0.0375511048574334,17.9829269927336
-0.0342037628245014,17.9841668551347
-0.0310787730888171,17.9853688182151
-0.0281774053356181,17.9865327597223
-0.0254971845893745,17.9876583498901
-0.0230327700258027,17.9887451793481
-0.0207766128400929,17.9897928213911
-0.0187195043936587,17.990800855815
-0.0168510561527727,17.9917688688451
-0.0151601249006893,17.9926964371031
-0.0135851377817593,17.9936131225695
-0.0120690699135604,17.994553222754
-0.010616543809697,17.9955182372615
-0.00923151657488331,17.9965102512211
-0.00791775447751868,17.9975317084817
-0.0066787797009114,17.9985855026335
-0.00551781881990738,17.9996750936705
-0.00443774899272096,18.0008046648245
-0.00344104183477364,18.001979338255
-0.00252970453741282,18.0032054797537
-0.00170521713163888,18.0044911431132
-0.000968463656681199,18.0058467434918
-0.000319652845648891,18.0072861270418
0.000241780425549382,18.0088283743361
0.000705965891094656,18.0104554300376
0.00106934687206961,18.0121282969962
0.00134837110825134,18.0138652754942
0.00155766575105797,18.015687347016
0.00171095325582822,18.0176224915057
0.00182146376817677,18.0197102618732
0.00190255165074682,18.022011298517
0.001968866897062,18.0246304185358
0.00203960775355943,18.0277908010859
0.00213430921837963,18.0315262965391
0.00225534129159631,18.0353716939188
0.00239767083672599,18.0391521403508
0.00255806015119225,18.0429311605539
0.0027328908464337,18.0467563094751
0.00291953479224212,18.050665173806
0.00311677756698649,18.0546905277467
0.00332479388335008,18.0588632459766
0.00354496473890808,18.0632141973018
0.00377966950512252,18.0677756523339
0.0040321562046115,18.0725826830158
0.00430658685790833,18.0776745725084
0.00460836236237824,18.0830961635315
0.00493124343597091,18.088667197807
0.00526071866742413,18.0940835341952
0.00560369024510351,18.0994201869286
0.00596128355668922,18.1046481979903
0.00633778964801294,18.1097863775894
0.00673707484010972,18.1148425620205
0.00716345579461668,18.1198261281355
0.00762140411392646,18.1247428601538
0.00811572017046231,18.1295962828809
0.00865161722384915,18.1343877199074
0.00923484649943846,18.1391167930444
0.0098718026351508,18.1437817544058
0.0105696425334599,18.1483800199516
0.0113542478060035,18.1530087295507
0.0122396854331507,18.1576574516482
0.0132479268262937,18.1623413882281
0.0144095763082498,18.1670903525045
0.0157746384941147,18.1719762855169
0.0174461032957489,18.1771892682648
0.0197758749962692,18.1834772927635
0.0214860981845595,18.1876316800816
0.0232808820972104,18.1917860673997
0.024823405887824,18.1953586258588
0.0261185248830775,18.1985298069083
0.0272041929320466,18.2015205628087
0.0280595671032636,18.204406114168
0.0286461274828683,18.2071694171377
0.0289629285238482,18.2099282065307
0.0289800864159951,18.2128338064564
0.0285893275319457,18.2162081068137
0.0278171399801369,18.2194920540885
0.0267189028970248,18.2227760013632
0.0256307682253981,18.2254611423742
0.0245602933973829,18.2278416336361
0.023490000593879,18.2300793811071
0.022418225700866,18.2322403999824
0.0213478141421472,18.2343589974553
0.0202824558940296,18.2364568408746
0.019225826961805,18.2385492808927
0.0181813738361575,18.2406480647716
0.0171522608617327,18.2427627326267
0.0161413654813614,18.2449014250599
0.0151512898204592,18.2470713886255
0.0141843719687191,18.2492793260377
0.013242700880556,18.251531644775
0.0123281285513877,18.2538346541569
0.0114422770889476,18.2561947420224
0.0105865558250467,18.2586185081727
0.00976216412462175,18.2611129295188
0.00896480809212794,18.2637033603127
0.00817803414054245,18.2664654915621
0.00740562560050267,18.269418969222
0.00665136977478042,18.2725873716565
0.00591930381437722,18.2759979886664
0.00521368893760155,18.2796825270461
0.00453896137609047,18.2836779886299
0.00389964696405337,18.2880278344121
0.00330020666988744,18.2927838240553
0.00274478259534205,18.2980094049094
0.0022368807080132,18.3037859021182
0.0017791078197112,18.3102229255808
0.00138879278364752,18.3171578131778
0.00107271691277734,18.32463882091
0.000822228036308131,18.3329652810592
0.000647178125001326,18.3409114984926
0.000496111308757886,18.350197778167
0.000381491012456027,18.360197778167
0.000303055120278964,18.370197778167
0.000250339608627526,18.380197778167
0.000215708910543168,18.390197778167
0.000193711110229082,18.400197778167
0.000180573309985712,18.410197778167
0.000173742675341849,18.420197778167
0.000171511156102613,18.430197778167
0.000172744739593303,18.440197778167
0.000176703767722951,18.450197778167
0.000182927823893893,18.460197778167
0.000191162113852411,18.470197778167
0.000201310486645596,18.480197778167
0.000213406940898895,18.490197778167
0.000227601468851044,18.500197778167
0.000244158348005496,18.510197778167
0.000263466591864673,18.520197778167
0.000286063926961432,18.530197778167
0.000312677836694112,18.540197778167
0.000344290426386058,18.550197778167
0.000382239025536342,18.560197778167
0.000428373297889325,18.570197778167
0.00048352120606737,18.5799110332803
0.000546580945214323,18.588890501618
0.000618475965776195,18.5971749680619
0.000700397859842233,18.6048182950377
0.000793723763603463,18.6118710960521
0.000900019472842519,18.6183803368808
0.00102105820495163,18.6243896056916
0.00115884669966725,18.6299393719535
0.00131565653430708,18.635067214758
0.00149405975475617,18.6398080344044
0.00169697075953026,18.6441942552036
0.00192769583860286,18.648256021035
0.00218999337501219,18.6520213812035
0.00248814681248825,18.655516473244
0.00282705741336885,18.658765711315
0.00321236235254954,18.6617919840094
0.00365059033431457,18.6646168667758
0.00414937263932792,18.6672608656932
0.0047177388480665,18.6697437151878
0.0053665491947838,18.6720847660269
0.0060964842975778,18.674268953539
0.00690397138462456,18.6762871835008
0.00780051904015622,18.6781746962415
0.00880372099300427,18.6799675641871
0.00994235535261902,18.6817069970706
0.0112716619231885,18.6834529719954
0.0129964152973773,18.6854019245339
0.0148055230112912,18.687191225672
0.0167998348879877,18.6889805268101
0.018484599163313,18.6904184860404
0.0199334356537841,18.6916530769262
0.021227242893877,18.6928002125357
0.0223819323321672,18.6939144580969
0.0233882415161999,18.6950349731257
0.0242201023448657,18.6962039932862
0.0248274869863111,18.6974865653025
0.0250966040363627,18.6990365278418
0.0247644955301937,18.7008877048188
0.0238191506006362,18.7027388817957
0.0227148619210975,18.7042316691841
0.0214808869875723,18.705638156107
0.0201102622019985,18.7070614862382
0.0186108728143847,18.7085469119486
0.0169901525232474,18.710131748445
0.0152786211515944,18.7118615950035
0.0139415548711425,18.7133140456689
0.0115406932918895,18.7162234846314
0.00955272727246715,18.7190323511263
0.00797731019187847,18.7216266854543
0.00667271844997709,18.7241206888983
0.0055319905276223,18.7266559772552
0.00452902927760995,18.7292616424242
0.00364552522947805,18.7319609830242
0.00286664884284382,18.7347774997176
0.00222686348855,18.7375163741332
0.00171089777866381,18.7401078056835
0.00128431606175304,18.7425948486201
0.000922427888184692,18.7450231534533
0.000608399307577093,18.7474322118076
0.000330395121703949,18.7498575790371
7.71159561887036e-05,18.7523611690655
-0.000170952587245396,18.7551422019501
-0.000359640731285254,18.7575146005571
-0.000530874636430829,18.7598869991641
-0.000661718521974105,18.7618542451208
-0.00077021369037818,18.7635934143475
-0.000869491976608134,18.7652737780942
-0.000966597803292221,18.7670011978479
-0.00106829153940237,18.7688994885752
-0.00118717562011426,18.7712329843858
-0.00140643090377741,18.775843024729
-0.00159902089158587,18.7801979586083
-0.0017531182319394,18.7838762201362
-0.00190809819118859,18.7877548125234
-0.00209441895024618,18.7927271183613
-0.002273505975355,18.7981763886953
-0.00238915943859661,18.8029450022582
-0.00243436590103273,18.807228050089
-0.00239843155025853,18.8110640397623
-0.00227392980013405,18.8145316989355
-0.00205424720127446,18.8177119421849
-0.00173285751073483,18.820667542928
-0.00130275375823888,18.8234483489549
-0.000752989673549727,18.8261085520447
-5.90759444552037e-05,18.828730010888
0.000842508944961162,18.8314668604152
0.00207538670857813,18.8345350037894
0.00363355256795587,18.8377980457719
0.00553027164124425,18.8412276879975
0.00678945553743805,18.8432587727957
0.00817629732552147,18.845289857594
0.00962270373198177,18.8471903720014
0.0110822337147321,18.8488969532897
0.0126602441660528,18.8505277170614
0.0143912266305079,18.8520958460415
0.0162829028599931,18.853588915022
0.0183867922989221,18.8550296075655
0.0207232243635728,18.8564131223353
0.0233319296933328,18.8577462599106
0.0262470860855253,18.8590302699166
0.0295025175431007,18.8602654380548
0.0331467840388303,18.8614563623357
0.0372302921737367,18.8626058017616
0.0418116644896138,18.8637168252588
0.0469576476940227,18.864792331396
0.0527517482375531,18.8658363440874
0.0592912197080056,18.8668525654756
0.066693234102745,18.8678449272074
0.0751009623605007,18.8688177032691
0.0846915365539523,18.869775599682
0.0956902681304525,18.8707241479869
0.108389125961499,18.8716699322806
0.12317894775098,18.872621227009
0.140606140826563,18.8735891255089
0.161324483986004,18.874582712574
0.185323652588717,18.8755796804461
0.213243945072288,18.87659095497
0.245951945826795,18.8776321743596
0.284744651786504,18.8787291359043
0.32936567632725,18.8798713135202
0.369201500573721,18.880830983097
0.402617606289035,18.8816250056223
0.431619339088545,18.8823335523566
0.45695744347449,18.88299794011
0.47871232131231,18.8836439152548
0.496556926777926,18.8842931879642
0.509714186041087,18.8849697388845
0.51662564771554,18.8857082672609
0.514307830399188,18.8865213233297
0.500734639446381,18.8873521668544
0.474608637833173,18.8882164445379
0.434263775658759,18.8891255671656
0.377857562185384,18.8900883661418
0.334610762942525,18.8907101858437
0.286912017107855,18.8913320055455
0.244277196668367,18.8918556087601
0.207548394937201,18.8922961934988
0.175171186049519,18.8926855495991
0.146108475478447,18.8930429413318
0.119725553899,18.893380354175
0.0955816397083947,18.8937065307494
0.0733144402369846,18.8940292745098
0.052544650187193,18.8943577271438
0.0326817058134535,18.8947076474458
0.0118560118532688,18.895131036078
0.00140545385300411,18.8953755377218
-0.00589505023226635,18.8955640300777
-0.0125655722060904,18.8957525224337
-0.0184270347925739,18.8959342118971
-0.0243972013593454,18.8961388210845
-0.0302059780274655,18.8963623454422
-0.0356752816434474,18.8966021495892
-0.040705771032237,18.8968571832139
-0.0452450317144651,18.8971274314447
-0.0492686858527315,18.8974136009047
-0.0528485960194684,18.8977255646187
-0.0557675929561032,18.8980456058733
-0.058170959121066,18.8983865756035
-0.0600730393668613,18.8987514487235
-0.0614879875199765,18.8991437100333
-0.0624296357644945,18.8995676564426
-0.0629099954149224,18.9000286308479
-0.0629376546876667,18.9005333681843
-0.0625158191108953,18.9010905279919
-0.0616374022542979,18.9017128431374
-0.0602812606760265,18.9024169510809
-0.0584038428789109,18.9032272367227
-0.0559164531396097,18.9041841460279
-0.0526091558515361,18.9053714469579
-0.0485592080525351,18.9067778940942
-0.0446305513686477,18.9081354077148
-0.0408777883086931,18.9094505672599
-0.0373278735505418,18.9107263175413
-0.0339944385037711,18.9119638510302
-0.0308835336383557,18.9131634700719
-0.0279961757175726,18.9143250397673
-0.0253296953754998,18.9154482261722
-0.0228785997755439,18.916532619856
-0.0206352231221329,18.9175777956699
-0.0185902706039263,18.9185833350517
-0.0167332951675926,18.9195488249481
-0.0150531197092068,18.9204738410612
-0.0134816547722617,18.9213919743489
-0.0119694342117079,18.9223335914002
-0.0105210075579705,18.9233002445036
-0.00914032162373747,18.9242940390826
-0.00783112878706709,18.9253174444913
-0.00659693411900756,18.9263733862272
-0.00544094371291579,18.9274653647179
-0.00436601072898858,18.9285976152187
-0.00337457910525908,18.9297753280615
-0.00246862446109545,18.9310049603709
-0.00164959103765621,18.9322946916606
-0.000918322331500265,18.9336551160607
-0.000274980835740715,18.9351003455842
0.000281052292498996,18.9366498782569
0.00073844139009513,18.9382792888997
0.00109614476337022,18.9399556634575
0.00137044615294921,18.9416973124594
0.00157590773216899,18.9435255720707
0.00172620932041594,18.9454689813755
0.0018345703994164,18.9475680605002
0.001914387014194,18.9498853130459
0.00198046676786987,18.9525298226646
0.00205256216098627,18.9557382478826
0.00214874598623749,18.959476724758
0.00227114785965451,18.9633112764309
0.00241483229396633,18.9670889038998
0.00257647883587436,18.9708707326066
0.00275249846370712,18.9747029173835
0.00294033308513629,18.9786223637554
0.00313884766964786,18.9826615377307
0.00334829491646285,18.9868512365141
0.00357012947889286,18.991222411316
0.00380680291952493,18.9958075534771
0.00406164499230739,19.0006421067472
0.00433892805228033,19.0057658550204
0.00464422449261436,19.0112242924757
0.00496756168469894,19.0167713715064
0.00529874472957435,19.0221815749754
0.00564328349348897,19.0275046897831
0.00600295461015206,19.0327222326972
0.00638192462548542,19.0378505024311
0.00678414512982873,19.042898035944
0.00721394207747937,19.0478736913677
0.00767582570124531,19.0527830299341
0.00817463966295912,19.0576293032194
0.00871565536403709,19.0624136296582
0.00930469371093638,19.0671354573712
0.00994823109784436,19.0717929115589
0.0106549919519053,19.0763924648303
0.0114503168568809,19.0810234343701
0.0123486176955679,19.0856752905242
0.0133726661607033,19.0903646653514
0.0145545679325067,19.095124483747
0.0159478661534547,19.1000345115705
0.0176670698908198,19.1053105993037
0.0201350542644304,19.1118572028048
0.0217924733065404,19.1158331599513
0.0235162780605149,19.1198091170979
0.0250162937189181,19.1232986643884
0.0262810618228001,19.126433793333
0.0273381648175904,19.1294116561998
0.0281558497627114,19.1322731714383
0.0287058414490244,19.1350284825618
0.0289841684486982,19.1377970010851
0.0289548731689499,19.1407402354303
0.0284859324292414,19.1442386937105
0.0276966051442619,19.1473836811346
0.0266162282434402,19.1505286685586
0.0255345773710995,19.1531656303106
0.024464805687827,19.1555282887725
0.0233943541189451,19.157757187624
0.0223225657831176,19.1599132915451
0.0212524571390365,19.1620292816087
0.0201877364196591,19.1641260862642
0.0191320640734855,19.1662186523628
0.0180888622967989,19.1683184855869
0.0170612698683244,19.1704349736132
0.0160521390453086,19.1725761596502
0.0150640478977612,19.1747492288926
0.0140993120123595,19.1769608473671
0.0131599980406674,19.1792174072749
0.0122479381979552,19.1815252147414
0.0113647349828339,19.1838906697649
0.0105117775155586,19.1863204013241
0.00969024885927696,19.1888214198734
0.00889370296252484,19.1914265022689
0.00810807414933734,19.1942049170114
0.00733714029164778,19.1971766553387
0.00658471157529024,19.2003656031367
0.00585484698746537,19.2037994127941
0.00515182483009154,19.2075102311975
0.00448009421521091,19.2115355819314
0.00384418283840162,19.2159195780181
0.00324853478088116,19.2207148554686
0.00269724922697154,19.2259861464457
0.00219375812297511,19.231816829519
0.0017405855338228,19.2383196618351
0.00135635443852885,19.2453008679494
0.00104730540722521,19.2528372405761
0.00082303854238334,19.2604297063308
0.000639967666530892,19.2687693623942
0.000492416787970737,19.277941515156
0.000378831283458712,19.287941515156
0.0003011543191528,19.297941515156
0.000248979176553338,19.307941515156
0.000214720267845316,19.317941515156
0.000192972680847385,19.327941515156
0.000180001830898143,19.337941515156
0.000173282275062552,19.347941515156
0.000171124102397907,19.357941515156
0.000172405073598685,19.3679415151561
0.000176393333906038,19.3779415151561
0.000182633804995144,19.3879415151561
0.00019087540813799,19.3979415151561
0.000201024566182047,19.4079415151561
0.00021311701844003,19.4179415151561
0.000227303882430777,19.4279415151561
0.000243850099597661,19.4379415151561
0.000263144986457329,19.4479415151561
0.000285726264658496,19.4579415151561
0.000312321113993205,19.4679415151561
0.000343911000556556,19.4779415151561
0.000381832183862671,19.4879415151561
0.000427932644858487,19.4979415151561
0.000483052567699714,19.5076569478011
0.000546082468088193,19.5166384979882
0.000617944999086403,19.524924876322
0.000699831211155861,19.532569956302
0.000793117686636678,19.5396243645134
0.000899369627197467,19.5461350786351
0.00102035959527226,19.552145697593
0.00115809359932473,19.557696700612
0.00131484239303945,19.5628256756518
0.00149317709409157,19.5675675310546
0.00169601104232547,19.5719546984171
0.0019266493184353,19.5760173282166
0.00218884890753726,19.5797834757225
0.00248689162302724,19.5832792838122
0.00282567680211673,19.5865291713635
0.00321083930831046,19.5895560310564
0.0036489050243347,19.5923814417412
0.00414750170245462,19.5950259121012
0.0047156543837964,19.5975091781818
0.00536421725658733,19.5998505910437
0.00609394307612225,19.602035286475
0.00690119452349649,19.6040539248318
0.00779746593603777,19.605941744806
0.00880032888872447,19.6077348132035
0.00993851503934553,19.6094743112649
0.01126714164923,19.6112201210215
0.0129901927314878,19.6131679801972
0.0148015296007252,19.6149600222159
0.01679873293042,19.6167520642347
0.0184839643262397,19.6181904139327
0.0199328798675831,19.6194250472585
0.0212267334954556,19.6205721891223
0.0223814679237291,19.6216864304021
0.0233878257650887,19.6228069321312
0.0242197431665109,19.6239759272422
0.024827200252458,19.6252584526565
0.0250964338108007,19.6268083037522
0.0247644554792505,19.6286595647839
0.0238191496983695,19.6305108258157
0.0227148741300463,19.6320036381301
0.0214809148523021,19.6334101226295
0.0201103033522289,19.6348334420123
0.018610923890315,19.6363188522143
0.0169902106712276,19.6379036683619
0.0152786731252374,19.6396334877609
0.0139420338868623,19.6410854226603
0.0115410180113032,19.6439949031467
0.00955289270928642,19.646803856351
0.00797736703163701,19.6493982485621
0.00667271993531487,19.6518922436142
0.00553194730294962,19.6544275128589
0.004528948458497,19.6570331514178
0.00364541268675744,19.6597324581428
0.00286650977835912,19.6625489333318
0.00222759469814942,19.6652836211363
0.00171219725814705,19.6678711560474
0.00128599317965381,19.6703544809824
0.000924369581630661,19.6727790787758
0.00061050801161134,19.675184547214
0.000332537758502508,19.6776070053365
7.90845715918121e-05,19.6801095413449
-0.000169636013022517,19.6828952732044
-0.000357315512518781,19.6852525200193
-0.000527715685504441,19.6876097668341
-0.000658386003259301,19.6895709669918
-0.000766894881324904,19.6913073641524
-0.000866234569035454,19.6929860615801
-0.000963433622368391,19.6947126191432
-0.00106526903295314,19.6966111543573
-0.00118444620012111,19.6989480967956
-0.00140334172682016,19.7035474638079
-0.00159481629024268,19.7078750602582
-0.00174804251424419,19.7115308738254
-0.00190240126492959,19.7153919280844
-0.00208795174812211,19.7203381898193
-0.00226812961342975,19.7258028735264
-0.00238498320225865,19.7305799279037
-0.00243179340024028,19.7348711921667
-0.00239779356520576,19.7387145480694
-0.00227552802877789,19.7421871027073
-0.00205837216104828,19.7453705864267
-0.00173976941518391,19.7483282794311
-0.001312727415909,19.751110116351
-0.000766358571085806,19.7537703997072
-7.63398598160434e-05,19.7563909344822
0.000819973059798869,19.7591242552356
0.0020468206507531,19.7621895063872
0.00359851926095061,19.7654502730514
0.00549082886592051,19.7688833555895
0.00674800170184127,19.7709184774037
0.00813218640057647,19.7729535992179
0.00957510367995068,19.7748575498981
0.0110314971922157,19.7765680981837
0.0126039793914614,19.7782007246723
0.0143286606911651,19.779770696225
0.0162132841588402,19.7812655515072
0.0183092447153687,19.7827079991108
0.0206367534590397,19.7840931708676
0.0232355725058468,19.7854279567562
0.0261396350918626,19.7867135233085
0.0293826294162038,19.7879501501161
0.0330128636557313,19.7891424222296
0.0370804700424048,19.790293090001
0.0416437456407096,19.7914052167052
0.0467689846450772,19.7924816834708
0.0525392768912962,19.7935265299708
0.0590512029124469,19.7945434423645
0.0664211030592347,19.7955363395803
0.0747910484226086,19.7965094774886
0.084336604355283,19.7974675286905
0.0952810746955451,19.7984159961547
0.107913287159927,19.799361398464
0.122619282368277,19.8003119119209
0.139937501423655,19.8012784618507
0.16055051996628,19.8022717281853
0.18442397512921,19.8032679716276
0.212191094926598,19.8042779538706
0.244706554853658,19.8053170237658
0.283241008088446,19.8064102811836
0.327729566945761,19.8075515684305
0.367933005947191,19.8085203483176
0.401596361179276,19.8093189152852
0.430781706484247,19.8100295241853
0.456286514742785,19.810694691248
0.478212662624525,19.8113405369173
0.496249877031233,19.8119888224778
0.509643466368922,19.8126633347394
0.51687892231859,19.8133981346527
0.515001950755874,19.8142105157152
0.501906740884711,19.8150400749884
0.476311611436552,19.8159026290048
0.436558910364581,19.8168097782951
0.380806303117537,19.8177703200505
0.337285819185642,19.8183999897294
0.289141633056562,19.8190296594084
0.246133369034197,19.8195584291436
0.209150712100423,19.8200019372696
0.176589049711696,19.8203930272571
0.147381038741182,19.8207514831416
0.120878046903603,19.8210895162661
0.096632890053648,19.8214159601641
0.074281211840881,19.8217386195843
0.05344662703198,19.8220665106953
0.0335559380292314,19.8224148649706
0.0128734657702745,19.8228319005503
0.00169472007061886,19.8230915817885
-0.0056448728463092,19.8232803549779
-0.0123510261005405,19.8234691281672
-0.018201137168901,19.8236497142436
-0.0241738864907895,19.8238534328624
-0.0299944996999404,19.8240762095547
-0.0354808329754342,19.8243153311066
-0.0405311274386366,19.8245696974765
-0.0450915369149612,19.8248392605811
-0.0491368200413241,19.8251247023599
-0.0526910264779042,19.8254311577099
-0.0556391148245524,19.8257499577592
-0.0580714679966353,19.8260896051382
-0.060001688630652,19.8264529804586
-0.0614439024866028,19.8268435276929
-0.0624120052530762,19.8272654933651
-0.0629181551108578,19.8277241547791
-0.0629711807211303,19.8282261584075
-0.0625746493343342,19.8287800394822
-0.061722208162741,19.8293982530111
-0.0603935984177926,19.8300971851496
-0.0585468796828433,19.8309006481487
-0.0560968880962632,19.8318478203571
-0.0528448543213083,19.8330184619521
-0.0487893035198743,19.8344281188814
-0.0448516535600794,19.8357880760188
-0.04108789449276,19.8371054693766
-0.0375259599196582,19.8383833684614
-0.0341800023016896,19.8396230274394
-0.0310564005919326,19.8408247788669
-0.0281564060219476,19.841988501607
-0.0254775280114335,19.8431138669299
-0.0230144127651924,19.8442004663766
-0.0207595011246421,19.8452478739943
-0.0187035766375369,19.8462556701449
-0.0168362454010137,19.8472234414055
-0.0151463610750839,19.84815076451
-0.0135717158879706,19.8490675928775
-0.0120560212256512,19.8500078424888
-0.0106038925365554,19.8509730180993
-0.00921928596433318,19.8519652068321
-0.00790596644754118,19.8529868550311
-0.00666745450942696,19.854040859398
-0.00550697472370142,19.8551306838612
-0.00442740188951478,19.8562605167053
-0.00343120488892084,19.8574354867016
-0.00252038778198449,19.8586619684884
-0.00169642703521347,19.8599480280197
-0.000960202631217597,19.8613040977427
-0.00031191865187976,19.8627440494516
0.00024899546604267,19.8642870039021
0.000712525249612422,19.8659142887113
0.00107536085215608,19.8675874966372
0.0013539341309991,19.8693249286046
0.00156286621386418,19.8711476003196
0.00171587581158491,19.8730835455087
0.00182619262277779,19.8751724098523
0.00190717597235535,19.8774750117477
0.00197349263883987,19.8800965732412
0.00204439685666233,19.8832615359664
0.00213928907696218,19.8869972701511
0.00226049164537236,19.8908409813715
0.00240300837228934,19.8946209376775
0.00256359636585811,19.8984002980757
0.00273864096962083,19.902226406026
0.00292552123260906,19.9061367450508
0.00312303136130345,19.9101640418448
0.00333135571628898,19.9143391573182
0.00355188598691954,19.9186929699091
0.00378701380522759,19.9232577794852
0.00404000263054229,19.9280687085456
0.00431503590509667,19.9331651088063
0.00461754685583976,19.9385919115924
0.00494065328474316,19.9441575635226
0.005270593391286,19.9495718131215
0.00561402625201774,19.9549051817531
0.00597219153684966,19.9601305468169
0.00634936009494637,19.9652662412931
0.00674941662864202,19.9703202115326
0.00717668362925538,19.9753017269635
0.00763564478344785,19.9802165229374
0.0081311140006997,19.985068065959
0.00866832124844863,19.9898576327266
0.00925303696036764,19.9945848030193
0.00961630926313253,19.9972924015096
0.0100020897027631,20
