ecg,time
0.000292216950133176,15.0098521668563
0.000312675733845594,15.0198521668563
0.000339539722572971,15.0298521668563
0.000373455650028918,15.0398521668563
0.000415663829141995,15.0498521668563
0.000468147041979319,15.0598521668563
0.000530833815630382,15.069424673365
0.000602873789111716,15.0782549290849
0.000685252742976994,15.0863900666131
0.00077929088612475,15.093886658825
0.000886546431919279,15.1007972101646
0.00100880955542579,15.1071701091768
0.00114811989450966,15.1130500296988
0.00130679531305689,15.1184782815456
0.00148746865756102,15.1234931088069
0.0016931310436601,15.1281299586562
0.00192718520159412,15.1324217317549
0.0021935098972634,15.136399019574
0.00249654141372595,15.1400903311313
0.00284137596686459,15.1435223225707
0.00323390478206606,15.1467200424789
0.00368099523453326,15.1497072041413
0.00419074209340852,15.1525065061491
0.00477283183920151,15.1551400434017
0.0054390949971471,15.1576298784343
0.00618653033522342,15.159948357414
0.00701823810064544,15.1621068213765
0.00795043816097606,15.1641479836378
0.00901003213317539,15.1661204353677
0.0102487735730489,15.1680935467433
0.0118046487011951,15.1702218814503
0.0134502738980071,15.1721923917045
0.0148840135050116,15.1737613326408
0.016390930153194,15.175330273577
0.017732367279095,15.1767113346613
0.0189243788352222,15.1779760463089
0.0199855381774077,15.179188357123
0.020911293649451,15.1803917090107
0.0216815850333788,15.1816274908329
0.0222579329525313,15.1829515943096
0.0225620588561384,15.1844738762887
0.0223274066084316,15.1866161717683
0.0216656831980548,15.1882626072231
0.0206685851961515,15.1899090426778
0.0195491895556511,15.1914007737266
0.0183119160000474,15.1928689350552
0.0169642255483429,15.1943703710269
0.0155156006516959,15.1959421244585
0.0150179611477276,15.1964806494367
0.0145263648330117,15.197019174415
0.013456043147784,15.1982394951039
0.0112683456137756,15.20098485891
0.00935244447943378,15.2037589667657
0.00781038822683123,15.2063459324046
0.00651486760778358,15.2088590194998
0.00537717736879844,15.2114170206265
0.00437294472642021,15.2140481780123
0.00348453036952714,15.2167760017026
0.00270625439011662,15.2195896741469
0.00208249538919264,15.2222336730591
0.00157379345585656,15.2247310064695
0.00114989653091842,15.2271142296025
0.000788876614799549,15.2294160731366
0.000474679774129753,15.2316689800418
0.000194880627609887,15.2339093753168
-6.19971317432983e-05,15.2361938635226
-0.000311787702362018,15.2386555027807
-0.000551972843181089,15.2412737199323
-0.000712266190555859,15.2431701529648
-0.000862904377022277,15.2450665859973
-0.000990239872325668,15.2467577937833
-0.00110461467172002,15.2483458032646
-0.00121483892443581,15.2499370361324
-0.00132801741090549,15.2516313038342
-0.00145439046645384,15.253592201292
-0.00162569975889301,15.2563587987964
-0.00184219816322745,15.2600169678456
-0.00201635658889654,15.263082379895
-0.00217847806636899,15.2660361125864
-0.00235630308631825,15.2694077419767
-0.00256950073465983,15.2737185828209
-0.00279442908099119,15.2789356838801
-0.00294974382051924,15.2839094139786
-0.00300635179160792,15.2879858656676
-0.00297823485658245,15.2916436928507
-0.00285683080315558,15.2951688955464
-0.00262348687701612,15.2986231651877
-0.00229115050768142,15.3017535108636
-0.00186229707239412,15.3046369786762
-0.00133586258552552,15.3073302121654
-0.000702966219119901,15.309895064774
6.0143866511253e-05,15.3124126346953
0.00101650088919273,15.3150297873971
0.00229015564552336,15.3179611535998
0.0038606586510604,15.3210729665646
0.005596030314246,15.3241304896999
0.00696799333743899,15.3263409493363
0.00846059479275432,15.3285514089727
0.00988090523741134,15.3304603255902
0.0113421047660051,15.3322261521523
0.012867273785341,15.3338659946407
0.0145209547734035,15.3354337635792
0.0163402032792297,15.3369422433791
0.0183535502219068,15.3383934882462
0.0205967431730695,15.3397931321939
0.0231000400793747,15.3411413359572
0.0258938615001748,15.3424380325588
0.0290192169568107,15.3436871375659
0.0325173110731705,15.3448906467779
0.0364323347751681,15.3460502262451
0.0408230125412949,15.3471700881956
0.0457539358317369,15.3482534365701
0.0513010465359643,15.3493036541408
0.0575540825031013,15.3503242395705
0.0646206851678484,15.3513189285355
0.0726325837930987,15.3522918809952
0.0817507103920727,15.3532475015481
0.09217610055884,15.3541907389587
0.104165058424206,15.3551273452129
0.118052942319294,15.3560642964085
0.134294334178766,15.357010544319
0.153533744965475,15.3579782979066
0.176141276737302,15.3589612194317
0.202357301667539,15.3599508533147
0.23290597489311,15.3609590556388
0.268789632962987,15.3620035284029
0.311618415102165,15.3631167113087
0.347231101516403,15.3639713217852
0.384359598395049,15.3648259322617
0.417318970456603,15.3655803310644
0.446108451962993,15.3662625882109
0.47124936351722,15.3669073833974
0.492759815006233,15.367539382315
0.51024067580382,15.3681807342698
0.522780903361119,15.36885780876
0.528481557408922,15.3696128760082
0.524125385137846,15.3704192657224
0.508107992474072,15.3712495660833
0.478989793084611,15.3721193946743
0.43494681372467,15.3730398276697
0.374000090154469,15.374019445695
0.330550432070541,15.3746153627131
0.283191868263066,15.3752112797313
0.240929189262112,15.3757166511328
0.20442304232,15.3761455581245
0.172187582411328,15.3765268889001
0.143228784843057,15.3768784538879
0.116927509998479,15.3772115948734
0.0928450746023088,15.3775348166941
0.0706104929433196,15.3778560110219
0.0498150304995571,15.3781849792937
0.029759454202522,15.3785402224383
0.00767443818034361,15.3789974848228
-0.000622144859525147,15.3791956534412
-0.00818436243635736,15.3793938220596
-0.0145456348644478,15.3795768670197
-0.0205416426921949,15.3797666715453
-0.0265237565961633,15.3799773316007
-0.032261478700323,15.3802054969616
-0.0376117101761297,15.3804492693528
-0.0424958650353002,15.3807080649516
-0.0468738741189223,15.3809821787843
-0.0507275299769548,15.3812725476133
-0.0542887765285671,15.3816065611686
-0.0570075166890983,15.38193347826
-0.0592114606388602,15.3822821779482
-0.06091790735352,15.3826561234254
-0.0621412939426289,15.3830591358882
-0.0628950376129245,15.3834959407495
-0.0631900245703341,15.3839724509329
-0.0630328637115739,15.3844961881052
-0.0624230990257,15.3850773188604
-0.0613477116889668,15.385730346005
-0.0597768582716629,15.3864747998371
-0.0576501554964676,15.3873409508352
-0.0548385714635366,15.3883834150057
-0.0509802032320668,15.3897395371738
-0.046957169460118,15.3911249816293
-0.0430815432397188,15.3924662172338
-0.0393948686837332,15.3937671567473
-0.0359175156603464,15.3950297054566
-0.0326596614058527,15.3962545116797
-0.0296252441418495,15.3974415909909
-0.0268138306540013,15.3985906590796
-0.0242216864885351,15.399701306568
-0.0218425168561768,15.4007730878859
-0.0196680579027303,15.4018055611674
-0.0176885872077392,15.4027982985761
-0.0158933771072925,15.4037508775808
-0.0142710972714987,15.4046628589553
-0.0127217430330543,15.4055881937216
-0.0112333063337154,15.4065373788349
-0.00980998092059854,15.407512229535
-0.00845566293227987,15.408514955158
-0.00717403797191707,15.409548156239
-0.00596853022367646,15.4106149231416
-0.00484225036936159,15.4117189661114
-0.00379794140035008,15.4128647915377
-0.00283792221608678,15.4140579467062
-0.00196402846272665,15.4153053694968
-0.00117754934326583,15.4166159053262
-0.000479157848347958,15.4180011035469
0.000131170617415146,15.4194765089597
0.000654261400454164,15.4210638983645
0.00107224280524545,15.4227059437676
0.00139594590382783,15.4244008651181
0.00164083602498068,15.426167190736
0.00182108794780534,15.4280281884525
0.00195008864997025,15.4300154957971
0.00204089410336903,15.4321750897959
0.00210695076896644,15.4345802793853
0.00216363493590899,15.4373660977996
0.00223342143847068,15.4408601229881
0.00232638478941505,15.4446338567359
0.0024573921985575,15.4488044809999
0.00260691627232464,15.4527935851982
0.00276589155585115,15.4566078097098
0.00293206718270531,15.4603572560884
0.00310448653520894,15.4641083355633
0.00328331696677375,15.4679072410962
0.00346965896945347,15.4717906871117
0.00366535386536795,15.4757908423601
0.00387283238699563,15.479938114339
0.00409501335552485,15.4842629595279
0.00433527233715172,15.4887972338514
0.00459753253654606,15.493575569011
0.00488654281949498,15.4986368088339
0.00520841833117262,15.5040252249153
0.00554529254017428,15.5093806832249
0.00589638928080835,15.5146542996799
0.00626397963401877,15.5198401983376
0.00665114143052251,15.5249384827669
0.00706193757302984,15.5299576246327
0.00750083814980308,15.5349056075696
0.0079726950519487,15.5397889723637
0.00848272349047688,15.5446118314799
0.00903659343097959,15.5493761121649
0.00964052889282088,15.5540818379535
0.0103014413833811,15.5587277292566
0.0110367941464577,15.5633702458982
0.0118656194596789,15.5680438698503
0.0128061690023764,15.5727533811334
0.0138848641246012,15.5775228367077
0.0151420216615143,15.5824055196704
0.0166524847768106,15.5875339104145
0.0186157604114542,15.5933303963811
0.0204939762095093,15.598258599056
0.0220764947951427,15.6021357114313
0.0236963778644951,15.6060128238065
0.0250887646586663,15.6094332781959
0.0262619727364109,15.6125650386084
0.0272300765847974,15.6155821058377
0.0279442148912138,15.6184649917508
0.0283923811365932,15.6212749173664
0.0285625149892304,15.624141759366
0.0284004147386478,15.6272668107945
0.0276783989632313,15.6312848632652
0.0268313386469893,15.6342126589865
0.0257656330658163,15.6371404547079
0.0246881741656904,15.6397169944919
0.0236144011764395,15.6420848458619
0.0225398447943932,15.6443430132573
0.0214658154579919,15.6465407139075
0.0203956617455907,15.6487065818158
0.019333089492448,15.6508597945423
0.0182816887910652,15.6530144663905
0.0172448030674831,15.6551817253363
0.0162254988386513,15.6573708400704
0.0152265644579378,15.6595899013182
0.0142505213566048,15.6618462601848
0.0132996346054826,15.6641468399787
0.0123759229233033,15.6664983724603
0.0114811726748674,15.6689075772218
0.0106169413776392,15.6713813417136
0.00978457346550083,15.6739268569264
0.00898520419124832,15.6765517845467
0.00821343245128003,15.6792877972661
0.00745543388262632,15.6822088514363
0.00671507020704475,15.6853362268263
0.00599618473705937,15.6886953933953
0.00530282232813813,15.6923157878455
0.00463918089839895,15.6962315849121
0.00400953139434261,15.7004827183865
0.00341808364922577,15.705116443297
0.00286878727861577,15.7101899713534
0.00236504534388654,15.7157755122171
0.00190950097270692,15.7219681844137
0.00150646194709065,15.7288498362918
0.00116871102522424,15.7362634038172
0.000952006990366419,15.742760819001
0.000757203899113625,15.7507227819871
0.000602087756981157,15.7594362466922
0.000483087560904022,15.7688274625063
0.000396998680332178,15.7788274625063
0.000341751785439305,15.7888274625063
0.000308926920049807,15.7988274625063
0.000292465745591089,15.8088274625063
0.000288195332367469,15.8188274625063
0.00029342437493139,15.8288274625063
0.00030658126534185,15.8388274625063
0.000326941515870377,15.8488274625063
0.000354466015428813,15.8588274625063
0.00038974547321293,15.8688274625063
0.000434044700926227,15.8788274625063
0.000489457607405042,15.8888274625063
0.00055515984880003,15.8982971990861
0.000630685640835414,15.9070263048601
0.000717073108922381,15.9150660799376
0.000815696538328309,15.9224732180709
0.000928180738450624,15.9293001555684
0.00105639550164027,15.9355951887468
0.00120247419573584,15.94140288953
0.00136884410060168,15.9467644623844
0.00155826550778916,15.9517180480642
0.00177387799960021,15.9562989996201
0.0020192585581186,15.9605401407456
0.00229849200712366,15.9644720112005
0.00261626126891773,15.9681231037089
0.00297796245786522,15.9715201088452
0.00338985829450997,15.9746881823964
0.0038592878949372,15.9776512496002
0.00439496305349183,15.9804323768809
0.00500740820063187,15.9830542684932
0.00570878045041412,15.9855371915913
0.0064885102300351,15.9878338857638
0.00735950127192457,15.9899874574318
0.00834285905250676,15.9920451458878
0.00947609634470325,15.9940664540831
0.0108428880403099,15.9961559113774
0.0128062542279732,15.9987215318325
0.0141999618628783,16.0003467713896
0.0156772492763378,16.0019720109467
0.017024412452532,16.0034236058444
0.0182170236820203,16.0047353214332
0.0192791280042847,16.00597980437
0.0202105618750506,16.0072042129071
0.0209951185804354,16.0084495076247
0.0216003480542695,16.0097661986146
0.021963430305187,16.0112432225726
0.0219130578176315,16.0131454324464
0.021344980292638,16.0149735573642
0.0203523393853905,16.016801682282
0.0192635639749248,16.0183458480805
0.0180688150972781,16.0198300050277
0.0167673762317709,16.0213331330683
0.0153680807082533,16.0228954450427
0.0145359300127224,16.0238186592758
0.01372477607297,16.0247418735088
0.0116012066512384,16.0273705201604
0.00963063936171396,16.0301697685473
0.00803945628534616,16.0327861150583
0.00671638412637593,16.0352992524415
0.00555498584018241,16.0378521492725
0.00452948954552158,16.0404745958793
0.0036217608283095,16.0431902855486
0.00283290305737497,16.0459621901962
0.00219710889870711,16.0485739329466
0.00167577261764238,16.0510489559212
0.0012391833661672,16.0534194186571
0.000865061387081584,16.0557217102015
0.000536132096538354,16.0579992008018
0.000237328524343604,16.0603148460886
-4.94168636962578e-05,16.0627976879381
-0.000374610893402469,16.0659741471739
-0.00055000749390605,16.0678671289577
-0.000713982302288424,16.0697601107416
-0.000854464931819991,16.0714806788703
-0.000980689930630031,16.0731061399728
-0.00110210929600522,16.0747411484597
-0.00122659262577263,16.0764895206715
-0.00136573083571766,16.0785281086303
-0.00155786369804772,16.0814829748125
-0.00178032791648285,16.0850943865336
-0.00195870240112034,16.0881322652041
-0.00212715794535247,16.0911219849496
-0.00231143982407526,16.0945525210171
-0.00252920405441892,16.0989251549869
-0.0027505613209406,16.104126765739
-0.00289406238212071,16.1089509381835
-0.00294139348006149,16.1129601254589
-0.00290392833649457,16.1165921774321
-0.00277133842046652,16.1201153362214
-0.00252548655372776,16.1235646010871
-0.0021810803834456,16.1266875379489
-0.00174028018785157,16.1295660874062
-0.00120043918079811,16.132263518502
-0.000549735151978917,16.1348484703697
0.000241722727060767,16.1374138289729
0.0012392661231492,16.1401000891629
0.00255508267650483,16.1430883857695
0.00413185349902006,16.1461843448258
0.00587858803515953,16.1492354963917
0.00721006809294342,16.1513554952239
0.00866236910924203,16.1534754940562
0.0100821976918824,16.1553513794884
0.0115620567743952,16.1571041598486
0.0131144863465841,16.1587360310962
0.0148046504182502,16.160299692649
0.0166629611194091,16.1618014780638
0.0187222056139784,16.1632471585863
0.0210140079706797,16.1646394290405
0.0235724349299585,16.1659809322475
0.0264260616622583,16.1672705268566
0.0296180344207529,16.1685129195636
0.0331908452653261,16.1697102824944
0.0371910077323602,16.1708646289641
0.0416776843180312,16.1719797851826
0.0467182449340518,16.1730591748084
0.0523914514214508,16.174106237609
0.0587910376513456,16.1751246047922
0.066028563026984,16.1761179830591
0.0742421452126482,16.1770906941673
0.083601120526179,16.1780473200941
0.0943183819639525,16.1789930687648
0.106667735489447,16.1799340900639
0.121011214479622,16.1808779607433
0.137847431354017,16.1818346481491
0.15789955833453,16.1828181810908
0.181224237631679,16.1838078626091
0.208313765182862,16.1848079184794
0.239960082156542,16.1858319758881
0.277299018089046,16.1869013425506
0.321388249445361,16.1880359916325
0.364104344104362,16.189057335818
0.399317686295802,16.1898775005851
0.429590384045408,16.1905948445511
0.456055669380652,16.191260106317
0.478947016344723,16.1919018155128
0.498040581085106,16.1925422442924
0.512682966425644,16.1932045992661
0.521540057910727,16.1939207818992
0.521816409693044,16.194727371168
0.510992372243747,16.1955488377322
0.487853219609801,16.1964019907147
0.450762783404754,16.197299556789
0.397845483383113,16.1982504347925
0.352593304291683,16.198922698879
0.301750819717514,16.1995949629654
0.256526773525331,16.2001509784199
0.218056006937584,16.2006092599736
0.184424655891333,16.2010086941627
0.154379898411965,16.2013720043525
0.127187951528488,16.2017126563815
0.102361314266196,16.2020400009294
0.0795190415673663,16.2023619162403
0.0582909833722768,16.2026869428458
0.0381663115665097,16.2030282730976
0.0178568640825122,16.2034212326536
0.00929545083591812,16.2036075379716
0.00140267306940497,16.2037938432895
-0.00666715823730192,16.2040024426629
-0.0132360074361462,16.2041892928284
-0.0191729014230134,16.2043748299138
-0.0251582612057251,16.2045822314438
-0.0309420349248309,16.2048078465892
-0.0363629675068554,16.2050493979942
-0.041331687747733,16.205306060113
-0.0458017036322793,16.2055779656913
-0.0497510944390831,16.2058659294468
-0.0534209881852932,16.2061973768801
-0.0562348463169765,16.2065211916533
-0.0585323813254723,16.2068662657378
-0.0603306891842132,16.207235941227
-0.0616441251663086,16.2076338787501
-0.0624863423071666,16.2080645963634
-0.062868803504629,16.2085337297863
-0.0627991120474196,16.209048416056
-0.0622787760936912,16.2096179886204
-0.0612975629383325,16.2102562485149
-0.0598300777127915,16.2109811826611
-0.0578246401582611,16.2118200388759
-0.0551737414524121,16.2128199118696
-0.0516022577040069,16.2140876517631
-0.0475675428236469,16.2154827776811
-0.0436672605567822,16.2168319022418
-0.0399498180640391,16.2181397959434
-0.0364386136947032,16.2194088370553
-0.0331454378616271,16.2206399238022
-0.0300752310024771,16.2218332033759
-0.0272282554833751,16.2229884597991
-0.0246012911563389,16.2241053179314
-0.0221884316621464,16.2251833483994
-0.019981702958946,16.2262221167441
-0.0179715895112239,16.2272211993589
-0.0161474987675412,16.2281801783727
-0.014498173262953,16.2290986221502
-0.0129393150914103,16.2300203889819
-0.0114405699719829,16.2309658222797
-0.0100063060371832,16.2319366073493
-0.00864044624289729,16.2329349014308
-0.00734671125192996,16.2339632392767
-0.00612856766385276,16.2350246285064
-0.00498917622353887,16.2361226739493
-0.00393133787086196,16.2372617455958
-0.0029574375694019,16.2384472108742
-0.00206938542500263,16.2396857649561
-0.00126855392615419,16.2409859162681
-0.000555708937667331,16.2423587292933
6.90702034082254e-05,16.2438190187164
0.000606490870710334,16.2453873941059
0.00104181965066385,16.2470229939626
0.00138023185787268,16.2487085183524
0.00163756781292828,16.2504623514923
0.00182817525520658,16.2523067716813
0.00196556288324884,16.2542718186438
0.00206283670650138,16.2564006352669
0.00213337058865293,16.2587608566912
0.002192165367466,16.2614736320916
0.00226003735695654,16.2648159210564
0.00235147750834529,16.2685677852589
0.00247527781999544,16.272564515647
0.00261730553712636,16.2763880090225
0.0027736635549862,16.2801412710606
0.00294119385643826,16.2838925781069
0.0031180094940534,16.2876890849094
0.00330357278766581,16.2915679421294
0.00349853284836769,16.2955615570216
0.00370451440924651,16.2997004189444
0.00392392895225027,16.3040149853775
0.00415983826797961,16.3085370259908
0.00441593665484066,16.3133009934316
0.00469672402604651,16.3183454824962
0.00500794655059331,16.3237144889929
0.00533813595845701,16.3291458616463
0.00567921338860151,16.3344627613139
0.00603584777344058,16.339700229427
0.00640999166334028,16.3448427502603
0.00680581465717664,16.3499034910496
0.00722749146556762,16.3548900683427
0.00767963721071928,16.3598101842499
0.00816715043757887,16.3646687194368
0.00869533888898428,16.369468390009
0.00927000829820877,16.3742098766749
0.00989759102407406,16.3788923552235
0.0105852898858071,16.3835141331602
0.0113587029431292,16.3881733547775
0.0122317107024489,16.3928596788412
0.0132263511454182,16.3975903264382
0.0143733852165026,16.4023975125419
0.0157234244320817,16.4073579520496
0.0173820721986644,16.4126754733331
0.0197253677488382,16.4191843636961
0.0213798667304643,16.4233352771116
0.0231068201076708,16.4274861905272
0.0245966102302816,16.4310876069547
0.0258476911298614,16.4343028903008
0.026892109631632,16.4373457495745
0.027706203957355,16.4402857055063
0.0282530511402611,16.4431091001366
0.0285294983215141,16.4459376290302
0.0285016394370906,16.448933036641
0.0280460278713234,16.4524610930511
0.027249786203303,16.4557301102428
0.0261527366404433,16.4589991274345
0.0250620964962779,16.4617167676858
0.0239869400551567,16.4641450579919
0.0229126271508029,16.4664347743927
0.0218380329129154,16.4686499636142
0.0207660407817398,16.4708247246618
0.0197003144399698,16.4729808668005
0.0186445073560602,16.4751339776975
0.0176020550999111,16.4772960791686
0.0165761203325648,16.4794770100508
0.0155695872306161,16.4816852267467
0.014585068023581,16.4839283151234
0.0136249141924063,16.4862133395758
0.0126912304534052,16.4885470931247
0.0117858804010395,16.4909363119507
0.0109105001976536,16.4933878384332
0.010066507464357,16.4959087788833
0.00925510941293472,16.4985066597019
0.00847731308836339,16.5011895832151
0.00771401229709531,16.5040440699275
0.00696701832051337,16.507096931786
0.00624012505252242,16.5103723022817
0.0055373084242614,16.5138981631343
0.00486271813727553,16.5177069384833
0.00422060896549288,16.521836414776
0.00361522869756241,16.5263310593565
0.00305064248022011,16.5312441846207
0.00253047307867833,16.5366419753158
0.00205763837122308,16.5426103730293
0.00163426072487446,16.5492648184406
0.00127409969361228,16.5564814316245
0.000987270131662503,16.564296482184
0.000787810487566162,16.5719948605135
0.000629888075199024,16.5802928623297
0.00050294653791241,16.5895063251358
0.000408043825270389,16.5995063251358
0.000346069903710739,16.6095063251358
0.000307966756904456,16.6195063251358
0.000287170202667443,16.6295063251358
0.000279089117292104,16.6395063251358
0.000280690158634362,16.6495063251358
0.000290115202793,16.6595063251358
0.000306377842438707,16.6695063251358
0.000329166516480874,16.6795063251358
0.000358750414583325,16.6895063251358
0.000395976085494967,16.6995063251358
0.000442353825299564,16.7095063251358
0.000500067945051033,16.7194767035071
0.000566734350896716,16.7286891312325
0.000643094114015023,16.7371766720353
0.000730311150388392,16.7449976137787
0.000829806235822751,16.7522065470712
0.000943230566674913,16.7588537500914
0.00107247221862438,16.7649856058411
0.00121967943899331,16.7706449815751
0.00138729285785881,16.7758715481749
0.00157808486830989,16.7807020580999
0.00179520614356844,16.7851706010009
0.00204224330761159,16.7893088442962
0.00232328917584412,16.7931462608941
0.00264303133188961,16.7967103515659
0.0030068663064756,16.8000268759129
0.00342104970062749,16.8031201029486
0.00389290114316289,16.8060130938669
0.00443109234733344,16.8087280463349
0.00504607104248634,16.8112867494743
0.00574899281286357,16.813705825891
0.00652929510282672,16.8159408112707
0.00739905161074751,16.8180324812246
0.00837764545827338,16.8200245278823
0.0094983569009373,16.8219695555634
0.0108307704044347,16.8239525188725
0.0126351981600578,16.8262549706525
0.0141463070048006,16.8279634475228
0.0157731876422888,16.8296719243931
0.017224614116305,16.8311457923437
0.0184968477292254,16.8324502494899
0.0196313752884167,16.8336749151184
0.0206342565594732,16.8348709110016
0.0214927259993946,16.8360786322577
0.0221782936922484,16.8373442000586
0.0226368652829295,16.8387423941534
0.0227378028802319,16.8404648022026
0.022279205469213,16.842351662894
0.0213123887260076,16.8442385235854
0.0202289708138512,16.8457862152257
0.0190355292608012,16.8472519932427
0.0177274936080346,16.8487303939858
0.0163132600335259,16.8502647228495
0.0153735124396976,16.8512735304329
0.0144475453410069,16.8522823380163
0.0135906281066387,16.8532570239046
0.0113967209484964,16.8559866834316
0.00945692246027516,16.8587709228783
0.0078971066411005,16.8613664110865
0.00659279392953597,16.8638768427301
0.00544822508954009,16.8664303508685
0.00443840825834617,16.8690556841309
0.00354546362178828,16.8717763673572
0.00275473837147148,16.8746162098038
0.0021122963906363,16.8773308046448
0.00159101904683327,16.8798934933177
0.00115854968407198,16.882338533252
0.000791540048719296,16.8847007233236
0.000473179899606264,16.8870132766428
0.000190865324722523,16.889310623368
-6.66263806550351e-05,16.8916439924021
-0.000314034358293868,16.8941325585847
-0.000594489262624567,16.8972844213327
-0.00074827319974013,16.8991757843981
-0.00089306619881776,16.9010671474634
-0.00101786725492613,16.902784678331
-0.00113056095532483,16.9044047122797
-0.00123954566506702,16.9060325467544
-0.00135188678954034,16.9077712198458
-0.00147814822381891,16.9097951113289
-0.00165301366936127,16.9127106279956
-0.00186088037072067,16.9163300042294
-0.00202884919756593,16.9193699535461
-0.0021879518714453,16.9223492159738
-0.00236285352756115,16.9257628850097
-0.00257061529644112,16.9301115455962
-0.00278380115257127,16.9353147712178
-0.00292173116355899,16.9401611422086
-0.00296431069216563,16.9441804842227
-0.00292206965876075,16.9478164103164
-0.0027840117068783,16.9513398165734
-0.00253380367054261,16.9547631124162
-0.00218401301745628,16.9578770381123
-0.00173608648680274,16.9607570540672
-0.00118829215085644,16.9634564584689
-0.000530996082862419,16.9660348269346
0.000262165151009984,16.9685765272899
0.00125074522360454,16.9712116764033
0.00257020318589186,16.974174821645
0.00417446475333301,16.9772756384865
0.0059591646828781,16.9803285105869
0.00732556485181138,16.9824515703469
0.00881922263089057,16.9845746301069
0.0102744922872953,16.9864442290327
0.0117910267088233,16.988189792716
0.0133785661711456,16.9898112731179
0.015108482824378,16.9913664879771
0.0170067060298925,16.9928574518936
0.0191109208122725,16.9942936171787
0.0214504016003323,16.9956756806001
0.0240617781420425,16.9970075822301
0.0269743143655018,16.9982881888629
0.0302324380319325,16.9995222597812
0.0338799282874714,17.0007119948116
0.0379653844973485,17.0018595925303
0.0425484680721204,17.0029685070396
0.0476992508927532,17.0040423413966
0.0534991336170733,17.005084556321
0.0600451431535002,17.0060988138936
0.0674531637415222,17.0070888875579
0.0758667160097442,17.0080591511511
0.0854627435822301,17.0090143185426
0.0964646163517784,17.0099597780729
0.109161282075804,17.0109019544721
0.123937774535807,17.0118488612277
0.141329889070758,17.0128111927732
0.162053206355501,17.0138010464848
0.186050290711564,17.0147934192474
0.213951746361341,17.0157987940455
0.246605138855771,17.016832069703
0.285262361424675,17.0179174960778
0.330108216154078,17.0190549568663
0.370800498268812,17.0200232450971
0.404744010211348,17.020817735309
0.434131801045573,17.0215233875397
0.459816559433254,17.0221836757955
0.481916805399359,17.0228249722625
0.500127082292942,17.023469188414
0.513690000461208,17.0241404011638
0.521070944306438,17.0248735216727
0.519270033118379,17.0256826685363
0.506192344424497,17.0265098288568
0.480541146276294,17.0273710717003
0.440627437819525,17.0282781937494
0.38456940363401,17.0292398775379
0.340543168981009,17.0298737194797
0.291795747601225,17.0305075614214
0.248314535606414,17.0310386987953
0.211000975502257,17.0314831474315
0.178192555457219,17.03187446409
0.148787809845393,17.0322327799555
0.122121110575417,17.0325704530596
0.0977360385745391,17.0328963783483
0.0752627828762681,17.0332183763263
0.054321917310564,17.0335454327563
0.0343405730637699,17.0338926324292
0.0136061023425389,17.0343072203039
0.00217655520302803,17.0345706224001
-0.00518757877901479,17.0347586925209
-0.0119170873076202,17.0349467626417
-0.0177805152631933,17.0351264219635
-0.0237725925592846,17.0353292335406
-0.029615908129594,17.0355511057692
-0.0351263349309538,17.0357893069876
-0.0402009289890624,17.0360427232564
-0.0447851566835617,17.0363112954286
-0.0488533912049587,17.0365956958024
-0.0526148116940018,17.0369190640379
-0.0555529959984751,17.0372381681268
-0.057972531349193,17.037577953341
-0.0598896922434891,17.0379415642905
-0.0613187337047096,17.0383324784942
-0.0622735890760277,17.0387549821372
-0.06276638284432,17.03921440597
-0.0628058230955076,17.0397174712062
-0.0623952361265692,17.0402728219048
-0.0615277278936485,17.0408931351221
-0.060182263086147,17.0415950448847
-0.058315381592837,17.0424029013839
-0.0558384467368732,17.0433570971813
-0.0525415375805118,17.0445412940308
-0.0484858442857423,17.0459495846255
-0.044549548646092,17.0473089502251
-0.0407878777436276,17.0486260854144
-0.0372282638748365,17.0499039260906
-0.0338846495394566,17.0511436525037
-0.0307633255103717,17.0523455541061
-0.0278655092147619,17.0535094835276
-0.0251887015778692,17.0546350954089
-0.0227275518322307,17.0557219703693
-0.0204745084918114,17.0567696750895
-0.018420363815644,17.0577777848992
-0.0165547317740753,17.0587458829692
-0.0148664721080005,17.0596735438379
-0.0132944253696984,17.0605901358869
-0.0117813227068007,17.0615301409965
-0.0103317909085569,17.0624950559485
-0.00894979021923758,17.0634869645779
-0.00763909107972158,17.0645083092216
-0.00640322102347468,17.0655619816709
-0.00524541338012566,17.0666514397217
-0.00416855376677926,17.0677808638497
-0.0031751243848863,17.0689553726698
-0.00226714574303288,17.0701813272878
-0.00144611480872623,17.0714667751095
-0.000712937528386095,17.0728221222697
-6.78516812499606e-05,17.0742612015994
0.000489667997071008,17.0758030728709
0.000949886950655967,17.0774299868892
0.00130923964947056,17.0791026557436
0.00158414164677427,17.0808393779846
0.00178918131211262,17.0826611166131
0.00193803026823243,17.0845958228568
0.00204384754115871,17.0866830004551
0.00211987897113851,17.0889831958967
0.00218058643155244,17.0916010134161
0.00224476077734237,17.0947589713088
0.0023320770387564,17.0984942925737
0.00245008328079411,17.1024650682026
0.00259114654169582,17.1063666338116
0.00274638158319403,17.1101469460694
0.00291245944828868,17.11389170035
0.00308736388291326,17.117657536388
0.00327041518423184,17.1214861536266
0.00346211692312222,17.1254120786419
0.0036639464294931,17.1294665448786
0.00387816397496929,17.1336798031617
0.00410766795366403,17.1380827006082
0.00435593446730417,17.1427079747237
0.0046271123105201,17.1475917101898
0.00492633700220756,17.152774660715
0.00525829999969185,17.1582697540629
0.00559638062710162,17.1635798863896
0.00595145691655386,17.1688473129176
0.00632247255459315,17.1740108000599
0.00671411346273364,17.1790926707221
0.00713018780599608,17.1840964638471
0.00757536706014321,17.1890316096756
0.00805450247500569,17.1939035045495
0.00857287201835257,17.1987157732889
0.00913620791404679,17.2034697306442
0.00975083016410245,17.2081649995096
0.0104237798815076,17.2128000796982
0.0111760577653051,17.2174499619645
0.0120244297601228,17.2221289666991
0.0129887766306599,17.2268473578538
0.0140972957854566,17.2316323935781
0.0153944301359532,17.2365466904863
0.0169667575958717,17.2417499004047
0.0190721447092485,17.247800422663
0.020841184506467,17.252351232232
0.0227197459753392,17.256902041801
0.0242861474820487,17.2606659001228
0.0255871660638115,17.2639474622354
0.0266772728590843,17.2670151843394
0.0275518803616221,17.2699980627028
0.0281570091421046,17.2728374234811
0.0284942294480053,17.2756531992137
0.0285386766163165,17.2785929085878
0.0281992718275774,17.2819424280293
0.0271874907562883,17.2862889872907
0.0262900286777285,17.2889755422124
0.0252313958435987,17.2916620971341
0.024158670313554,17.2941143762387
0.0230847680033698,17.2964198678767
0.0220101372631026,17.298643892548
0.0209375569694922,17.3008231414873
0.0198706593861084,17.3029807953957
0.0188131226706802,17.305133193598
0.0177684238138319,17.3072928029096
0.0167397713693424,17.3094697350587
0.0157300950540633,17.3116726144778
0.0147420504481047,17.3139091263302
0.0137780319082019,17.3161863804527
0.0128401829817366,17.3185111808142
0.0119304055895429,17.3208902380897
0.011050374487436,17.3233303327236
0.0102015398127795,17.3258384905656
0.00938514387621723,17.3284221133667
0.0086022237867397,17.331089153213
0.00783666726212775,17.3339134574153
0.00708678748354017,17.3369326955468
0.00635639147165357,17.3401702783166
0.00564942528521271,17.3436535265402
0.00497001478596329,17.3474140832448
0.00432240456104742,17.3514887810899
0.00371085436852521,17.3559208715309
0.00313946993822631,17.3607620466913
0.00261197567521454,17.3660758994033
0.00213140803433417,17.3719445994477
0.00170001135970312,17.3784780148849
0.00132935003866368,17.3856064909255
0.00102776374168387,17.3933158871762
0.000827143814292019,17.4005418397629
0.000659550843299137,17.4087185332739
0.000522827835986371,17.4179145518214
0.0004198717089928,17.4279145518214
0.000351941375494322,17.4379145518214
0.000309384058648665,17.4479145518214
0.000285206183763911,17.4579145518214
0.000274463949639968,17.4679145518214
0.000273838787874958,17.4779145518214
0.000281249058360456,17.4879145518214
0.000295529469571625,17.4979145518214
0.00031621135473438,17.5079145518214
0.000343405101901056,17.5179145518214
0.000377772487758646,17.5279145518214
0.000420583466080329,17.5379145518214
0.00047387065387027,17.5479145518214
0.000537172595728263,17.5574297911785
0.000609885599897732,17.5662053986095
0.000693020031013536,17.5742904581544
0.000787909968777282,17.5817412263383
0.000896126877343533,17.5886098461602
0.0010194751957333,17.5949443807197
0.00116001064248017,17.6007892112363
0.00132006942199554,17.606185382642
0.00150230537565826,17.6111708982146
0.00170973364140572,17.6157809861892
0.00194578471838252,17.6200483485194
0.00221436962735967,17.6240033965942
0.0025199625292834,17.6276744769914
0.00286770480082011,17.6310881010867
0.0032635422826605,17.6342691910708
0.00371440993965638,17.6372413535488
0.00422848830792186,17.6400272033786
0.00481557634470501,17.6426487808553
0.00548765849418059,17.6451281343169
0.0062401115713812,17.6474331279044
0.00707758182829054,17.6495807012876
0.0080167407433673,17.6516136937327
0.00908535217331109,17.6535811864881
0.0103374536199462,17.6555544914685
0.011925569729716,17.6577036718313
0.013535654884036,17.6596155720446
0.0153034922515452,17.6615274722579
0.0168143464045804,17.6630858481342
0.0181134016522771,17.6644261597598
0.019268721009695,17.6656694610788
0.020293534261945,17.6668740018138
0.0211785732386051,17.6680811272216
0.021899244931065,17.6693343954229
0.0224092223538487,17.6706988802412
0.0226063347502768,17.6723212489005
0.0220736011452925,17.6747839802917
0.0212843232479553,17.6763397245015
0.0202303955666624,17.6778954687113
0.0190583002879493,17.6793664377666
0.0177706130464145,17.680843377728
0.0163765685253223,17.6823706502498
0.0152156693699463,17.6836251086318
0.0140796916439627,17.6848795670138
0.0130335715313014,17.6861008039122
0.0108717248694863,17.6888860924302
0.00903537755864687,17.6916213628897
0.00755394355778494,17.6941763480883
0.00629101858009766,17.6966950537561
0.00518045770437973,17.6992648899737
0.00419972472513156,17.701912406257
0.00333189237827164,17.7046610321829
0.00258197087170442,17.7074575613963
0.00197967459367763,17.71008748267
0.00148701054197832,17.7125758373083
0.00107505897240004,17.714956192132
0.000722922665996039,17.717261805776
0.000415269571179253,17.7195257712109
0.000140021802269179,17.721786803589
-0.000114626181289052,17.7241101229107
-0.000367090360309267,17.7266652897823
-0.000577153746777138,17.7290046847784
-0.000770569288331076,17.7313440797745
-0.000916310977259774,17.7332295240447
-0.0010375840358302,17.7348799740865
-0.00114954614424166,17.7364690935176
-0.00126005527960822,17.7380978794208
-0.00137672192863551,17.7398801383461
-0.00151366616292041,17.7420500143159
-0.00175180454569251,17.7460050566615
-0.00196540101540812,17.7497320853567
-0.00213933024876765,17.7528902278182
-0.00231508873125593,17.7562107561474
-0.00251927740537797,17.7602996770285
-0.00275093767267159,17.7655339250956
-0.00292294668116063,17.7707321383613
-0.00299064050206586,17.774909793031
-0.00297285280443815,17.7786060143005
-0.00286413048378652,17.782136464631
-0.0026424590820579,17.7856440462351
-0.00232116718155044,17.7888145164658
-0.00190244487112999,17.7917342420561
-0.00138606512397175,17.7944572652846
-0.000764990545396719,17.7970415429178
-1.7561322797491e-05,17.7995666720669
0.000910575221452206,17.8021631346677
0.00215482826604725,17.8050823441794
0.00370881189432863,17.8082038142099
0.00543182424964727,17.8112643252591
0.00680945278936482,17.8134957665325
0.00831007751540357,17.8157272078059
0.00979045650313222,17.8177231478437
0.0112281978667703,17.8194653906376
0.0127667342302382,17.8211268632422
0.0144129534329296,17.8226954489253
0.0162284242712061,17.8242099574547
0.0182319061540909,17.8256638942133
0.0204648122290573,17.8270674241681
0.0229519304956533,17.8284174402507
0.0257306523679053,17.8297177265813
0.0288385737882431,17.8309702916243
0.0323140458199771,17.8321762286636
0.0362060631368035,17.8333389555616
0.0405708303888256,17.834461858542
0.0454724170036166,17.83554810686
0.0509862559917115,17.8366010816295
0.057200264806863,17.8376240940393
0.0642232449366155,17.8386212149412
0.0721852599617657,17.8395964810536
0.081246058913915,17.8405543016653
0.0916052507201668,17.8414996376422
0.103517011302123,17.8424382312945
0.117315077399923,17.8433771321436
0.133451229882354,17.8443253229749
0.152567071578519,17.8452951009184
0.175032410723938,17.8462801865683
0.201085429429071,17.8472720537179
0.231448052042264,17.8482826612873
0.267120317315361,17.8493298456498
0.309707494671889,17.8504461721415
0.345246669865086,17.8513060850173
0.382312800420916,17.8521659978932
0.41522454841125,17.8529249207833
0.443974176241296,17.853610962525
0.46907921146202,17.8542588940765
0.490559440154645,17.8548934080377
0.508021724727444,17.8555365573871
0.520569642655817,17.8562143547369
0.526348152388988,17.8569679062835
0.522170304733645,17.8577757388301
0.506387533521469,17.8586066331498
0.47757983632791,17.8594761361817
0.433949179339542,17.8603953003263
0.373541504138519,17.861372783114
0.330238310620391,17.8619700835222
0.282998286394839,17.8625673839303
0.240819973410255,17.8630738548906
0.204376972182811,17.8635036086816
0.172191296154089,17.8638856254137
0.143273262298044,17.8642377641298
0.117006492614827,17.8645713892466
0.0929544553664629,17.8648950112195
0.0707484475981152,17.8652165073683
0.0499835484568967,17.8655456192688
0.0299719276658326,17.8659006011516
0.00804339760330321,17.8663547247362
-0.000381878123498005,17.8665558923687
-0.00805295157478198,17.8667570600012
-0.0144306638382748,17.8669408370444
-0.0204167580614295,17.8671305880994
-0.0263931376748284,17.8673412857176
-0.0321282818499442,17.8675695577838
-0.0374779311385627,17.8678134751866
-0.0423628211609691,17.8680724353973
-0.0467424784921489,17.8683467216434
-0.0505979632004612,17.8686372624191
-0.0541507921752595,17.8689703296118
-0.0568736951121651,17.8692973084093
-0.0590822073901671,17.8696460549872
-0.0607934328508778,17.8700200076357
-0.0620217738089053,17.8704229739951
-0.0627806423487077,17.8708596615721
-0.0630809529008351,17.8713359584334
-0.0629293868568784,17.8718593504368
-0.0623256536292084,17.8724399324089
-0.0612569963880527,17.8730921325338
-0.0596940398440725,17.8738353235921
-0.0575773677775026,17.8746994559303
-0.0547804497069006,17.8757383106231
-0.0509521782096197,17.8770855483126
-0.046931608500289,17.878471336354
-0.0430576128922245,17.8798127286101
-0.0393722644108723,17.8811136914184
-0.0358961021109556,17.8823761801437
-0.0326393714710781,17.8836008721988
-0.0296060363912561,17.8847878005926
-0.0267956702293983,17.8859366919267
-0.0242045366730211,17.8870471439329
-0.0218263358461772,17.8881187158253
-0.0196527982312485,17.8891509690189
-0.0176741965123723,17.890143477924
-0.0158797995361724,17.8910958214914
-0.0142582751131522,17.8920075613675
-0.0127089785577465,17.8929330539726
-0.0112206249199038,17.8938824034142
-0.00979740106635768,17.8948574303281
-0.00844320179273229,17.8958603463622
-0.00716171082842133,17.896893754903
-0.00595634997060529,17.8979607498485
-0.00483022696324382,17.8990650459025
-0.00378608125649627,17.9002111551876
-0.00282622752837833,17.9014046325223
-0.00195249640960585,17.9026524259352
-0.00116617112200283,17.9039633949337
-0.000467917432870212,17.905349109172
0.000142298183565632,17.9068251441068
0.000665312536673787,17.9084133257685
0.00108311535701765,17.9100556566116
0.00140675794960964,17.9117509839244
0.00165169787159273,17.9135178442552
0.00183211137529674,17.9153795477222
0.00196139193251413,17.9173678003943
0.00205261010526612,17.9195287015936
0.00211924204707082,17.9219358078196
0.0021767294942371,17.9247247707963
0.00224774243041183,17.928225533611
0.00234203864757724,17.9320003923176
0.00247468772020225,17.9361750761538
0.00262315178178076,17.9401009926168
0.00278218813223917,17.9438888020798
0.00294937225962187,17.9476335619053
0.00312355446534914,17.9513943245103
0.00330477873139461,17.9552138906052
0.00349408343179905,17.9591273383808
0.00369329924157272,17.9631661134285
0.00390488947133659,17.9673604895015
0.00413184081800579,17.9717411872224
0.00437763719596349,17.976340690155
0.00464637710974144,17.9811946739026
0.00494309820054772,17.9863433703351
0.00527440099529979,17.9918328148884
0.00561215754729422,17.9971393746433
0.00596721354520512,18.0024060066092
0.00633832024483548,18.0075690677028
0.00673011911833599,18.0126505026013
0.00714639664539531,18.0176535818794
0.00759182752676237,18.0225876849235
0.00807128545000163,18.0274583151627
0.00859007235939147,18.0322691712259
0.00915394741905766,18.0370216404714
0.00976925615422477,18.041715384307
0.0104430645314263,18.0463489241847
0.0111968210451846,18.0509996035417
0.0120469886811104,18.055679166952
0.0130136478809463,18.0603985587213
0.0141252070327618,18.065185421553
0.0154266081027355,18.0701035081742
0.0170059017665147,18.0753158978945
0.0191290031545635,18.0813998144534
0.0208868297452119,18.0859122270106
0.0227507537767658,18.0904246395679
0.0243109339401281,18.0941747915358
0.0256082817616777,18.0974511414387
0.0266951203822159,18.1005168471765
0.0275653777179407,18.1034964286147
0.0281663487980707,18.1063344430355
0.0284992786834316,18.109150878195
0.028538712787794,18.1120940891069
0.0281916698306946,18.1154545427066
0.0271731054424127,18.1197967283423
0.0262740836866177,18.1224775033703
0.0252153157711255,18.1251582783984
0.024142622731845,18.1276071776465
0.02306869700728,18.129910859711
0.0219940728595691,18.1321338735892
0.0209215592290765,18.134312582441
0.0198547934368685,18.1364700127929
0.0187974514734804,18.138622420434
0.0177530061846207,18.1407822224484
0.0167246614900924,18.1429594994174
0.0157153425364261,18.1451628557039
0.0147277005096592,18.147399963645
0.0137641254935211,18.1496779254948
0.01282675709928,18.1520035410816
0.0119174933360299,18.1543835203354
0.0110380052377624,18.1568246455189
0.0101897394420417,18.1593339465547
0.00937393476966973,18.1619188321049
0.00859162510817453,18.1645872634299
0.00782632612868208,18.1674146157836
0.00707677352913398,18.1704372504516
0.00634677277489963,18.1736786567746
0.0056402739154085,18.1771662257004
0.0049614062809127,18.1809316852359
0.00431441681501288,18.1850119741049
0.00370356571347742,18.1894504825744
0.00313295626579818,18.1942990971087
0.00260630659789795,18.1996217056251
0.00212664410116447,18.2055009439013
0.0016962059553027,18.2120473917917
0.00132685333208618,18.2191847798409
0.00102704869987221,18.226904817793
0.000821328711878544,18.2344055656927
0.00065846951766436,18.2424917570442
0.000523320122785125,18.2517382214309
0.000422559738718869,18.2617382214309
0.000356506081673113,18.2717382214309
0.0003156490923862,18.2817382214309
0.000293107236629841,18.2917382214309
0.000284037655484002,18.3017382214309
0.000285217925170105,18.3117382214309
0.000294663677632506,18.3217382214309
0.000311316953454896,18.3317382214309
0.000334838739551895,18.3417382214309
0.000365507874334325,18.3517382214309
0.000404216875352781,18.3617382214309
0.000452564812548894,18.3717382214309
0.000512452213551125,18.3816447817214
0.000581632915849293,18.3907929626047
0.000660892245695462,18.3992186920342
0.000751442467731722,18.4069806201904
0.000854759516060834,18.4141335390715
0.000972558082931519,18.4207278747158
0.00110679973175137,18.4268101203139
0.00125971760318707,18.4324232255598
0.00143385045234133,18.4376069235685
0.00163208427553238,18.4423980167922
0.0018577021483602,18.4468306407834
0.00211444611768303,18.450936513335
0.00240659363631945,18.4547451710835
0.00273905432565707,18.4582842033801
0.00311749658674736,18.4615794992203
0.00354851592386074,18.464655520082
0.00403986810090231,18.4675356155839
0.00460080313019685,18.4702424206019
0.00524256726383406,18.472798399191
0.00596920740817453,18.4751965772849
0.00677756962110641,18.4774232589242
0.00768247940095008,18.4795216456128
0.00870839137263069,18.4815401387001
0.00990092448372851,18.4835444793554
0.0113720848274102,18.4856663377206
0.01311047965229,18.4878438465471
0.0145267560386706,18.4894514181851
0.0160208418978141,18.4910589898231
0.0173559650439146,18.4924741732497
0.0185400328110891,18.4937629263023
0.0195940615250717,18.4949932241845
0.0205151617919161,18.496209985759
0.0212848741224465,18.4974544173551
0.0218673837213078,18.4987801242854
0.0221915072786902,18.5002876553073
0.0220389265991881,18.5023203703778
0.0214206878536226,18.5040366415011
0.0204361307403703,18.5057529126244
0.0193369439930065,18.5072691558894
0.0181245415310943,18.508746498926
0.0168039949940921,18.5102497877887
0.0153847318464713,18.5118172356143
0.0149336114869691,18.5123129938165
0.0144848966249936,18.5128087520188
0.013903598777963,18.5134667592443
0.011771022452342,18.5160744938506
0.00976403005467776,18.5188898410818
0.00814565248841941,18.521519544855
0.00680892235787326,18.5240296481331
0.00563667554415189,18.5265767830701
0.00460216635263781,18.5291915574083
0.0036868831977367,18.531897718653
0.00287705512805186,18.5347140889638
0.00222729890276903,18.5373637367234
0.00169721924714772,18.5398683498696
0.00125551010718573,18.5422601853654
0.000879091115592723,18.5445739671676
0.00055054283658164,18.5468482618171
0.00025563755773301,18.5491329528234
-2.01760543778087e-05,18.5515154515769
-0.00030321921760093,18.5542470715877
-0.000504114289654835,18.5563846765327
-0.000689956817542866,18.5585222814777
-0.0008393879074344,18.5603585736698
-0.000966957181884324,18.562011282339
-0.00108574689219813,18.5636211489837
-0.00120372702845432,18.5652871332717
-0.00132940372897796,18.5671336544556
-0.00148030617444214,18.5694447849165
-0.00174739385560056,18.57376704602
-0.0019780480579296,18.5777244205603
-0.00216691662953196,18.5811244238533
-0.00235983205301936,18.5847793392621
-0.00258788659787795,18.5894762899639
-0.00279881430308691,18.5946743626961
-0.00292474542553302,18.5993318963808
-0.00295834983116039,18.6032596403245
-0.00290702884142678,18.6068603238343
-0.00275704225365767,18.6103857684215
-0.00249607309659633,18.6137712497934
-0.00213686996116657,18.6168497668375
-0.00168126458675857,18.6196939179427
-0.00112617775536401,18.6223639892115
-0.000459221628591164,18.6249272354311
0.000351095727657499,18.6274777821645
0.00138765291543505,18.6301944603498
0.00274230138248021,18.6331962416655
0.00434723663472868,18.636283796232
0.00612421461991311,18.6393332090832
0.00742558158356424,18.6413707128915
0.00884400399222686,18.6434082166998
0.0103101927842771,18.6453133310544
0.0117704783784607,18.6470118667838
0.0133479117631537,18.6486404493835
0.0150568814195758,18.6501918934498
0.0169401412103866,18.6516846229062
0.0190295697296377,18.6531226767343
0.0213539381078299,18.6545065264437
0.0239498378199682,18.6558402562766
0.0268458473832113,18.6571225024179
0.0300856135315918,18.6583578897597
0.0337127701182794,18.6595487527861
0.0377771894285133,18.6606977642902
0.0423344702637613,18.661807390208
0.047455483263676,18.6628816960786
0.0532208460633063,18.6639241518166
0.0597265055111474,18.664938403508
0.0670877923012327,18.6659283072314
0.0754449288357811,18.6668980009252
0.0849726944859409,18.6678522096389
0.095890595085996,18.6687962268401
0.108481711613472,18.6697363289765
0.123121946230937,18.6706803068659
0.140330798702298,18.6716384333031
0.160867755631853,18.6726253509796
0.184660646474347,18.6736147831533
0.212307915901323,18.6746158840316
0.244632120022792,18.6756428513268
0.28283013540768,18.6767183673468
0.327566102049862,18.6778533290284
0.369254190520409,18.6788412550319
0.403817968906037,18.6796436201042
0.433647598659704,18.6803515016927
0.459725470083452,18.6810114674341
0.482221991165791,18.6816507963117
0.500866614104384,18.6822915789424
0.51494364103176,18.6829576368243
0.522994132886786,18.683682967406
0.522068105082465,18.6844895407289
0.509912587856369,18.6853132562855
0.485257141072831,18.6861706024555
0.446419055923407,18.6870738450261
0.39149998904871,18.688031683149
0.346741727097578,18.6886827393258
0.29687643818932,18.6893337955026
0.252480514726226,18.6898759661582
0.214550621114323,18.6903264186926
0.181297684786712,18.6907211337188
0.15154465413288,18.6910814246113
0.124591035478159,18.6914201559099
0.0999638532468384,18.6917464304386
0.0772865720779593,18.6920680932233
0.0561827645579757,18.692393920334
0.0361073468338424,18.6927380985606
0.0155546143619466,18.6931419493676
0.00210383607202437,18.693448275465
-0.00525072758999916,18.6936356805733
-0.0119723089032282,18.6938230856816
-0.0178471032851113,18.6940026688851
-0.0238476896222526,18.694205317659
-0.0296972704256549,18.6944269618319
-0.0352124660911938,18.6946648956164
-0.0402907511117822,18.6949180198494
-0.0448778317446482,18.6951862838107
-0.0489482313737595,18.6954703649161
-0.0526464256216405,18.6957870456271
-0.0555964727329994,18.6961053197413
-0.0580280496145538,18.6964443061365
-0.0599565584344444,18.6968070544093
-0.0613962787908068,18.6971970300283
-0.0623611986106491,18.6976185059675
-0.0628635147357155,18.6980767967062
-0.0629120237372734,18.698578602828
-0.062510157302249,18.6991325412771
-0.0616512142945523,18.6997512181887
-0.0603143306144309,18.7004512263225
-0.0584563128348641,18.7012568087387
-0.0559890583049057,18.7022081315162
-0.0527043258633828,18.7033881645511
-0.0486429317262129,18.7047978700864
-0.0446995462573002,18.7061585362308
-0.0409299128130343,18.7074770027086
-0.0373618507088622,18.708756219795
-0.0340095366353609,18.7099973709537
-0.0308794313731971,18.7112007437373
-0.0279728886842015,18.7123661865812
-0.0252875222856426,18.713493349154
-0.022818074027321,18.7145818071817
-0.0205570660744133,18.7156311230652
-0.0184953462158111,18.7166408688374
-0.0166225668931055,18.7176106256417
-0.0149276106457438,18.7185399675032
-0.0133536813590821,18.7194555855687
-0.0118384860143037,18.7203945720207
-0.0103867001743469,18.7213583884251
-0.00900229114584083,18.7223491050781
-0.00768903901579033,18.723369147362
-0.00645048330950476,18.7244213859152
-0.00528987181963235,18.7255092517881
-0.00421010723493103,18.72663689111
-0.00321369160328886,18.7278093775691
-0.00230266828093375,18.7290330121912
-0.00147856042295055,18.7303157598456
-0.000742304042931612,18.7316679094427
-9.41717820581837e-05,18.7331031201714
0.000466320313476504,18.7346401801461
0.000930433219564435,18.7362655477958
0.00129292630157454,18.7379359069629
0.00157032017632014,18.7396695552446
0.00177724031897138,18.7414872243547
0.0019273791334294,18.7434165028671
0.00203389267668044,18.7454962703728
0.00210998491288361,18.7477858799696
0.00216999216035713,18.7503872368775
0.00223231172100625,18.7535145451242
0.00231742938040152,18.7572486151214
0.00243234556198893,18.7612013517075
0.00257080671282775,18.7650976215298
0.00272389125290145,18.7688762110086
0.00288815285530243,18.7726212459413
0.0030614493702215,18.7763887633798
0.00324298926389112,18.7802201889268
0.00343318423045169,18.7841499237836
0.00363343853271415,18.7882091661427
0.00384595329210918,18.7924281892725
0.00407357570744478,18.7968379106291
0.00431973275953368,18.8014711877114
0.00458852139637724,18.8063642840228
0.00488501846809798,18.8115581889273
0.00521416660893276,18.8170710198689
0.00554905690666777,18.8223950359621
0.0059006507493154,18.8276759606944
0.00626782992110976,18.8328513112882
0.00665526659879772,18.8379442044985
0.00706670722601694,18.8429582588314
0.00750675396602618,18.8479031729236
0.00798017028594585,18.8527845118573
0.00849213496903175,18.8576060783068
0.00904826806876367,18.862369338153
0.00965476605511709,18.8670740485376
0.0103185307265323,18.871718779805
0.0110575713428016,18.8763628793631
0.0118905941423691,18.8810377555661
0.0128361226187463,18.8857490874497
0.0139209019296549,18.890521539081
0.0151859965926738,18.8954100990952
0.016708329551025,18.9005520685007
0.0186970630681794,18.9063923068379
0.0205525990759487,18.9112420621944
0.0221295770994988,18.9150988374325
0.0237410458946519,18.9189556126707
0.025125722186554,18.9223629049989
0.0262924171599718,18.9254886763244
0.0272539246495984,18.9285043984431
0.0279595080520007,18.9313832620536
0.0283990795897617,18.9341929348391
0.0285597171009541,18.9370643570366
0.028385011228096,18.940203555501
0.0276324745319021,18.9442842028432
0.026780458536818,18.9471843962809
0.0257163562411409,18.9500845897187
0.0246396833658674,18.9526481301992
0.0235659395891445,18.9550098984742
0.0224913316016011,18.9572648657871
0.0214173559711483,18.9594608948514
0.0203473982631132,18.961626070112
0.019285164521489,18.9637792956996
0.0182342353266163,18.9659345327779
0.0171979417949306,18.9681028192376
0.0161793377471212,18.9702933705229
0.0151811991055623,18.9725142481666
0.0142060351604914,18.9747727916945
0.0132560996849583,18.9770759255721
0.0123334002501661,18.9794303951699
0.0114397127410279,18.9818429441766
0.0105765848001199,18.9843204948627
0.00974535142565059,18.9868702850119
0.00894713921373288,18.9895000356237
0.00817587520399287,18.9922440387698
0.00741854561951654,18.9951739893539
0.00667901064233352,18.9983113423502
0.00596112176547941,19.0016817345405
0.00526893028796985,19.0053147997974
0.00460663758620964,19.0092449482904
0.00397851313257099,19.0135124022229
0.00338875739497587,19.0181647899414
0.00284130027579089,19.0232598362554
0.00233951012979054,19.0288705430198
0.00188598819799288,19.0350932010676
0.00148573179571779,19.0419965709578
0.00123465039049093,19.0473783667129
0.00103543429216277,19.0527601624681
0.000826615382525391,19.0603016431988
0.00066160769980128,19.06840786823
0.000525149060273806,19.0776350881263
0.00042301239928489,19.0876350881263
0.000355871945073948,19.0976350881263
0.000314087163588783,19.1076350881264
0.000290677166486271,19.1176350881264
0.000280727853802418,19.1276350881264
0.000280960872086296,19.1376350881264
0.000289339568150557,19.1476350881264
0.000304748921663479,19.1576350881264
0.00032678102120219,19.1676350881264
0.000355625734460174,19.1776350881264
0.000392054669804511,19.1876350881264
0.000437495481396264,19.1976350881264
0.000494214774448625,19.2076350881264
0.00056020367701497,19.2169384634076
0.00063585850833151,19.2255112332014
0.000722301944087559,19.2334098306496
0.000820934279653755,19.2406894890807
0.00093339017340396,19.2474011409442
0.00106154165555061,19.2535917528285
0.00120752003782998,19.2593047148193
0.00137374738710617,19.2645801701911
0.00156297557971005,19.2694552999739
0.00177833223448354,19.2739645837486
0.00202337799288064,19.2781400445622
0.00230217588441432,19.2820114808439
0.00261937928598753,19.2856066916088
0.0029803446378716,19.2889517095113
0.00339127997519502,19.2920710535399
0.00385944749604879,19.29498801377
0.00439344776109629,19.2977249967552
0.00500363787160821,19.3003039810906
0.00570253876457114,19.3027464064481
0.00647851212536264,19.3050021633772
0.00734350806397852,19.3071124139179
0.00831676701486991,19.3091213322152
0.00943129672249896,19.3110819560061
0.0107560091614018,19.3130796369518
0.0125435004739793,19.3153906528499
0.014031467459932,19.3170956893801
0.0156334211249675,19.3188007259103
0.0170794279047066,19.3202877277265
0.0183468747819502,19.3216023715632
0.0194767423502549,19.3228348346611
0.0204756496625567,19.3240370323155
0.0213312956384857,19.325249545977
0.0220158300661506,19.3265181727624
0.0224765316273205,19.3279162278346
0.0225880672901673,19.3296275854805
0.0221437900306137,19.3315301622738
0.0211861855023759,19.3334327390671
0.0201089012685992,19.3349901764012
0.0189229968131346,19.3364607777784
0.0176236466987696,19.3379416056416
0.0162191727856936,19.3394765385848
0.0152730995664801,19.3404988914605
0.0143407654921649,19.3415212443363
0.0134902806469513,19.3424951501729
0.0113090451182291,19.3452275932515
0.00938799232794522,19.3480033353312
0.00784148798060327,19.3505925791008
0.00654376743025948,19.3531050955351
0.00540436886678539,19.3556620378504
0.00439876954599174,19.358291780776
0.00350927495723823,19.3610178403826
0.00272134433416467,19.3638640917054
0.00208976843209667,19.3665449776487
0.0015757124443627,19.3690778078162
0.00114786978261689,19.3714971098871
0.000783679118999732,19.3738374034716
0.000466621977021575,19.3761334250365
0.000183902541195438,19.3784246450859
-7.65517935842135e-05,19.3807745758665
-0.000332668603299013,19.3833431258455
-0.000552130446851966,19.3857724792108
-0.000713014892679405,19.3876986576299
-0.000864108706498869,19.3896248360489
-0.000991469861400811,19.3913384572382
-0.00110643076806911,19.3929559600753
-0.00121767229355915,19.394584027169
-0.00133243174133288,19.3963264757174
-0.00146166076904638,19.3983615673329
-0.00164251726039304,19.4013301184603
-0.00185050472230197,19.4049022165498
-0.00201895386453481,19.4079130259065
-0.00217965208082459,19.4108881801126
-0.00235665402441956,19.4143076970708
-0.00256709884727401,19.4186728203737
-0.00278200929212826,19.4238756018278
-0.00292094656619728,19.4287111686686
-0.00296454513110753,19.4327252410895
-0.0029234172536216,19.4363591625897
-0.00278662801566168,19.4398825509182
-0.00253767804930289,19.4433086926006
-0.00218934738111574,19.4464232837928
-0.00174358249614819,19.449300034964
-0.00119843812401282,19.4519955125167
-0.000544092466349906,19.4545707117052
0.000244986431672421,19.4571076929133
0.00123662104805533,19.4597589680635
0.00255359798764394,19.4627255904382
0.00415062530979084,19.4658255022346
0.00592483284189816,19.468878143346
0.0072860652481129,19.471008051994
0.0087731027314751,19.473137960642
0.0102179410474525,19.4750093282735
0.0117225672854678,19.4767559569226
0.0132987175271493,19.4783798528317
0.0150161683407579,19.4799374226625
0.0169016278188586,19.4814313467478
0.0189916860055038,19.4828702661149
0.021316029483203,19.4842552326396
0.0239106855891245,19.4855899047031
0.0268045984565961,19.4868730823901
0.0300418776128163,19.4881095411727
0.0336658760079027,19.4893014571605
0.0377246045167607,19.4904509869778
0.0422773745574977,19.4915616454685
0.0473934688412193,19.4926370025649
0.0531534290022105,19.493680509991
0.059653198499353,19.4946958166145
0.0670072397494917,19.4956866718808
0.0753572572578868,19.4966574258219
0.0848776351157724,19.497612743145
0.0957881730577919,19.4985579437008
0.108372589440753,19.4994993477028
0.123007848133219,19.5004448017726
0.14021645333162,19.5014047200988
0.160762597719078,19.5023939103665
0.184548238260913,19.5033849304344
0.212192138747129,19.5043879850249
0.244522196770541,19.5054174941007
0.282747659534899,19.5064965811699
0.327380732202741,19.5076325960028
0.368771397845792,19.5086176090483
0.403162354542734,19.5094199782212
0.432870506868237,19.5101289611101
0.458841323886063,19.5107903660402
0.481232605551302,19.5114312656998
0.499767436526896,19.5120736820867
0.513725069229266,19.5127413900364
0.521641727080861,19.5134682745545
0.520573096966318,19.5142761437019
0.508285154799364,19.5151010340991
0.483507891491471,19.5159593032659
0.444566551141339,19.5168630886801
0.389577001060402,19.5178210981887
0.345067951877405,19.5184684918244
0.295535507525417,19.5191158854602
0.251403549470962,19.519655820753
0.213653209616877,19.5201051660088
0.180530962472225,19.5204993438205
0.150880728087987,19.5208593974933
0.124011961371466,19.5211980772917
0.0994567275502041,19.5215244383198
0.0768410718184615,19.521846315307
0.0557892054293245,19.5221725158272
0.0357527876640159,19.5225173704183
0.0151970393711254,19.5229231105602
0.00216613477857709,19.5232208228846
-0.00519547846406941,19.523408632343
-0.0119230938550985,19.5235964418013
-0.0177897575338389,19.5237759961557
-0.0237850584267603,19.5239786875368
-0.02963143626777,19.5242004259639
-0.0351447489448122,19.5244384837091
-0.0402220343871705,19.5246917487336
-0.0448087458212054,19.5249601626719
-0.0488792491866266,19.5252443979107
-0.0526149278373909,19.5255648499025
-0.0555595805251705,19.5258835591823
-0.0579856528731436,19.5262229561296
-0.0599090360105279,19.5265861424633
-0.0613439915983378,19.5269765882312
-0.0623044774923212,19.527398571014
-0.0628026554423857,19.52785741069
-0.0628472837406959,19.5283598142763
-0.0624417542574862,19.5289144065456
-0.0615792984792063,19.5295338177586
-0.0602390105822264,19.5302346476971
-0.0583776506267257,19.5310411637873
-0.055907048173932,19.531993578635
-0.0526187644385372,19.5331749899538
-0.0485605718502165,19.5345840333798
-0.0446210180203472,19.5359440532934
-0.0408556229786725,19.5372618381118
-0.0372920328171873,19.5385403383242
-0.0339443139866037,19.5397807399927
-0.0308188435212598,19.5409833341612
-0.0279169058055151,19.5421479729807
-0.0252360560127924,19.5432743096875
-0.0227709873291655,19.5443619232048
-0.0205141829238619,19.5454103786048
-0.0184564610346955,19.5464192499432
-0.0165874535369406,19.5473881196291
-0.0148960307261313,19.5483165620917
-0.0133230533450469,19.5492327036597
-0.0118089217983944,19.5501722374313
-0.0103582854709506,19.5511366438732
-0.0089751078492627,19.5521280005478
-0.00766316379235491,19.5531487419303
-0.00642598631552071,19.5542017499967
-0.00526681534726547,19.5552904701265
-0.00418854428019599,19.5564190668433
-0.00319366433731489,19.5575926378874
-0.00228420638949451,19.5588175164385
-0.00146167924751207,19.5601017115221
-0.000727002408464398,19.5614555747366
-8.0429296022085e-05,19.5628928580827
0.00047854691356833,19.5644324947827
0.000940650464992874,19.5660586899951
0.00130153922252336,19.5677302856928
0.0015776779933729,19.569465579451
0.00178367310726778,19.5712854265832
0.00193320675686923,19.5732176092775
0.00203943783780457,19.5753013400485
0.00211559456467357,19.5775966077262
0.00217608339301731,19.5802067522373
0.00223951723263435,19.5833503780461
0.00232595559843471,19.5870850512528
0.00244267067710633,19.5910473874086
0.0025828776475987,19.5949519747135
0.00273735946254689,19.5987336170594
0.00290274420910278,19.6024785283949
0.00307697712990488,19.6062437180516
0.00325934318241617,19.6100710641773
0.0034503150144192,19.6139951807303
0.00365134291270672,19.6180473419794
0.00386466244375625,19.6222578078319
0.00409314777809476,19.6266574141484
0.00434024813563672,19.6312788675167
0.00461007805788152,19.6361582009722
0.00490772503103624,19.6413361032986
0.00523873053277318,19.6468404019326
0.00557549410202777,19.6521549278054
0.0059292331535341,19.657428599344
0.00629871385880193,19.6625973591289
0.00668863980371032,19.6676842421023
0.00710277624348732,19.6726925809069
0.00754577176916446,19.6776319817681
0.00802244360848348,19.6825079258181
0.0085380326867034,19.6873241470674
0.00909822763727642,19.6920820481136
0.00970929890567424,19.6967813238443
0.0103782299481859,19.7014205099884
0.0111247233277215,19.7060678663554
0.0119663815424136,19.710745029978
0.0129224930419648,19.715460285009
0.0140206072415445,19.7202397105264
0.0153036495123814,19.7251424873382
0.0168537950635899,19.730318068249
0.0189058767222664,19.7362711417002
0.0207108338419361,19.7409466583754
0.022636370415429,19.7456221750506
0.0242215520777536,19.7494277433283
0.0255331139689404,19.7527245629738
0.0266324444267354,19.755798206016
0.0275193050553526,19.7587905830663
0.0281360955866266,19.7616339041508
0.0284853039601235,19.7644480063177
0.0285436934466667,19.7673781817265
0.0282252827590518,19.7706980861726
0.0272323594916689,19.7750573574262
0.0263391802044357,19.777760390705
0.0252807977814478,19.7804634239839
0.0242079298642611,19.7829252168743
0.0231340715439915,19.7852357750699
0.0220594156405333,19.7874626289279
0.0209866529329106,19.7896433973622
0.0199194001635133,19.7918016940772
0.0188613408851662,19.7939540922251
0.0178159631807036,19.7961131978958
0.0167864882495325,19.7982892101468
0.0157758582505714,19.8004908102419
0.0147867408045167,19.8027257201733
0.013821542039868,19.8050010722705
0.0128824162162387,19.8073236842165
0.0119712761411843,19.8097002710016
0.0110898066257923,19.8121376118687
0.0102394675623734,19.8146427254452
0.00942151078457548,19.817223000394
0.00863698237413713,19.8198863707678
0.00787082285589639,19.8227024120424
0.00712016137214319,19.8257124624088
0.00638881110926056,19.828939727688
0.0056807090660731,19.8324113537128
0.00499997388913041,19.8361587767185
0.0043508465156352,19.840218579399
0.00373758922182236,19.8446336964071
0.00316431940189941,19.8494553899177
0.00263478561844728,19.8547466143392
0.00215205950589473,19.8605885519978
0.0017184207036677,19.8670896339263
0.00134483296090846,19.8741943798245
0.00104019757505016,19.8818752865624
0.000843087384543934,19.8888483294662
0.000670564755045742,19.8970811399978
0.000532006890694914,19.9062027408599
0.000426561008528019,19.9162027408599
0.00035690000428701,19.9262027408599
0.000313159847780475,19.9362027408599
0.000288196225874256,19.9462027408599
0.00027695223088155,19.9562027408599
0.000276027269391823,19.9662027408599
0.000283283707188062,19.9762027408599
0.000297520430715225,19.9862027408599
0.000311356933955797,19.99310137043
0.000328155330803429,20
