ecg,time
0.000162425667485277,15.0066434325948
0.000175338837794569,15.0166434325948
0.000189809216567976,15.0266434325948
0.000206106154747412,15.0366434325948
0.000224561573325742,15.0466434325948
0.000245588668904694,15.0566434325948
0.000269707619576285,15.0666434325948
0.000297581505116432,15.0766434325948
0.000330067439642596,15.0866434325948
0.000368290883754549,15.0966434325948
0.000411720667208472,15.1062214087655
0.000459115662262539,15.1150289930338
0.00051054009588229,15.1231168874555
0.000566146094603213,15.1305466456209
0.000626097042403865,15.13737503823
0.000690548642704018,15.1436539297331
0.000759645802810725,15.1494310218762
0.000833517721750872,15.1547500095875
0.00091228219740504,15.1596508938078
0.000996046881313893,15.1641706031001
0.001084914377918,15.1683429545946
0.00117898491376939,15.1721992050243
0.00127836544417473,15.1757680950111
0.00138317998667125,15.1790762495587
0.00149357744073568,15.1821483005535
0.00160975697659852,15.1850072190604
0.00173198510528271,15.1876745048023
0.00186063083538838,15.1901705126727
0.00199621610380928,15.1925147707216
0.00213948462352845,15.1947264145907
0.00229151489182567,15.1968248153141
0.00245391422562045,15.198830537857
0.00262916989098033,15.2007670621532
0.00282136633245946,15.2026642312657
0.00303790988937661,15.2045665204612
0.0032948659391372,15.206558894483
0.00364483310076341,15.2089037105222
0.00394158765963453,15.2106270533587
0.00427862336062949,15.2123503961951
0.00461055973711971,15.2138501024985
0.00495184377379349,15.215225018274
0.00532847257885903,15.2165804924164
0.0057722260715396,15.2179989946665
0.00634295489574267,15.2195953983502
0.00712757994905852,15.2214666733892
0.00799296783947832,15.2232051300343
0.00894492355586699,15.2248270621052
0.00999800573828567,15.2263592978329
0.0111744210926287,15.2278302609319
0.012523686084483,15.2292872481157
0.0141840441640821,15.2308368729016
0.0164634366060051,15.2326657473508
0.0183634916168354,15.2340165670253
0.0204140078189778,15.2353673866997
0.0223318882958527,15.2365813888071
0.0240285047547188,15.2376562527447
0.0255601194590766,15.2386663850118
0.0269408262596823,15.2396564246452
0.0281601780180375,15.2406620793635
0.029189179853738,15.24172535753
0.0299703389432633,15.2429174008604
0.0303589419366928,15.2444360697277
0.0300619992917671,15.2460598932525
0.0291549373205352,15.2476837167773
0.0280507213301706,15.2490388780128
0.0267757000508447,15.2503540867657
0.0253317198801335,15.2517112625087
0.0237293439042561,15.2531530270075
0.0219764779972067,15.2547206763208
0.0207191314090041,15.255866841135
0.0195247170215539,15.2570130059491
0.0169464465761669,15.2597714521125
0.0144450956550223,15.2630111847228
0.0126761374369488,15.2658993460922
0.0114319353862564,15.2685131609095
0.0105579101184965,15.2709783129207
0.00997495599755489,15.2734180135408
0.00968903408493368,15.2756698097794
0.00964904452789091,15.2777853937651
0.00983041365875965,15.2798201517114
0.0102358428195989,15.2818427840796
0.0109152847160762,15.283972949336
0.0120292946727173,15.2864393296694
0.0136444565567958,15.289138749323
0.015140167885724,15.2911771811288
0.0168977406161356,15.2932156129346
0.0186533156858487,15.294961363541
0.0204608333243539,15.2965157299878
0.0224021675774007,15.2979612710433
0.0245329306996432,15.299332024979
0.0268987861699055,15.3006433063947
0.0295421954737953,15.3019026771607
0.0325056396099336,15.3031143885111
0.0358354853467657,15.3042819489258
0.0395795362359683,15.3054074360889
0.0437925312726397,15.3064934089672
0.0485364016116301,15.3075424561826
0.0538825920966938,15.3085573401933
0.0599142291907994,15.3095409582722
0.0667289500434425,15.3104963429439
0.0744424570086901,15.3114266687778
0.0831930836885616,15.3123352724901
0.0931477959276264,15.313225692236
0.104510222783725,15.3141017293333
0.117531549541492,15.3149675345268
0.132525723512563,15.3158277365686
0.149891470894536,15.3166876435607
0.170146165261759,15.317553593093
0.193985513588669,15.3184337247238
0.222128407854495,15.3193315642003
0.254667122152639,15.3202318605644
0.292421832806696,15.3211441452701
0.33658526162179,15.32208559551
0.389394869707701,15.3230962642435
0.434479359184154,15.3239054796676
0.470968920950645,15.3245537443406
0.502589386741572,15.325134820049
0.530457845512172,15.3256888440994
0.55468348527315,15.3262404465115
0.574843741673734,15.3268137378426
0.589846501290054,15.3274438133733
0.596805399200857,15.3281732585001
0.592036729867072,15.3289232430497
0.574418148868507,15.3297166476213
0.543645353668829,15.3305389704383
0.500712405391366,15.3313709718009
0.442467921310506,15.3322639824356
0.387805431592512,15.3329749502126
0.326775714223893,15.3336859179895
0.274539399460607,15.3342548835119
0.231574633419393,15.3347109051163
0.194754228592151,15.3351025202082
0.162233300326616,15.3354562103563
0.133011365612952,15.3357867254024
0.106458391184379,15.3361039421965
0.0820989967817481,15.3364160883644
0.0594782313671644,15.336732222775
0.0379528911282974,15.3370670830582
0.0156939543539654,15.3374657128212
0.00313873071859501,15.3377253199063
-0.00453291532086509,15.3379012303797
-0.0115590594778638,15.3380771408532
-0.0176884486346607,15.338244978438
-0.0239353165377946,15.3384333372116
-0.030085628623153,15.3386405906812
-0.0359294307262764,15.3388639031789
-0.0413455022154713,15.3391019891054
-0.0462680178613978,15.3393546321937
-0.0506645974218363,15.3396223565762
-0.0545233759810823,15.339906257826
-0.0578452037424994,15.3402079325393
-0.0606387320977624,15.3405294725339
-0.0629135979031528,15.3408735086757
-0.0647462897901172,15.341261990724
-0.0659733455438521,15.3416593453758
-0.0667253283746438,15.3420910293483
-0.0670145576395095,15.3425636050416
-0.0668474031357014,15.3430851943079
-0.0662218405087483,15.3436670626944
-0.0651215607485797,15.3443251529592
-0.0635094429280179,15.3450819621005
-0.0613078992836058,15.3459741676505
-0.0583365153205762,15.3470748149809
-0.054248434351153,15.3485170406204
-0.0502413270759451,15.3499077578417
-0.0463824407625234,15.3512578046095
-0.0427094028394712,15.3525701842961
-0.0392421844876883,15.3538460081194
-0.0359914611735205,15.3550854306526
-0.032962012049503,15.3562881434356
-0.030154334709637,15.3574536367371
-0.0275655815421064,15.3585813371324
-0.0251902274251145,15.3596706767569
-0.023020622744845,15.3607211229631
-0.0210474874875291,15.3617321835269
-0.0192603634880025,15.3627033956789
-0.0176480251335063,15.3636343035937
-0.0161609937451582,15.3645484574884
-0.0147349956267945,15.3654859499579
-0.0133748696065643,15.3664481974045
-0.0120847501293219,15.3674372499696
-0.0108686069791124,15.3684555093326
-0.00973019447768217,15.369505817809
-0.00867300359476855,15.3705915717364
-0.00770021263242158,15.3717168736544
-0.0068146367663036,15.3728867411464
-0.00601867659622593,15.3741074010899
-0.00531426561610902,15.375386717393
-0.00470281624562768,15.3767348365823
-0.00418516381340926,15.3781652082137
-0.0037615078894928,15.3796962943395
-0.00343713336482275,15.3813194786405
-0.00321342431960592,15.3829867476053
-0.00307358005008813,15.3847163835278
-0.00300234544528831,15.386528829702
-0.00298508980368659,15.3884512288481
-0.00300726829276766,15.3905217010984
-0.00305360264946597,15.3927981613264
-0.00310654263356496,15.3953793019928
-0.00314226015055327,15.3984696454603
-0.00312121224690731,15.4022021964946
-0.0030189976190643,15.4060623490707
-0.00285516994801771,15.4096993952939
-0.00266618642873977,15.4129149677359
-0.00245872550640429,15.4159524066373
-0.00223646999206228,15.4189160073809
-0.00200194965609041,15.4218613595739
-0.00175685789405686,15.4248248167006
-0.00150227684048309,15.4278334870755
-0.00123883079285311,15.430909524071
-0.000966783780441418,15.4340723986467
-0.000686111047119873,15.4373401872582
-0.000396548869696673,15.4407303947522
-9.76157238335392e-05,15.4442606394063
0.000211396425644457,15.4479493246224
0.000531473579483958,15.4518164946149
0.00086399515839583,15.4558851416667
0.00121095195041066,15.4601834279244
0.00157529125329272,15.4647480582075
0.00196141284179607,15.4696288545094
0.00237592151593167,15.474895225123
0.00273366489888472,15.4794302624747
0.00306475609445093,15.4836051437819
0.00338753248033748,15.487637577227
0.00371143972714048,15.4916300455486
0.0040430196665319,15.4956449967791
0.00438781409969405,15.499727629404
0.00475128145259256,15.5039158171715
0.00513918446575953,15.508243039244
0.00555805793367382,15.5127414625988
0.00601568048867953,15.5174436723993
0.00652171198193041,15.5223839080844
0.00705383384893526,15.5272858110512
0.00761624788902363,15.5321488989805
0.00821224751384855,15.5369577477905
0.00884657497461525,15.54170343261
0.00952524949271389,15.5463806021347
0.0102575594965952,15.5509987125941
0.0110693335094473,15.5556483749646
0.011975044340807,15.5603219889196
0.0129975850728419,15.5650390447023
0.0141685741344443,15.5698333991055
0.0155394173387031,15.574782401057
0.0172163545925655,15.5800890999303
0.019574531041493,15.5865799893882
0.021243182632049,15.5907381590291
0.0229828645332441,15.5948963286699
0.0244808733154425,15.5985013236319
0.0257375853352576,15.6017193028072
0.0267860397432869,15.6047649994432
0.0276021432116511,15.6077054262523
0.0281502291625568,15.610530102323
0.0284272163362799,15.6133611586386
0.0283989255760953,15.6163614351889
0.0279401398798146,15.6199022638906
0.0271454542309805,15.6231605928596
0.0260525418390953,15.6264189218285
0.024964528087468,15.6291331780369
0.0238912653804669,15.631560454528
0.0228186894274137,15.6338497446931
0.0217458430924143,15.6360646472794
0.0206756828847911,15.6382390772028
0.0196119193972577,15.6403947225358
0.0185582468842075,15.6425470559087
0.0175181376605882,15.6447079777606
0.0164947897524279,15.6468871870242
0.0154911240475803,15.6490929686234
0.0145097858356251,15.6513327078245
0.0135531643393439,15.6536132103529
0.0126233948618084,15.6559409671224
0.0117223740063407,15.6583223308973
0.0108517705880126,15.6607636648166
0.0100130257555046,15.6632715001972
0.00920736919512877,15.6658526404623
0.00843296900443014,15.6685245321443
0.00767104880684287,15.6713739494981
0.00692544610523829,15.6744207785497
0.00619991735060007,15.6776890610513
0.00549842627522539,15.6812065308158
0.0048251038898167,15.6850053060415
0.00418417707837992,15.6891228043129
0.00357985212846196,15.6936030734601
0.00301613476075187,15.6984989889951
0.00249657621796742,15.7038762400179
0.0020240088253128,15.7098201952468
0.0016004595929258,15.7164454381437
0.0012387619465455,15.7236472563462
0.000937788060142415,15.7314463430593
0.000690905119431851,15.7399731934533
0.000491882717695832,15.7494005587107
0.000343293703750279,15.7594005587107
0.000246624497964518,15.7692724806258
0.000179825102754923,15.7792724806258
0.000133477352496795,15.7892724806258
0.000101264226483276,15.7992724806258
7.91356752214111e-05,15.8092724806258
6.42033321006402e-05,15.8192724806258
5.43375985194019e-05,15.8292724806258
4.7998589226374e-05,15.8392724806258
4.41081016666266e-05,15.8492724806258
4.19280157723329e-05,15.8592724806258
4.0956773077542e-05,15.8692724806258
4.08526232280709e-05,15.8792724806258
4.13816947315618e-05,15.8892724806258
4.23840782964513e-05,15.8992724806258
4.37514344199456e-05,15.9092724806258
4.54117459139494e-05,15.9192724806258
4.73186844892912e-05,15.9292724806258
4.9444151939434e-05,15.9392724806258
5.17730918376078e-05,15.9492724806258
5.42999343078343e-05,15.9592724806258
5.70262032181449e-05,15.9692724806258
5.99589435060852e-05,15.9792724806258
6.3109728468072e-05,15.9892724806258
6.64940838488315e-05,15.9992724806258
7.01312204993712e-05,16.0092724806258
7.40440056170128e-05,16.0192724806258
7.82591295712115e-05,16.0292724806258
8.28074452363252e-05,16.0392724806258
8.77244724427705e-05,16.0492724806258
9.30510735540864e-05,16.0592724806258
9.88343187369353e-05,16.0692724806258
0.000105128572496633,16.0792724806258
0.000111996847806682,16.0892724806258
0.000119512492157552,16.0992724806258
0.000127761292956146,16.1092724806258
0.000136844120432864,16.1192724806258
0.000146880268096004,16.1292724806258
0.000158011708968726,16.1392724806258
0.000170408568050574,16.1492724806258
0.00018427622939585,16.1592724806258
0.000199864668118765,16.1692724806258
0.000217480852374517,16.1792724806258
0.000237505444539982,16.1892724806258
0.000260415621374282,16.1992724806258
0.000286816759905296,16.2092724806258
0.00031748722458829,16.2192724806258
0.000353442943899788,16.2292724806258
0.000395442647297175,16.2391417206764
0.000441408272169923,16.2482274891363
0.000491353476136177,16.2565699817739
0.000545419984366604,16.264232363062
0.000603771603471153,16.2712733152353
0.000666568256011435,16.2777464229917
0.000733959219285085,16.2837008293528
0.000806079935020307,16.289181698024
0.000883051095996162,16.2942302633715
0.000964984560919222,16.298884592872
0.00105198399977612,16.3031795788496
0.00114414900227431,16.3071473883251
0.00124158521818441,16.3108176454294
0.00134440658490959,16.3142177184803
0.00145275261296976,16.3173729330809
0.00156680266989129,16.3203068430181
0.00168679301235897,16.3230414434186
0.00181305281371576,16.3255974803148
0.00194604170398201,16.3279947282399
0.00208641052128367,16.3302524113806
0.00223509981133722,16.3323897264704
0.00239349594708426,16.334426655587
0.00256370836322897,16.3363853465366
0.00274911556766093,16.3382927331869
0.0029555938195576,16.3401864144187
0.00319491535817615,16.3421310553167
0.00349859834572209,16.3442861100079
0.00382160928785071,16.3462724632075
0.00411284936192381,16.3478471632016
0.00444085504123832,16.3494218631957
0.00477347265233861,16.3508420532354
0.00512863477688365,16.3521969874005
0.0055329083995597,16.3535722048969
0.00602746734300659,16.3550578304972
0.00670651455380012,16.3568197119835
0.00752877622121,16.3586255509085
0.00843380120274589,16.3603052433498
0.00943162962044302,16.3618811736063
0.0105398912819128,16.3633805224507
0.01178657698312,16.3648339237298
0.0132651114023138,16.3663238361178
0.0151515591251091,16.3679642297148
0.018070225508568,16.3701322041717
0.0198970692629997,16.371350699887
0.0218094459594873,16.3725691956023
0.0235571785697948,16.3736716942343
0.0251332820279527,16.3746949352377
0.0265578127035675,16.3756870373908
0.0278258909291844,16.3766844283933
0.0289141169894826,16.3777257160646
0.0297755920332189,16.3788696359418
0.0303055714428641,16.3802528452872
0.0301950024323939,16.3819886174826
0.0295649542277061,16.3833756731319
0.0285642245481383,16.3847627287812
0.0273727879614285,16.3860741010087
0.0260050080300477,16.3874054030784
0.0244733953401585,16.3888039306816
0.0227883734946701,16.3903087516045
0.0209540332178208,16.3919671596152
0.0194392410094102,16.3934157348392
0.0168259390516043,16.3962302715198
0.0143581040528075,16.3994564380489
0.0126156215215036,16.4023299497912
0.0113892512458922,16.4049351387243
0.0105271632508085,16.4074010817176
0.00995772963621094,16.4098329843294
0.00968285265634381,16.4120791564906
0.00965260028113486,16.4141907527558
0.00984371378060164,16.4162262531823
0.0102617068026917,16.4182581424929
0.0109569430491722,16.4203978214657
0.0120998417890166,16.4228898803864
0.0137392369469293,16.4255949868347
0.0152250553356223,16.4276001016552
0.0169661497097333,16.4296052164756
0.0187198936419271,16.4313393001546
0.020529178473454,16.4328869055392
0.0224747025364979,16.4343279936178
0.0246117706045967,16.4356956292985
0.0269857110360371,16.4370044982479
0.029639156955747,16.4382619897703
0.0326153729932971,16.4394724463228
0.03595850024036,16.4406383821689
0.0397182684706745,16.4417625423915
0.0439486260715817,16.4428471622805
0.0487122644801774,16.4438949736236
0.0540809156511178,16.4449087208948
0.0601381487200796,16.4458913037824
0.0669821716905753,16.4468457608452
0.0747293970610815,16.4477752725259
0.0835190488089647,16.4486831819494
0.0935192176104635,16.4495730347374
0.104934972418906,16.4504486417437
0.118019434254913,16.4513141704793
0.133089074336319,16.4521742683185
0.150546098861416,16.4530342722558
0.170912876508776,16.4539005658042
0.19489299460701,16.4547813751119
0.223176515960124,16.4556791800432
0.255880548985066,16.4565797050165
0.293833922052808,16.457492644713
0.338249070312691,16.458435600706
0.379822039125948,16.4592362196764
0.42403866316585,16.4600368386469
0.461907058018622,16.4607083361262
0.494617011709303,16.4613016595469
0.52344000508618,16.4618601745817
0.548648500934519,16.4624102238452
0.569954302864292,16.4629751005914
0.586485504376704,16.4635853796079
0.596109818372074,16.4643023190898
0.594417016892605,16.465044893339
0.58023158901909,16.4658250791665
0.552032707730231,16.466660383019
0.512343292074513,16.4674823936777
0.457956999893488,16.4683601683433
0.38965625740901,16.4692686762899
0.341446669449082,16.4698372022217
0.289970763791362,16.4704057281534
0.244859962518132,16.4708867901867
0.206328732554129,16.4712953092584
0.17253447967448,16.4716594423644
0.142308702344026,16.471996341147
0.114934466390002,16.4723169951409
0.0899016546058823,16.4726299092036
0.0667638451549205,16.4729435442912
0.0449790307767998,16.473269813646
0.023387996294132,16.4736368650425
0.00507249723092754,16.473999754963
-0.00299317895748325,16.4741811999233
-0.0103659953372664,16.4743626448836
-0.0166476394245491,16.4745319150504
-0.0228865872935162,16.4747168285608
-0.0290707629386219,16.4749211615744
-0.0349763837255974,16.4751419063585
-0.0404699642450733,16.4753775535347
-0.0454782405970198,16.4756277359661
-0.0499643104340891,16.4758928687863
-0.0539135158888324,16.4761739587411
-0.0573249760821956,16.4764725202674
-0.0602062957159253,16.4767905603017
-0.0625685463048777,16.4771306142563
-0.0645299450584492,16.4775238244197
-0.0658267536545811,16.4779167595414
-0.0666460575573385,16.4783431234932
-0.067001230724008,16.4788093743625
-0.0668995021018177,16.4793233350987
-0.0663404649554817,16.4798956268028
-0.0653100737711396,16.4805415935453
-0.0637749940561923,16.4812824139349
-0.0616655890860966,16.4821519674016
-0.0588244386758144,16.4832151506796
-0.0547389200964856,16.4846629875928
-0.0507178807392221,16.4860588805347
-0.0468385392582753,16.4874135866126
-0.0431417456931064,16.4887304016408
-0.0396489781265053,16.4900105977291
-0.0363717865080545,16.4912544096844
-0.0333155494710513,16.4924615661176
-0.0304812203537318,16.4936315715498
-0.0278663147487622,16.4947638549832
-0.0254655985967519,16.495857845344
-0.0232716508320016,16.4969130048404
-0.0212753629241803,16.4979288365329
-0.0194663959240439,16.4989048749881
-0.0178335962860548,16.4998406649766
-0.0163394589492044,16.5007520505611
-0.0149057065886508,16.5016866464131
-0.0135373127638484,16.5026457676545
-0.0122384284959819,16.503631426647
-0.0110130466455216,16.5046459776246
-0.00986495034878264,16.5056922036671
-0.00879766533120692,16.5067734262339
-0.00781441073443818,16.507893651811
-0.00691804878616129,16.5090577725712
-0.00611103347141429,16.5102718481224
-0.0053953581474897,16.5115435133873
-0.00477250178206854,16.5128825911557
-0.00424337321447666,16.5143020543025
-0.00380825282396707,16.5158196250678
-0.00347052942288792,16.5174386294771
-0.00323565014571199,16.5190995439733
-0.00308653374430773,16.5208206951555
-0.00300782140312636,16.5226218968705
-0.00298483187019881,16.5245293161918
-0.00300304565571564,16.5265794120418
-0.00304733262738952,16.5288269747443
-0.00310054671867011,16.5313638214759
-0.00314003680534463,16.534374421132
-0.00312727525066838,16.5381086580167
-0.0030336924395493,16.5419654295081
-0.00287288759471573,16.5456766556556
-0.00268600488664179,16.5489202860929
-0.00248020659478256,16.5519695618596
-0.00225930168238684,16.5549375775325
-0.0020259194809448,16.5578829068368
-0.0017818264471294,16.5608432211256
-0.00152815812802358,16.563846311062
-0.00126557977180743,16.5669147026221
-0.000994388351809288,16.5700680622549
-0.000714585194770192,16.5733245669517
-0.000425929155641738,16.5767017457139
-0.000127960282494474,16.5802171765547
0.000180005353034001,16.5838891504615
0.000498922123933086,16.5877374993241
0.000830122300083381,16.5917848389797
0.00117552227266763,16.5960586823595
0.00153795420379422,16.6005946950383
0.0019216435704105,16.6054411272054
0.0023329367515975,16.6106651491128
0.00269541947226525,16.6152624958242
0.00302829126656814,16.6194633117139
0.00335143809051568,16.6235054794109
0.00367486010799849,16.6274988658561
0.00400529326913896,16.6315088283164
0.00434833753276974,16.6355819005791
0.00470943469767717,16.6397565443711
0.00509429132333149,16.6440665752427
0.00550933371237965,16.6485442075585
0.00596217338384057,16.6532219088097
0.00646221944196271,16.6581336872145
0.00699216721453229,16.6630494052416
0.00755067581949366,16.6679149128073
0.00814273229509173,16.6727311864622
0.00877240200321652,16.6774841878397
0.00944568783938005,16.682169272602
0.0101698602736086,16.6867842687327
0.0109720468321995,16.6914318705611
0.0118659377718184,16.6961017747064
0.0128737391179471,16.7008126417825
0.0140256573925793,16.7055954098038
0.0153698673146688,16.7105201723989
0.0170023886791744,16.7157664025021
0.0192312011669464,16.7220045842558
0.0209561325198676,16.7263559546214
0.0227701977720037,16.730707324987
0.0243088071751226,16.7343957934838
0.0255931214260584,16.7376488307061
0.0266671306114749,16.7407073810113
0.0275169374348716,16.7436707648202
0.0280975996228553,16.7465035168968
0.0284087271130627,16.7493264732903
0.028421434899329,16.7522937210801
0.028030525565633,16.7557265771977
0.0272497357119692,16.759115420644
0.0261386625824375,16.7625042640904
0.0250445424540024,16.7652611704377
0.0239705465336857,16.7677037110417
0.0228980166088167,16.7700004763655
0.0218251050419789,16.7722194852337
0.0207546196855447,16.7743960472561
0.0196902527432113,16.7765524835261
0.018635710719578,16.7787046100151
0.0175944839827424,16.7808645360961
0.0165697921790025,16.7830420893005
0.0155645759002587,16.7852456403686
0.0145815007815474,16.7874826270736
0.0136229751046788,16.7897598873772
0.0126911512750225,16.7920839315173
0.0117879441553874,16.7944611145979
0.0109150394137825,16.7968977932538
0.0100738939900831,16.7994004839957
0.00926575319733661,16.8019759652211
0.00849055294153447,16.8046353398442
0.00772755215585053,16.8074708695592
0.00698059711289606,16.8105021451651
0.00625342709397425,16.8137529594042
0.00554999247477097,16.8172507436963
0.00487441347349537,16.8210272616695
0.00423091294087071,16.8251194973713
0.0036237038149257,16.8295709444653
0.00305681531446703,16.8344337073394
0.00253384310385887,16.8397723143445
0.00205767935100076,16.845670359898
0.00163040716699563,16.852239888745
0.00126386624500685,16.859400778007
0.000958540407485048,16.8671506961498
0.00070779816234666,16.8756171680857
0.000505368818261599,16.8849693216547
0.000352005381200464,16.8949693216547
0.000258685024433735,16.9041411042201
0.000188150904202429,16.9141411042201
0.000139250527645269,16.9241411042201
0.000105239320929941,16.9341411042201
8.18367247554875e-05,16.9441411042201
6.60086328340186e-05,16.9541411042201
5.55187078726466e-05,16.9641411042201
4.87461207768396e-05,16.9741411042201
4.45533395955976e-05,16.9841411042201
4.21606394832623e-05,16.9941411042201
4.10380685271963e-05,17.0041411042201
4.08245987798609e-05,17.0141411042201
4.1273143958768e-05,17.0241411042201
4.22146158814112e-05,17.0341411042201
4.35342399795522e-05,17.0441411042201
4.51554672285992e-05,17.0541411042201
4.70287678117247e-05,17.0641411042201
4.91237680112024e-05,17.0741411042201
5.14237736371125e-05,17.0841411042201
5.39220102939833e-05,17.0941411042201
5.66190864865726e-05,17.1041411042201
5.95213194019055e-05,17.1141411042201
6.26396698577691e-05,17.1241411042201
6.59891137031001e-05,17.1341411042201
6.9588334763611e-05,17.1441411042201
7.34596646602275e-05,17.1541411042201
7.76292231122852e-05,17.1641411042201
8.2127233064783e-05,17.1741411042202
8.69885011494012e-05,17.1841411042202
9.22530676254844e-05,17.1941411042202
9.79670425501663e-05,17.2041411042202
0.00010418365779069,17.2141411042202
0.000110964578908824,17.2241411042202
0.000118381538370773,17.2341411042202
0.000126518373766108,17.2441411042202
0.000135473584152671,17.2541411042202
0.000145363557639832,17.2641411042202
0.000156326678753722,17.2741411042202
0.000168528602250014,17.2841411042202
0.000182169091877695,17.2941411042202
0.00019749098522952,17.3041411042202
0.000214792086206271,17.3141411042202
0.000234441148203989,17.3241411042202
0.00025689966536823,17.3341411042202
0.00028275205648267,17.3441411042202
0.000312748214091067,17.3541411042202
0.000347864669307836,17.3641411042202
0.000389322775024398,17.374124799871
0.000434745997040203,17.3833198865309
0.000484129681940037,17.3917624201955
0.000537611170320942,17.3995162031542
0.000595354185100573,17.4066406702902
0.000657520473315522,17.4131900943989
0.000724260936897292,17.4192141858697
0.000795713368886806,17.4247586692953
0.000871999869997882,17.429865293485
0.000953233891201071,17.434572549797
0.00103951952351815,17.4389157697559
0.00113095680257309,17.4429274653352
0.00122765049818681,17.4466376180303
0.00132971168785641,17.4500738825484
0.00143727684510542,17.4532618653257
0.00155051760707037,17.4562253478167
0.00166966082752053,17.4589865300005
0.00179502138629562,17.461566315542
0.00192703672626748,17.4639845911765
0.00206632616131056,17.4662606331245
0.00221378276491447,17.4684135981549
0.00237071759589924,17.470463294972
0.00253911402963373,17.4724314519792
0.00272212307873038,17.4743440902431
0.00292514820113852,17.476236722536
0.00315874122964847,17.4781683098211
0.00344957279696271,17.4802747956612
0.00387763511555419,17.4829061847484
0.00416562841077437,17.4844299494402
0.00448897356296381,17.485953714132
0.00482308388452814,17.4873568375736
0.00518357461350547,17.4887097790662
0.00559779390451347,17.4900947212912
0.00611103544429834,17.4916067362144
0.00683379860104425,17.4934364611307
0.00766946296045867,17.4952216562702
0.00858859476927268,17.4968827772024
0.00960290505855726,17.4984444372961
0.0107312718140013,17.4999340897104
0.0120042192220789,17.5013835308926
0.013533114581338,17.5028886218606
0.0155173707306077,17.5045728274098
0.0176854369433456,17.5061808370596
0.0195675234980658,17.5074520926812
0.0215526338438939,17.5087233483028
0.0233313611143489,17.5098443767737
0.0249290594216645,17.5108752295316
0.0263739319571735,17.5118693041778
0.0276641384534878,17.5128639031793
0.0287787814090238,17.5138965408221
0.0296750335561946,17.5150214967744
0.0302610400915498,17.5163566516008
0.030158981308947,17.5184333177058
0.0294877810561342,17.5198224781903
0.02845509429088,17.5212116386748
0.0272426983086397,17.5225241846403
0.02585673359777,17.5238608999938
0.0243083586435964,17.5252687456039
0.0226073531001084,17.5267872002517
0.0212708531695219,17.5279929302119
0.0199841258769332,17.529198660172
0.0184330212912017,17.5307617234389
0.0157602386277698,17.5338528697789
0.0136072655360674,17.536928532684
0.0120905135380872,17.5396787911296
0.0110196626257695,17.5422117284986
0.0102666750589933,17.5446878717994
0.00981964565620518,17.5470403144239
0.00964414471442324,17.549226760147
0.00970083658623109,17.5512996936056
0.0099756874845219,17.5533161831494
0.0104881189634471,17.5553656551648
0.0113215613708574,17.5575979103126
0.0126698233812275,17.5602262694022
0.0144886229410433,17.5629627831044
0.0159580113156005,17.564799603935
0.0176582081471358,17.5666364247656
0.0194166939963955,17.5682779522996
0.0212715050900142,17.569777763521
0.023286615255737,17.571187765124
0.0255116248624278,17.5725313148619
0.027990150741102,17.5738194301234
0.0307644531310705,17.5750578911684
0.0338788464304632,17.5762505780065
0.0373792226195718,17.5773999018506
0.0413162447191611,17.578508201249
0.0457476010470051,17.5795780740899
0.0507390829899969,17.5806121948475
0.0563667853540761,17.581613375316
0.0627196315768896,17.5825845675375
0.0699024803010063,17.5835288629801
0.0780400593688225,17.584449501855
0.0872820846258214,17.585349900887
0.0978100420165376,17.5862337017475
0.109846303080231,17.5871048417296
0.123666622219597,17.587967654939
0.139617969077622,17.5888270336519
0.158144488300426,17.5896886645541
0.179829936002715,17.590559518434
0.205477925212159,17.5914489791943
0.235406919225465,17.592346957979
0.270051672958217,17.593250904647
0.310355286426864,17.5941727586305
0.357811499165257,17.5951362512737
0.396515045177626,17.5958589610619
0.436931946805807,17.5965816708501
0.472783549997634,17.5972191144163
0.504175076311773,17.5977977438351
0.531849994043171,17.5983510595567
0.555872373893844,17.5989031795859
0.575791201325957,17.5994784587693
0.590463220446291,17.6001131208751
0.59684823981712,17.6008430383039
0.591466106378877,17.6015946662485
0.573157609699048,17.6023908417261
0.541848585325385,17.6032115402383
0.498231322695435,17.6040459356223
0.439207871866736,17.6049418056855
0.384959327340753,17.6056424072619
0.324588231596587,17.6063430088384
0.272827057934788,17.6069058862407
0.230142815218928,17.60735877436
0.193504590684557,17.6077486427765
0.161117980169252,17.6081012758289
0.132002739837124,17.6084311524891
0.105537351728794,17.6087480442446
0.0812494538898511,17.6090601629822
0.058682055854961,17.6093766586271
0.0371769780767251,17.6097126744181
0.0147919791697951,17.6101160940941
0.00296809910835374,17.610361794402
-0.00468171576870342,17.6105375188651
-0.0116879663056142,17.6107132433282
-0.0178017577734473,17.6108809494232
-0.0240489103634047,17.6110696739487
-0.030195177849433,17.6112772394798
-0.0360320615729949,17.6115008286259
-0.0414396083889081,17.6117391790606
-0.0463527621934418,17.6119920903055
-0.050739611128599,17.6122600980211
-0.0545885798607187,17.6125443072887
-0.0579006979133192,17.6128463235977
-0.0606847246587162,17.6131682480463
-0.0629501211608974,17.6135127219995
-0.0647685554982173,17.6139005393736
-0.0659882437879535,17.6142983659765
-0.0667331178604178,17.6147306206689
-0.0670153786401601,17.6152038755083
-0.0668413018894553,17.6157262848463
-0.0662086848119443,17.6163091843668
-0.065100971942797,17.6169685832044
-0.0634806213146057,17.6177271250499
-0.0612691450232733,17.6186218044538
-0.0582834313300409,17.6197266229982
-0.0541959549972607,17.6211679921612
-0.0501904132686547,17.6225581580492
-0.0463337533250953,17.6239077075322
-0.0426632809734183,17.625219612304
-0.0391988128114025,17.6264949671043
-0.0359509332210853,17.6277339183377
-0.0329243585633499,17.6289361538027
-0.03011953807708,17.6301011623644
-0.0275335859747784,17.6312283704027
-0.0251609463414957,17.6323172104266
-0.0229939452948498,17.6333671503477
-0.02102328495877,17.6343776984404
-0.0192384946828883,17.6353483922033
-0.0176283414612029,17.6362787757206
-0.0161420723194082,17.6371932267137
-0.0147169055014896,17.6381310302125
-0.0133576655300797,17.6390936134671
-0.0120684850375355,17.6400830307136
-0.0108533312687382,17.6411016887757
-0.0097159554100651,17.6421524363957
-0.00865984466957519,17.6432386780427
-0.00768817292948606,17.6443645266989
-0.00680375027659761,17.6455350135994
-0.00600897153948785,17.6467563838588
-0.00530576374205931,17.6480365264001
-0.00469553211263176,17.6493856232012
-0.00417910403156586,17.6508171761795
-0.00375667029878137,17.6523497289848
-0.0034337091208515,17.6539733741354
-0.00321118147149832,17.6556413384302
-0.00307231556404467,17.6573719018609
-0.00300186702695042,17.6591855770812
-0.00298521005586741,17.6611096149701
-0.00300779634887789,17.6631823208187
-0.00305433044087541,17.6654619606054
-0.0031072156811942,17.6680480097979
-0.00314248662575836,17.6711473354186
-0.00312051467225321,17.6748799845641
-0.00301734260248373,17.6787406712478
-0.0028531769581673,17.6823699551114
-0.00266395761101952,17.6855825088669
-0.00245630967222466,17.6886186670527
-0.00223390157221615,17.6915818007326
-0.00199925205464062,17.6945271780027
-0.00175404645390737,17.6974910085902
-0.00149936099465503,17.7005003260322
-0.00123581543194197,17.7035772428205
-0.000963670137225383,17.7067412084668
-0.000682897444194104,17.7100102885472
-0.000393231093374712,17.7134019855803
-9.41871127987351e-05,17.7169339228288
0.000214945299265207,17.7206245169895
0.000535155805147233,17.7244938371889
0.000867829315793087,17.7285649198735
0.00121496528282366,17.7328660030621
0.00157952437892489,17.7374339124542
0.0019659266389308,17.7423186527734
0.00238080666854576,17.7475898890699
0.00273803960741186,17.7521181848535
0.00306893924937746,17.7562902348621
0.00339168033625536,17.7603216249166
0.00371564892314545,17.7643140396181
0.00404736583702681,17.7683296075748
0.00439236681420275,17.7724133799617
0.00475611253062997,17.7766031652604
0.00514437256827141,17.7809324061676
0.00556369460342402,17.7854332655709
0.00602187706174724,17.7901383433868
0.0065286094844497,17.7950819064991
0.00706098413415185,17.7999822046718
0.00762385207772728,17.8048449994728
0.00822031085728644,17.8096529836741
0.008855181023989,17.8143978181046
0.00953448401519968,17.8190740723204
0.0102677519329735,17.8236925925482
0.0110806455238045,17.8283424919197
0.0119877397072529,17.8330165485906
0.0130120080270771,17.837734345713
0.0141852398667527,17.8425300973354
0.0155592377863242,17.8474820460207
0.0172415310672023,17.8527962173245
0.0196164828061705,17.8593205245887
0.0212788155409401,17.8634570768793
0.0230100920802512,17.8675936291699
0.0245031136683245,17.8711886605444
0.0257562667530373,17.8744023339569
0.0268013684284088,17.8774465092543
0.0276130604386221,17.8803840773276
0.0281568571824479,17.8832078308377
0.0284293153356338,17.8860401224436
0.02839551501474,17.8890450848443
0.0279272290119604,17.8926016542919
0.0271304577941072,17.895844113692
0.0260393656796659,17.8990865730921
0.0249520663067148,17.9017949755872
0.0238788899353524,17.9042199892962
0.022806305448303,17.9065081443877
0.0217334709278169,17.9087224215879
0.0206633634606107,17.9108965285692
0.0195996961056826,17.9130520574621
0.018546161146378,17.9152044284636
0.0175062280119774,17.9173655101328
0.0164830914105319,17.9195449815807
0.0154796690856555,17.9217511147281
0.0144986032156592,17.9239912866811
0.0135422800259276,17.9262722983148
0.0126128321698939,17.9286006375827
0.0117121534149366,17.9309826569363
0.0108419098858761,17.9334247207776
0.0100035404065984,17.9359333624099
0.0091982721045746,17.9385153895869
0.00842399821062959,17.9411892420405
0.00766224815021234,17.9440408351817
0.00691685807186347,17.9470901013315
0.00619158707919012,17.9503611214194
0.00549040100233527,17.9538816766074
0.00481743248319317,17.9576839409051
0.00417690896456279,17.9618054002369
0.00357303560033326,17.9662901900086
0.00300981436240062,17.9711913076063
0.00249078940739181,17.9765746266985
0.00201878369938095,17.9825257972564
0.00159581558074238,17.9891598041511
0.00123487156943606,17.9963680714208
0.000934573843916165,18.0041749073504
0.000688290503805853,18.0127112784915
0.000489797332186697,18.0221505121784
0.000341923274243779,18.0321505121784
0.000244887050480283,18.0421175415507
0.000178632275549275,18.0521175415507
0.000132656337708536,18.0621175415507
0.000100701662126564,18.0721175415507
7.87540827236607e-05,18.0821175415507
6.39483636756171e-05,18.0921175415507
5.41709673391782e-05,18.1021175415507
4.78935423657535e-05,18.1121175415507
4.4046130014407e-05,18.1221175415507
4.18963917803006e-05,18.1321175415507
4.09467626553613e-05,18.1421175415507
4.08582365600183e-05,18.1521175415507
4.13988342942748e-05,18.1621175415507
4.24099605608575e-05,18.1721175415507
4.37841942758983e-05,18.1821175415507
4.54501634224615e-05,18.1921175415507
4.73619952515536e-05,18.2021175415507
4.94919157632113e-05,18.2121175415507
5.18251024519734e-05,18.2221175415507
5.43561580268387e-05,18.2321175415507
5.70867380136392e-05,18.2421175415507
6.00239925206323e-05,18.2521175415507
6.31795838600686e-05,18.2621175415507
6.65691181903044e-05,18.2721175415507
7.02118838861052e-05,18.2821175415507
7.41308273191159e-05,18.2921175415507
7.83527235405045e-05,18.3021175415507
8.29085191603422e-05,18.3121175415507
8.78338403403299e-05,18.3221175415507
9.31696721794421e-05,18.3321175415507
9.89632283275491e-05,18.3421175415507
0.000105269042691093,18.3521175415508
0.000112150329903561,18.3621175415508
0.000119680679318174,18.3721175415508
0.000127946170520032,18.3821175415508
0.000137048029277084,18.3921175415508
0.000147105985019414,18.4021175415508
0.000158262549552705,18.4121175415508
0.000170688519541118,18.4221175415508
0.000184590124177738,18.4321175415508
0.000200218412797113,18.4421175415508
0.000217881734119014,18.4521175415508
0.00023796254644973,18.4621175415508
0.000260940394300683,18.4721175415508
0.000287423823040974,18.4821175415508
0.000318195507537163,18.4921175415508
0.000354277350360362,18.5021175415508
0.0003963579623826,18.5119699318757
0.000442404601090091,18.521039606549
0.000492433696049379,18.5293673703359
0.00054658760828523,18.5370162941558
0.000605030148499052,18.5440449496098
0.000667920984296339,18.550506820504
0.00073540915825797,18.5564509668685
0.000807629763896797,18.5619224689759
0.000884703311802549,18.5669624870123
0.000966741422646416,18.5716090246698
0.00105384771581384,18.5758969103158
0.00114612175063448,18.5798582598823
0.00124366929406636,18.5835226452633
0.00134660478361841,18.5869173924695
0.00145506819638953,18.5900677861545
0.00156924006010277,18.5929973464566
0.00168935813857676,18.5957280387799
0.00181575377699473,18.5982805861835
0.00194888999946209,18.6006747474433
0.00208942254823854,18.6029297398695
0.00223829926799935,18.6050647673656
0.00239691816585608,18.60709984
0.00256740829116994,18.6090571719056
0.00275318387073905,18.6109638413227
0.00296019624689976,18.6128577798719
0.00320041591985423,18.6148045815564
0.00350619109929317,18.6169677313144
0.00382720320462739,18.6189360853321
0.00411841590748012,18.6205071236404
0.00444632703962142,18.6220781619488
0.00477911512314053,18.6234963922962
0.00513485964612604,18.6248510177537
0.00554022342547036,18.6262272432115
0.00603681149391469,18.6277156869111
0.00672048208582946,18.6294847017516
0.00754420698625012,18.6312882181754
0.00845077292070914,18.6329658233971
0.00945039835123034,18.6345401431369
0.0105608457908023,18.6360383846228
0.0118103661094511,18.6374912940838
0.0132942788370375,18.6389827683702
0.0151908719328696,18.6406275935352
0.0181340841925455,18.6428077560504
0.0199569808196226,18.6440211237877
0.0218629568765582,18.6452344915251
0.0236049312972666,18.6463336736634
0.0251765068776589,18.6473554240464
0.0265966835876927,18.6483471893185
0.0278599836903077,18.649345263409
0.0289424677124632,18.6503885276274
0.0297963013935867,18.6515367642985
0.0303136136406133,18.652931282328
0.0301830131211883,18.6546600808692
0.0293243800042973,18.6563888794105
0.0282425408274007,18.6577728986764
0.0269946051711548,18.6590876946343
0.0255769559073979,18.6604350207035
0.0239992687589913,18.6618605850805
0.022270257723909,18.6634047679195
0.0211025353623037,18.6644622742846
0.0199775742898886,18.6655197806497
0.0172564699086907,18.6683642071334
0.0146336608978603,18.6716886652757
0.012802134414656,18.6746176681878
0.0115203752507501,18.6772508323005
0.0106221163267494,18.6797146017204
0.0100112005749374,18.6821724245844
0.00970290821822162,18.6844387587047
0.00964393687327106,18.6865646909635
0.0098079100042795,18.688606832904
0.0101959754851602,18.6906334865601
0.0108513953797906,18.6927512182333
0.0119207978000539,18.6951775647226
0.0134980337141968,18.6978680151138
0.0150043770786628,18.6999535714759
0.0167816300680209,18.702039127838
0.0185416990689941,18.7038062484463
0.0203424348311644,18.7053689754191
0.0222720132330923,18.7068191405456
0.0243880607247391,18.7081934642714
0.026736628097598,18.7095079314158
0.0293605854818626,18.7107704873352
0.0323029232090548,18.7119856152412
0.0356070607694457,18.7131557774541
0.0393231926885112,18.7142840780777
0.0435039734779102,18.7153725245188
0.0482114048297038,18.7164238874828
0.0535161960035311,18.7174409030116
0.0595006317813793,18.7184264589323
0.0662613153291939,18.7193835800925
0.0739126554165295,18.7203154318871
0.0825913551179219,18.7212253395546
0.0924623045017824,18.7221168264073
0.103726452719115,18.7229936737744
0.116631528443901,18.7238600086912
0.131486811021208,18.7247204220382
0.148684695862465,18.7255801708025
0.168733437642168,18.726445508273
0.19231446362162,18.7273244183703
0.220198608442362,18.7282223429494
0.252433339419588,18.7291222453585
0.289823309067967,18.7300333671021
0.33352644030531,18.730972139069
0.385666291949745,18.7319761210046
0.421974209590708,18.7326319396002
0.45896300368022,18.7332877581958
0.491972892139643,18.7338843981065
0.521107249713884,18.7344447098883
0.546630431333065,18.7349945941373
0.568295380442033,18.7355571859499
0.585292637390058,18.736161901349
0.59566505416815,18.7368652659478
0.595090771353718,18.7376054752103
0.582142744772903,18.7383811462486
0.555192626852148,18.7392144401096
0.516714386213819,18.7400339181483
0.463850948968076,18.7409053598001
0.396415473928049,18.7418168963313
0.347430929768328,18.7424007577726
0.294870390080717,18.7429846192139
0.248911956457647,18.7434757150778
0.209823436756056,18.7438899369503
0.175631569599851,18.7442574779362
0.145096908681722,18.7445964666297
0.117471309100458,18.7449182994613
0.0922316940034615,18.745231610039
0.0689310640902584,18.7455447518321
0.0470478815662113,18.7458690355171
0.0255428778549023,18.7462295484548
0.00975668358347737,18.7465330043954
0.00065868426477886,18.7467289318658
-0.00761593996670528,18.7469248593362
-0.0142711810841803,18.7470979458263
-0.0204503682870103,18.7472742359926
-0.0266872277890324,18.7474714254564
-0.0327214876326674,18.747686042149
-0.0383867689935052,18.7479159866011
-0.0435898908692782,18.7481605009103
-0.0482819068443307,18.7484197261903
-0.0524407494016169,18.748694453689
-0.0560609409567349,18.7489860053036
-0.0591472759794616,18.7492961946393
-0.0617107488864994,18.7496273442221
-0.0637846916520929,18.7499882292934
-0.0653004659835167,18.750367267602
-0.0663333584600749,18.7507776729543
-0.0668972143113672,18.7512250313287
-0.0670016224633148,18.7517163108397
-0.0666502391915847,18.7522605652773
-0.0658357789352595,18.752871070251
-0.0645348219191668,18.7535657666209
-0.0626974335820734,18.7543716233243
-0.0602171300405926,18.755335512351
-0.0568164853885613,18.7565648921247
-0.0527508476112372,18.7579849937235
-0.0487927183753913,18.7593602097662
-0.0449996025578149,18.7606961438434
-0.0414011072096038,18.7619949608632
-0.0380131935611123,18.7632573464241
-0.0348441057949897,18.7644832459439
-0.0318969071753748,18.7656722567266
-0.0291707712973268,18.7668238354327
-0.0266617917523811,18.767937406122
-0.0243635976583333,18.7690124126592
-0.0222678812856418,18.7700483381509
-0.0203648764175788,18.7710447035169
-0.01864379548205,18.7720010518918
-0.0170932243714378,18.7729169225834
-0.0156280493967528,18.7738395719432
-0.0142258437759229,18.7747859708438
-0.0128910495610026,18.7757578443074
-0.0116277469454895,18.7767573627068
-0.010439831775137,18.777787078884
-0.00933096697669063,18.7788500244234
-0.0083045340870165,18.7799498357333
-0.00736358348403618,18.781090924579
-0.00651078356269213,18.7822787142761
-0.00574836890870537,18.7835199761188
-0.00507808729521983,18.7848233248314
-0.00450114503870398,18.7861999783171
-0.00401815005681375,18.7876649825283
-0.00362905219087227,18.7892393164795
-0.00334391643140018,18.7908766355399
-0.00315297118262963,18.7925648474125
-0.00304016360811864,18.7943223563115
-0.00299052021712857,18.7961717422687
-0.00298951525981073,18.7981435346032
-0.00302245173664636,18.8002817450815
-0.00307345892897079,18.8026557399346
-0.00312340047671499,18.8053908531585
-0.00314342339854831,18.8087788357976
-0.00309380332110691,18.8125359621949
-0.00296235606004039,18.8164262419704
-0.00278815595065587,18.8198609310839
-0.00259186702940705,18.8229929477736
-0.00237860798177523,18.825994762005
-0.0021515989888441,18.82894654226
-0.0019130313205175,18.8318949447271
-0.00166435145676771,18.8348721991686
-0.00140645880522381,18.8379032405335
-0.00113983622304124,18.8410090313722
-0.000864633688695817,18.8442084213036
-0.000580734658089603,18.8475191880429
-0.000287794225064622,18.8509588036596
1.47494297774663e-05,18.8545450915623
0.000327697774106885,18.8582969425988
0.000652163485665861,18.8622352949327
0.000989718961082344,18.8663847238089
0.00134265923472897,18.8707760767992
0.00171439763901174,18.8754502714709
0.00211004373321762,18.8804635136457
0.00250741799822978,18.8855117726628
0.00285262814360026,18.8898816773327
0.00317935367955742,18.8939899799234
0.00350166163626197,18.8979993962581
0.0038276111619276,18.9019938486529
0.00416325143762869,18.9060280962979
0.00451402371755408,18.9101440557349
0.00488544951253083,18.9143777393179
0.00528351310138781,18.918761888482
0.00571512972232145,18.923328649587
0.00618865877343537,18.9281110789518
0.00670887565440541,18.933090273412
0.00724970229518904,18.9379641453882
0.00782409312200236,18.9428136185149
0.00843296562287127,18.9475997059353
0.00908231455064594,18.9523216334309
0.00977844765938305,18.9569737604712
0.0105375068476379,18.9616033667152
0.0113805731687709,18.9662600202968
0.0123250326964182,18.9709466390096
0.013396200027233,18.9756858927295
0.0146309607876722,18.9805228699513
0.0160935594164934,18.9855640578417
0.0179359595622559,18.9911181988469
0.0203717063641933,18.9975463082542
0.0219443693520937,19.0013730928763
0.0235516849768161,19.0051998774983
0.02495265896286,19.0086245407455
0.0261336983346711,19.0117614348181
0.0271083301360993,19.0147821758615
0.0278279611326675,19.017667768106
0.0282808909211521,19.0204796790969
0.0284554109200528,19.0233479600963
0.0282977248740265,19.0264737834523
0.0275816106988144,19.0304899018718
0.026737495564272,19.033420563363
0.0256740857313313,19.0363512248542
0.0245985457222564,19.0389295316
0.0235265453513216,19.0412984966187
0.0224536980314333,19.0435573999945
0.0213813743371633,19.0457555322672
0.0203129716478527,19.0479215278637
0.0192522400223324,19.0500745243243
0.0182028079851005,19.0522285730445
0.0171680590538216,19.0543947053509
0.0161510945634827,19.0565820731228
0.0151547418612297,19.0587986063053
0.0141815574698647,19.0610514618189
0.0132338417082323,19.0633473176285
0.0123136519022857,19.0656925880916
0.0114228024553079,19.0680936227539
0.0105628832083622,19.0705568295727
0.00973526587123135,19.0730888089786
0.00894110620036594,19.0756964961951
0.00817058275072497,19.0784269931906
0.00741383975777012,19.0813414715154
0.00667467439520104,19.0844612132105
0.00595691890138329,19.0878114469715
0.00526459823842584,19.0914213285205
0.00460188647413135,19.0953246705965
0.00397301975511045,19.0995609771441
0.00338215947619355,19.1041770061753
0.00283318922174252,19.1092294268308
0.00232943613417404,19.1147897634038
0.00187345400155108,19.1209522046059
0.00146836000050776,19.1278182562296
0.00112834074617723,19.1352145279675
0.000846773145680401,19.1432481961414
0.000617087911800437,19.1520638813203
0.00043322901889731,19.1618523811252
0.000304261058530942,19.1718523811252
0.00021906500183752,19.1818523811252
0.000160868151095397,19.1918523811252
0.000120387671617782,19.2018523811252
9.22805722032952e-05,19.2118523811252
7.30474074068514e-05,19.2218523811252
6.01483423594606e-05,19.2318523811252
5.17016701341604e-05,19.2418523811252
4.63509673631396e-05,19.2518523811252
4.31513256489595e-05,19.2618523811252
4.14583118729823e-05,19.2718523811252
4.08347237689183e-05,19.2818523811252
4.09827535428594e-05,19.2918523811252
4.16987280890182e-05,19.3018523811252
4.28437107696684e-05,19.3118523811252
4.43240519227307e-05,19.3218523811252
4.60780787245099e-05,19.3318523811252
4.80667817570838e-05,19.3418523811252
5.02672819888183e-05,19.3518523811252
5.26682992020628e-05,19.3618523811252
5.52670620327292e-05,19.3718523811252
5.80672436556144e-05,19.3818523811252
6.10776215846912e-05,19.3918523811252
6.43112515124439e-05,19.4018523811252
6.77850136108384e-05,19.4118523811252
7.15194382809366e-05,19.4218523811252
7.55387521620349e-05,19.4318523811252
7.987110930602e-05,19.4418523811252
8.4548990533583e-05,19.4518523811252
8.96097686378191e-05,19.4618523811252
9.50964500282387e-05,19.4718523811252
0.000101058615981974,19.4818523811252
0.000107553600155149,19.4918523811252
0.000114647954755107,19.5018523811252
0.000122419277385192,19.5118523811252
0.00013095849611404,19.5218523811252
0.000140372744621293,19.5318523811252
0.000150789006374858,19.5418523811252
0.00016235877265021,19.5518523811252
0.000175264052761218,19.5618523811252
0.000189725209872338,19.5718523811252
0.000206011293689802,19.5818523811252
0.000224453836448702,19.5918523811252
0.000245465526702186,19.6018523811252
0.000269565869318053,19.6118523811252
0.000297417038104673,19.6218523811252
0.000329874906811847,19.6318523811252
0.000368063204615921,19.6418523811252
0.000411471251703881,19.651434698864
0.000458844575195917,19.6602464293636
0.000510246607449717,19.6683381184304
0.000565829330904201,19.6757713436121
0.000625756144626649,19.6826029041256
0.000690182814134801,19.6888846895882
0.000759254320720236,19.6946644235867
0.000833099959809711,19.6999858232816
0.000911837573175182,19.7048889072119
0.000995574875617122,19.7094106215423
0.00108441449859724,19.7135847989594
0.00117845663742427,19.7174427101529
0.00127780823764329,19.7210131086167
0.00138259316296594,19.7243226306283
0.00149296013947017,19.7273959181593
0.00160910805034697,19.7302559510396
0.00173130290648176,19.7329242360539
0.00185991307266153,19.7354211338033
0.00199545950662142,19.7377661756809
0.00213868442900639,19.7399784981211
0.00229066408229503,19.7420774687188
0.00245300217089582,19.7440836420888
0.00262817969775365,19.7460204751821
0.00282026909924897,19.7479177605564
0.00303664981856071,19.7498198509103
0.00329330705792506,19.7518113284005
0.00364237864400037,19.7541522910744
0.00393941615949364,19.7558789593916
0.00427684381094396,19.7576056277087
0.00460884982670566,19.75910657787
0.00495002244496028,19.7604818392396
0.00532639945941644,19.7618372038596
0.00576969088587935,19.7632551334439
0.00633948940070075,19.7648501322087
0.00712375956498266,19.7667220797877
0.00798877377514259,19.7684611401307
0.00894030013792192,19.7700835505206
0.00999287134720441,19.7716161389435
0.0111686468774805,19.7730873137692
0.0125167676209427,19.7745440525441
0.0141752562072866,19.7760929994695
0.0164499332103107,19.777919442065
0.0183515388744016,19.7792721909276
0.0204043138812186,19.7806249397902
0.0223236987756807,19.7818400065608
0.0240211767853975,19.7829153178724
0.0255534837334419,19.7839256303039
0.0269348845763094,19.7849156804105
0.0281550186028779,19.785921180111
0.0291849838975458,19.7869840727936
0.0299674773835231,19.7881752655499
0.0303586051959795,19.7896913386437
0.0300646956807737,19.7913166273614
0.0291588896759179,19.7929419160791
0.0280553488176284,19.7942975033297
0.0267810056681516,19.7956126549834
0.025337664923057,19.7969695766064
0.023735887654801,19.798410935301
0.0219836019537072,19.7999779991822
0.0207299621496776,19.8011204703052
0.019538649500157,19.8022629414282
0.0169613710933002,19.8050178013147
0.0144553807778787,19.8082599090689
0.0126832116240664,19.8111499322967
0.0114369097620448,19.8137647792955
0.0105614927042705,19.8162298434549
0.00997693516430033,19.8186705839723
0.00968972820449463,19.8209231709369
0.00964863339344822,19.8230392934021
0.00982895696841988,19.8250743157309
0.0102332503989994,19.8270968154366
0.0109111398123078,19.8292260815312
0.0120222696775793,19.8316898603552
0.0136350209305891,19.8343887189213
0.015131492895451,19.8364302197408
0.0168904157138274,19.8384717205603
0.018646167899606,19.8402187055233
0.0204533044660387,19.8417736439077
0.0223939824497922,19.8432195390038
0.024523890732842,19.8445905573517
0.0268887167331889,19.8459020610743
0.029530927846441,19.8471616322516
0.0324929984980407,19.8483735296818
0.0358212705567609,19.849541261278
0.0395635480373735,19.8506669124958
0.0437745383167656,19.8517530397664
0.0485161362508704,19.8528022303937
0.0538597447963852,19.8538172463706
0.059888438340505,19.8548009844776
0.0666997891129912,19.8557564766953
0.074409418452182,19.8566868969976
0.0831555580273042,19.8575955813865
0.0931050440226417,19.8584860671026
0.104461338432036,19.8593621542509
0.117475408638884,19.860227991974
0.13246091069726,19.8610882067348
0.149816173676706,19.8619481034082
0.170057999296251,19.8628140143087
0.193881194403991,19.8636940691189
0.222007931339559,19.8645919133995
0.254527657081646,19.8654921845151
0.292259564538166,19.8664043954489
0.336394148947801,19.8673456755407
0.389161489039262,19.8683559162922
0.434294552488802,19.8691661376352
0.470812308849295,19.869814865669
0.502451545290898,19.8703961385899
0.530336677712246,19.8709502272998
0.554579782742824,19.8715017888077
0.574760715035363,19.8720749135806
0.589791662016432,19.8727046031321
0.596799760046951,19.8734340113275
0.592083616740538,19.8741838580655
0.574524036264204,19.8749770276512
0.543796763232274,19.8757995046523
0.500921787030769,19.8766313080641
0.442743959885292,19.8775240700478
0.388046564513287,19.8782359251165
0.326960833926815,19.8789477801851
0.274684041055686,19.8795172663761
0.231695435082482,19.8799735553383
0.19485960305187,19.8803653190947
0.162327325027125,19.8807190991533
0.13309638416878,19.8810496685861
0.106536019083405,19.8813669132919
0.0821705885886621,19.8816790623572
0.0595453030334711,19.8819951672333
0.038018179155477,19.8823299324082
0.0157692360644093,19.882728174618
0.00314659058666474,19.8829890767823
-0.0045260362038211,19.8831649952652
-0.0115530762168817,19.8833409137482
-0.0176831904961808,19.8835087575043
-0.0239300413397375,19.8836970992675
-0.0300805388135106,19.8839043382466
-0.0359246607571695,19.8841276379175
-0.0413411273008693,19.8843657115932
-0.0462640772718781,19.8846183422694
-0.0506611085453637,19.8848860535407
-0.0545203426768811,19.8851699405375
-0.0578426214897362,19.8854715994424
-0.0606365913290553,19.8857931216422
-0.0629118970190388,19.8861371375157
-0.0647452504878326,19.8865256499244
-0.0659726491978539,19.8869229826778
-0.0667249629870287,19.8873546401679
-0.0670145167025298,19.8878271843396
-0.0668476845069771,19.8883487355346
-0.066222450326153,19.8889305560418
-0.0651225166070669,19.8895885855385
-0.0635107819621318,19.8903453142191
-0.0613097003259529,19.891237404937
-0.0583389816809189,19.8923378589523
-0.0542508738310344,19.8937801244788
-0.050243695048485,19.8951708672475
-0.0463847064415654,19.896520937028
-0.0427115504455494,19.8978333386717
-0.0392442054387028,19.899109184167
-0.0359933511121198,19.9003486284698
-0.0329637695350311,19.9015513632958
-0.0301559605285768,19.9027168789803
-0.0275670782519329,19.9038446021088
-0.0251915990091729,19.9049339647999
-0.0230218742970556,19.9059844343807
-0.0210486249336213,19.9069955186043
-0.019261393328885,19.9079667546889
-0.017648954212194,19.9088976868133
-0.0161618877895173,19.9098118269927
-0.0147358514385631,19.9107493051044
-0.0133756846457765,19.9117115370499
-0.0120855219357288,19.9127005727817
-0.0108693332037005,19.9137188137419
-0.00973087291009605,19.9147691019496
-0.00867363219125622,19.9158548333676
-0.00770078954422655,19.9169801100539
-0.00681516036830982,19.9181499489626
-0.00601914551546426,19.9193705761305
-0.00531467876013015,19.9206498543131
-0.00470317283059318,19.9219979284036
-0.00418546339197209,19.9234282455463
-0.00376175037729825,19.9249592640367
-0.0034373096701522,19.9265824271203
-0.00321354493927397,19.9282496640478
-0.00307365410694669,19.9299792572309
-0.00300238152802329,19.93179164677
-0.00298509623002328,19.9337139704087
-0.00300725348711577,19.9357843397641
-0.00305357576219253,19.938060653577
-0.00310651485592929,19.9406415683803
-0.00314224880216101,19.9437314992563
-0.00312123881545388,19.9474640470698
-0.00301906394178524,19.9513241791784
-0.00285525119576207,19.9549615337042
-0.00266627800365901,19.9581772257238
-0.00245882509931399,19.9612147153358
-0.00223657597972028,19.9641783346232
-0.00200206093627164,19.9671236859278
-0.00175697374697332,19.9700871284195
-0.00150239682782191,19.97309577337
-0.00123895469141559,19.9761717757681
-0.000966911537100989,19.9793346074218
-0.000686242740971459,19.9826023452174
-0.000396684690702936,19.9859924940951
-9.77559644415454e-05,19.9895226721382
0.000211251361158037,19.9932112822264
0.000492490255712242,19.9966056411132
0.000770683063747509,20
