ecg,time
0.231821326754428,15.0001405269596
0.261590211355603,15.00125606393
0.287988768837093,15.0022159753217
0.31186525199313,15.0030903057974
0.33331358104456,15.003911162417
0.352110998740252,15.0046966702205
0.367896275353973,15.0054605245586
0.380184781660153,15.0062151013825
0.388321630421714,15.0069728357379
0.391392389848187,15.0077472804686
0.388072681782679,15.0085546552494
0.376275590900636,15.0094203955014
0.354636245432826,15.0103094361113
0.322407102391126,15.0112149923254
0.28999690338982,15.0119289249414
0.252126990405219,15.0126428575574
0.218047883599883,15.0132255405004
0.188184792442587,15.0137123321768
0.161350210167874,15.0141430386555
0.136882803982507,15.0145387252165
0.114404741437246,15.0149118898026
0.093655240379476,15.0152713772695
0.074418988079872,15.0156246478447
0.0564779772164992,15.0159794891105
0.0395376571820817,15.0163467736895
0.02297752770912,15.0167496748615
0.00912932480426393,15.0171354583456
0.00151371907095902,15.0173744901523
-0.00539309434072462,15.017613521959
-0.0112183696103737,15.0178362168926
-0.0165189815464749,15.0180603569168
-0.0217374976762839,15.0183068985133
-0.0266946482261367,15.0185725324046
-0.0312788771469782,15.0188553710301
-0.0354304827890088,15.0191549433329
-0.0391185083642368,15.019471711564
-0.0428004203061315,15.019864717735
-0.0453896881411898,15.020218895086
-0.0475012477637677,15.0205945361449
-0.0491517905890822,15.0209952566228
-0.0503527836515338,15.0214244924917
-0.0511156648607377,15.0218864223092
-0.0514506557772346,15.0223861642647
-0.0513655350850196,15.0229300512556
-0.0508640374733507,15.0235262353304
-0.0499416335529904,15.0241865291874
-0.0485848680031558,15.024925242367
-0.0467663166046029,15.0257625147839
-0.0444331571629936,15.0267291458119
-0.0414756861372837,15.027879734003
-0.0378717302674354,15.0292419273165
-0.0344119575463814,15.0305479689331
-0.0311414973288292,15.0318048168238
-0.0280785780112518,15.0330169175526
-0.0252301693290668,15.0341865521241
-0.0225967188732788,15.0353148454227
-0.0201744419310417,15.0364023034654
-0.0179566460143971,15.0374490953371
-0.0159346154037399,15.038455199415
-0.0140982679816855,15.0394204739903
-0.0124366756361589,15.0403446833654
-0.0108735358325857,15.0412669859312
-0.00936937731037507,15.0422127192912
-0.00792869941633814,15.043183535873
-0.00655545492992875,15.044181598967
-0.00525337885380653,15.0452094402523
-0.00402593686404881,15.046270054859
-0.0028762733816503,15.0473670242226
-0.00180715627414418,15.0485046814758
-0.00082091785784378,15.0496883395479
8.06088041925908e-05,15.0509246146868
0.000896160416199888,15.0522219007292
0.00162512484716451,15.0535910925366
0.00226764129514318,15.055046744854
0.0028247351635125,15.0566090476241
0.0032831322960516,15.0582445593897
0.00364520355467733,15.0599287616179
0.00392735140479991,15.0616801365292
0.00414448347948604,15.0635206834948
0.00431083215535519,15.0654799639318
0.00444051277267103,15.0676002466244
0.00454844298621528,15.0699474050377
0.00465230104465874,15.072638332248
0.00477864345786044,15.0759352247822
0.00494316958223684,15.0796867096744
0.0051553992128391,15.0837437170489
0.00544655152075193,15.0885070825024
0.005794249575358,15.0935875286379
0.00620181781285275,15.0991265901984
0.00662932486777101,15.1046661487268
0.00706597350448047,15.110136742051
0.00750738145245941,15.115520017267
0.00794989161172509,15.1208036386471
0.0083901112950387,15.1259929399334
0.00882327822164582,15.1310971668892
0.00924300427255184,15.1361257085962
0.0096416236509072,15.141085678914
0.0100112252901455,15.1459817444387
0.0103451994555889,15.1508163970029
0.0106401284294306,15.1555901826132
0.0108977540366314,15.1603021142438
0.0109576909375044,15.1614748654606
0.0110196583553895,15.1626476166774
0.0111187869323532,15.164258773535
0.0114554819236003,15.1685126852283
0.0119454133906803,15.1732083244277
0.0125491191807829,15.1778531372831
0.0132859684823126,15.1825450808469
0.0141804398524041,15.1873044049714
0.0152518440114368,15.1920841112135
0.0163914128722281,15.1964034261587
0.0176290583932921,15.2004758833343
0.0189914896063257,15.2044496961156
0.0204985770287817,15.2084461140493
0.0221485241252187,15.2125737832089
0.0235371830468091,15.2160388447218
0.0247160299183458,15.2191573156843
0.0257058423682202,15.222131567106
0.0264663246398132,15.2249847510789
0.0269717400575812,15.2277420445462
0.0272135845961856,15.230524684232
0.0271506775681034,15.2335027586741
0.0267811245125233,15.2363458550208
0.0261717290346897,15.239040655396
0.0253831712341047,15.2416169688408
0.0244611581188841,15.244110820625
0.0234319699476707,15.2465706676032
0.0223838044816844,15.2488847076021
0.0213315366854796,15.251098876199
0.0202780929212807,15.2532572534098
0.0192268179159801,15.2553877421092
0.0181811982720329,15.2575096292857
0.0172402119549313,15.2594396270412
0.0163950837187516,15.2612019331498
0.0155829653845839,15.2629310845307
0.014757275333629,15.2647346886071
0.0138599121593192,15.2667589650819
0.0128930202463232,15.2690311895315
0.0119452983292853,15.2713697044812
0.0110198012542028,15.2737821149329
0.0101172514884457,15.2762824130886
0.00923797359895703,15.2788872853388
0.00838126456244019,15.2816191026624
0.00754535759153838,15.2845080788309
0.00672663026777877,15.2875983762007
0.00591702945224749,15.2909655198853
0.00509901037053453,15.2947599592872
0.00456966895486583,15.2978287381114
0.0042273456743196,15.3004519580415
0.00391068205648721,15.3035986426773
0.00358507607709107,15.3080998481743
0.00341327756332972,15.3118082985764
0.00333238585846248,15.3150447266366
0.00332025692637874,15.3180173608957
0.00337086805666707,15.3208391105167
0.00348536784648488,15.3236083748718
0.00367205550372142,15.3264587450984
0.00395758821891073,15.3297018610305
0.0042161608710952,15.3322730712959
0.00446883329409461,15.3348442815614
0.00466573277805227,15.3372085693067
0.00481218136032201,15.3397083677453
0.004888683368928,15.3426148930872
0.00486405930945784,15.3459353072979
0.00476641691799407,15.3490469223678
0.0046468752745719,15.3519435720788
0.00452402341462528,15.3549800334318
0.00441576112130672,15.3584416141761
0.00435606736872698,15.3622790423762
0.00437560256761941,15.3667332492478
0.00450020642755357,15.3715543969356
0.00472433735209069,15.3763755446233
0.00502703927201672,15.380963741005
0.00538090854430442,15.385122880362
0.0057940843643399,15.389052835087
0.00626797842977647,15.3927624256937
0.00680717833653931,15.3962667032452
0.00741515842323601,15.3995656347406
0.00809451382756584,15.4026581374826
0.00884708037699707,15.4055461527917
0.0096745364395923,15.4082367706379
0.0105785602431316,15.4107407052731
0.011569788944437,15.4130902406252
0.0126800358572744,15.4153474389123
0.0139237777113276,15.4175173297023
0.0153176450222603,15.4196052282635
0.0168813462366715,15.421617311368
0.0186375700439109,15.4235595397049
0.0206133864261714,15.4254385226838
0.0228415675656394,15.4272615955135
0.0253617509385266,15.4290365078376
0.0282237871583515,15.4307723689929
0.0314917386669197,15.4324800017925
0.0352523135962164,15.434173560601
0.0396298025120768,15.4358728844103
0.0448233279218289,15.4376104479168
0.0510371129897021,15.4394035697262
0.0583243197533323,15.4412286148579
0.0670669425517759,15.4431538221075
0.0742379057731608,15.4445959734124
0.0817612298572103,15.4460381247173
0.0884410960307376,15.4473074418945
0.0942055230236641,15.4484428114822
0.0991108351842984,15.4494955934384
0.103115663127139,15.4504964221199
0.106116413676021,15.4514667726149
0.107957624543264,15.4524254680545
0.108415596486858,15.4533935390349
0.107135496746795,15.4544021683754
0.103369872159019,15.4555228534475
0.0967147371796929,15.4566900898966
0.0894823702651307,15.4576220530336
0.0807644035222859,15.4585540161707
0.0721933244868555,15.4593675562105
0.0639729533589648,15.4600977596603
0.0560545434414821,15.4607791208202
0.0484327434997395,15.4614306023776
0.0411173972390177,15.4620645166128
0.0341171352502372,15.4626905240704
0.0274319954195286,15.463317737178
0.0210456085969716,15.4639567459565
0.0149066359770054,15.4646234960716
0.00885880758823292,15.4653523797083
0.00208313777808039,15.4662968605063
-0.00174284390200304,15.4669200445681
-0.00508024484645939,15.4675432286299
-0.00778415107593742,15.4681256804964
-0.0100227013707816,15.46868310327
-0.0119366696960349,15.4692373898589
-0.0136447400285557,15.4698209036269
-0.0151330394668451,15.4704338300442
-0.0163947336491791,15.4710770880805
-0.0168217254700895,15.4713345294912
-0.0171925195664607,15.4715919709019
-0.0177942028454522,15.472151676411
-0.0181626027962824,15.4727420383925
-0.0183018884470144,15.4733644945532
-0.0182190658148098,15.4740216618891
-0.0179224066612697,15.4747168524167
-0.0174195559123944,15.4754557885451
-0.0167194572850686,15.4762427980738
-0.0158323391794755,15.4770829234755
-0.0147696016690384,15.4779821528368
-0.013543599153214,15.4789478270537
-0.0121671306165466,15.4799894114886
-0.0106522281683193,15.4811200724041
-0.00921586494879618,15.4822010889458
-0.00780749438680851,15.4832880449626
-0.00643755184252522,15.4843870620253
-0.00511367251050503,15.4855040945528
-0.00384231532540546,15.4866445747204
-0.00262889383563156,15.4878138766484
-0.0014778636690389,15.489017670476
-0.000392759067001495,15.4902622615924
0.000623813132140689,15.4915549736912
0.00157022108341336,15.4929046400152
0.00244590404720741,15.4943222957546
0.00325153699606702,15.4958222312624
0.00398930776500061,15.4974237143221
0.00466340586255029,15.4991540437861
0.00525341418210935,15.5009617593704
0.00576407198863594,15.5028291264163
0.00621554570263058,15.5047840565945
0.00662691428648675,15.5068602648519
0.00701831517834692,15.5091047514591
0.00741355879687559,15.5115899478258
0.00784605894698685,15.5144442358204
0.00837861144933552,15.5179581945449
0.00902440391409812,15.5220289047018
0.00978141419297231,15.5264584994845
0.0106015085228967,15.5308721824654
0.0114845890618026,15.5352418144391
0.0124587740703794,15.539664535742
0.0135429707432093,15.5441541629808
0.0147627920163359,15.548724715818
0.0161601374939629,15.5534207205668
0.0178138151706133,15.5583627022032
0.0199300757771372,15.5639384413726
0.0220003360781537,15.5688209254466
0.0237272317158812,15.5726288285514
0.0254976290734569,15.5764367316561
0.0270260241732955,15.5797933671549
0.0283252021979178,15.582863245699
0.0294157163528807,15.5858185791083
0.0302451847817036,15.5886327819139
0.0308069344450709,15.5913737184404
0.0310938516143855,15.5941670147022
0.0310602017631295,15.5972042335322
0.0305119687633165,15.6010697992986
0.0297753875016955,15.6039515161299
0.0288095237719762,15.6068332329612
0.0278160517920902,15.6093567512288
0.0268160960736684,15.6116679871364
0.0258075605129454,15.6138678524143
0.0247925890303053,15.6160057930417
0.023774628093042,15.6181102338999
0.022756993789834,15.6202000637707
0.0217424990835311,15.6222890973998
0.0207333535145794,15.6243881730977
0.0197311356305827,15.6265062784583
0.0187367725896282,15.6286512359857
0.0177505249569287,15.630830140578
0.0167719631508548,15.6330496786687
0.0157999475687943,15.6353163653691
0.0148326119178218,15.6376367443846
0.0138673565587171,15.6400175728958
0.0129008671746848,15.6424659908554
0.0119291587735387,15.6449897135118
0.0109314539250043,15.6476407727579
0.00988783807408115,15.6504721038758
0.00917085334243299,15.6524483158311
0.00863640973796048,15.653945782526
0.00812628883099612,15.655443249221
0.00704297112392884,15.6588892016182
0.00600109587830915,15.6625879606989
0.00498486456528294,15.6666117224154
0.00402368372464033,15.6708487145526
0.00321244564857449,15.6747990582947
0.00252323130095464,15.6784693610634
0.00193348022828415,15.6818841230282
0.00142657881434093,15.68506761806
0.000999732467898353,15.6880434208034
0.00064384180755619,15.6908346478508
0.000342895847880744,15.6934643495851
8.57738561584275e-05,15.6959561758858
-0.000135733099538758,15.6983355234088
-0.000328107895820638,15.7006317095801
-0.000496878862116037,15.7028825605579
-0.000647338662098869,15.7051459142238
-0.000785990245240431,15.7075379012315
-0.000928557957356663,15.710470736101
-0.00100540677848013,15.7123686895681
-0.00107075156676336,15.7142666430352
-0.00112036418693989,15.7159820960443
-0.00115894926186617,15.7175828793032
-0.00119035992507247,15.7191788878408
-0.00121633156760827,15.7208698804114
-0.00123739620080127,15.7228121849841
-0.00125211448811995,15.7254863700433
-0.00124688510178552,15.7293453237639
-0.00122084177049671,15.7325630947365
-0.00118025941921377,15.7355854819952
-0.00111711981249236,15.7390146681082
-0.00103004648071357,15.7427311348344
-0.00092984600094191,15.746288308192
-0.000811395696696725,15.7499100036936
-0.000666676949691715,15.7537515413664
-0.000494337360307139,15.75769683328
-0.00030671406148107,15.7613704317674
-0.000102015350421682,15.7647820807327
0.000123468894898099,15.7679615939532
0.000374381406502239,15.7709381237246
0.000656574987674711,15.7737443376489
0.000977918491529289,15.7764218197796
0.0013491444138923,15.7790228115586
0.00178623127348963,15.7816220639169
0.00231816135354028,15.7843549757229
0.00287558851645882,15.7869344351463
0.00345619262352809,15.7895138945697
0.00393714153151696,15.791712171462
0.00437023393783441,15.793874110812
0.00479110318888724,15.7963135120048
0.00522881349327465,15.7995205295015
0.00550241479663591,15.8021083678648
0.00573602715169967,15.8046962062281
0.00594764894644654,15.8071115913807
0.00618413748875884,15.8095686653409
0.00648539535205205,15.8121831956274
0.00688102886004078,15.8149225390123
0.00739707361009336,15.8177379675408
0.00804326913149707,15.8205347420971
0.00880451155895532,15.8231916379175
0.00966044937719277,15.8256472306709
0.0105997944352761,15.8279001844482
0.0116506525098256,15.8300303315098
0.0128225723951298,15.8320494736126
0.014128535688433,15.8339692679291
0.0155832518464586,15.8357984802826
0.0172042269541748,15.8375450666128
0.0190117176674812,15.8392159945339
0.0210287068107511,15.8408172219266
0.0232819321458889,15.8423544365608
0.0258018787995749,15.8438327254338
0.028624210319652,15.8452571468572
0.0317902918555176,15.8466325097011
0.0353491025199008,15.8479637388909
0.0393588080357369,15.8492558194744
0.0438898650080038,15.8505140841592
0.0490288108126213,15.8517443405593
0.0548847852272558,15.8529532850165
0.0615994826906876,15.8541489996628
0.0693654221406764,15.8553420202888
0.0784607507047017,15.8565473044977
0.0893287640957927,15.8577889664251
0.102127461334399,15.8590520287633
0.117102091357142,15.8603374295183
0.13490634896733,15.8616817906636
0.151993317286314,15.8628483344185
0.170254369758939,15.8640148781734
0.186711224832327,15.8650349624862
0.201419390667618,15.8659548608395
0.21452759122684,15.8668155267578
0.225920835500715,15.8676387990545
0.235344560993287,15.8684384410329
0.242451176746713,15.8692248192323
0.246807190141748,15.8700072684859
0.24787114536458,15.8707961477731
0.244915313265578,15.8716061850793
0.23671732314478,15.8724689716719
0.221877915403219,15.8733873799241
0.200133316928723,15.874329087315
0.181814178519022,15.8749721242739
0.161172121480594,15.8756151612328
0.141526138945949,15.8761828618655
0.123272781805022,15.876691048606
0.106210396912806,15.8771614067931
0.0902155050782585,15.877607369753
0.0752085857375988,15.87803825159
0.0611202557758234,15.8784616812356
0.0478710567531829,15.8788851776707
0.0353448443199026,15.8793180900592
0.0233166094832563,15.8797763089304
0.0111000602822513,15.8803040341729
0.00249659438199657,15.8807309393333
-0.00314653838466921,15.8810462254011
-0.00821357163194573,15.8813615114689
-0.012492879940131,15.8816589215667
-0.0164561892898581,15.8819679476299
-0.0202080249243148,15.8823003152413
-0.0236659059903891,15.8826538977563
-0.0267818329274748,15.8830279264696
-0.0295312917996513,15.8834227803102
-0.0319036869052239,15.8838396396021
-0.0338968408220251,15.8842803139901
-0.0355075254515789,15.8847471735956
-0.0368903880343024,15.8853488065155
-0.0375580336938883,15.8858592544901
-0.0378612820869313,15.8864043186858
-0.0378100833200294,15.8869898095202
-0.0374117375342627,15.8876216291077
-0.0366695836234943,15.8883087498041
-0.0355845638897757,15.8890604152256
-0.0341545677819228,15.8898883832291
-0.0323727957838698,15.8908081713541
-0.0302245001657222,15.8918414616548
-0.0276788894337126,15.8930215960307
-0.0249755168186594,15.8942647868082
-0.0224433720909359,15.8954458751638
-0.0201003749509584,15.8965705029003
-0.0179474362829719,15.8976438643475
-0.0159800238611395,15.8986691332718
-0.0141905622155757,15.8996482488118
-0.0125697058078537,15.900582378296
-0.0110239122770567,15.9015243581693
-0.00953531195204246,15.9024889451518
-0.00810870102866467,15.9034781833951
-0.00674837459486434,15.9044945195011
-0.00545831121617545,15.9055407640272
-0.00424213742308374,15.9066202000883
-0.00310308696222079,15.9077367222153
-0.00204395361418348,15.9088950216367
-0.00106703758232533,15.9101008413651
-0.000174084335625343,15.9113613391695
0.000633786748040414,15.9126856234663
0.00135616943986726,15.9140855794741
0.00199348446808602,15.9155772119161
0.00254714323502073,15.9171829786608
0.00299843571171633,15.9188459933632
0.00335768047473737,15.9205627212642
0.00364107638210071,15.9223527698655
0.00386358381071136,15.9242406104351
0.00403962071554709,15.9262595926834
0.00418376573213097,15.9284585008106
0.0043119936553088,15.9309160524031
0.0044446178823413,15.9337804274268
0.00461736923446856,15.9374294350129
0.00482249428094651,15.9412659820216
0.00507401214184179,15.9453556531824
0.00536834349892964,15.9496124110643
0.00570460841958789,15.9540687834873
0.00608250173900403,15.958759598807
0.00650478079961867,15.9637234208395
0.00695263112634012,15.9687155335932
0.00742129129930032,15.9736517787101
0.00791568608215975,15.9785390110016
0.00843961672075513,15.9833603235141
0.00899894778591868,15.988113081397
0.00960042933864404,15.9927967964966
0.0102517346816846,15.9974125988626
0.010965268122123,16.0019852663193
0.0117652165576075,16.0065887916695
0.0126675128156912,16.0112176264137
0.0136958273832404,16.0158886648589
0.0148835113433416,16.0206361844795
0.0162862049890781,16.0255431626723
0.0180245109989643,16.0308377426475
0.0204898556756571,16.0373354502072
0.0221314459342916,16.0412587854225
0.0238341262215881,16.0451821206378
0.0253192481977688,16.0486432764472
0.0265720120698488,16.0517641379426
0.0276169794073738,16.0547355904609
0.0284179808274007,16.0575839747816
0.0289514274124857,16.0603323521077
0.0292120173368479,16.0631009629741
0.0291609562791134,16.0660557005228
0.0286542861785486,16.069604554176
0.0278533329400067,16.072693491673
0.0267733708858172,16.07578242917
0.0256892781009423,16.0783951966482
0.0246153041486187,16.0807456533767
0.0235403953851817,16.0829662776778
0.0224642017491667,16.0851158697809
0.0213897737309491,16.0872263359527
0.0203208079578441,16.0893182202561
0.0192609438315566,16.0914062432484
0.0182135836057984,16.0935017565615
0.017181846074729,16.0956140365276
0.0161685651324785,16.0977510368677
0.0151763011058439,16.0999198664709
0.0142073507752246,16.1021271249116
0.0132637632119069,16.1043791376519
0.0123473483615735,16.1066821540454
0.0114596872193754,16.1090425115997
0.0106021438607177,16.1114667793754
0.00977587200398615,16.1139619117969
0.00897206426734386,16.1165682413258
0.00817877423943188,16.119348451741
0.00739970081562559,16.1223228413792
0.00663859240193633,16.1255155976055
0.00589943198907758,16.1289548080989
0.00518640124962248,16.132673273948
0.00450382838447144,16.1367095093616
0.0038560866934436,16.1411091785487
0.00324818398002078,16.1459274075985
0.00268492263740693,16.1512330923634
0.00216929975109218,16.1571169607004
0.00170772785061219,16.1636339929738
0.00140907560655314,16.1687936867141
0.00117461183036444,16.1739533804545
0.000920382042303656,16.1811995269718
0.000712556677414441,16.1889967052792
0.00054137687349851,16.1974884560668
0.000397217422384941,16.2073141428863
0.000295044950579356,16.2173141428863
0.000225451818992611,16.2273141428863
0.000182113255918018,16.2366572861338
0.000156301745567398,16.2451625338163
0.00014159510598802,16.2529077818642
0.000134243120364743,16.2599724472083
0.00013198561887339,16.2664275408154
0.000133380554562935,16.2723366414539
0.000137462533109271,16.2777569957286
0.000143563382597095,16.2827403791634
0.000151211453813304,16.2873339469862
0.000160070093908042,16.2915809164438
0.000169898578122053,16.295521290658
0.00018053571273541,16.2991926020928
0.000191875310692225,16.3026308067165
0.000203873695217851,16.3058714657909
0.000216548857763864,16.3089515459554
0.000229993447461817,16.3119125680857
0.000244432527713072,16.3148070839395
0.000260345073158289,16.3177149889671
0.000278911005221218,16.3207998116244
0.000305146481949779,16.324701775977
0.000322594881965055,16.3270405856888
0.000341438990070765,16.3293793954007
0.000359901288392686,16.3315057993184
0.000378631257236649,16.3335169000307
0.000399896406436471,16.3355456601616
0.00042612453654714,16.3377271501355
0.000461732153756629,16.3403035636992
0.000527165102546539,16.344286370197
0.00060922244411159,16.3483951225684
0.000690409446713713,16.3518389972568
0.000785298341995211,16.3553546824848
0.000909117118831894,16.3593882210699
0.00108527404750779,16.3643882444304
0.00129426283836217,16.3694534793331
0.00152419851718115,16.3741290511284
0.00178042747652115,16.3784392555777
0.00206829173600043,16.3824053696404
0.00239461050900259,16.3860753341268
0.00276933622547531,16.3895229140683
0.0032071986964431,16.3928393136466
0.00373345845842783,16.3961544349823
0.00436736613874157,16.3995353357302
0.0051599721925852,16.4032231803123
0.00607030335994944,16.4071038678204
0.00686120320680045,16.4103710895955
0.00787175811140135,16.4145006634508
0.00851129153939632,16.417029186954
0.00919377659786171,16.4195577104571
0.00988435737859074,16.4218724594378
0.0106141178230562,16.4240331193794
0.0114034296078891,16.426066987471
0.012293738023446,16.4280442873579
0.0133036814503926,16.4299641640352
0.0144493598840754,16.4318217906124
0.015742143088863,16.4336078160848
0.0171996826740798,16.43532436438
0.0188343195984856,16.4369673129015
0.0206656248796468,16.4385405102188
0.0227154418505188,16.4400477537692
0.0250075236277615,16.4414922666861
0.0275702879642289,16.4428782026696
0.0304374495920303,16.4442101161809
0.033647391644932,16.4454921131358
0.0372444411006751,16.4467281422963
0.0412814176652083,16.4479224434238
0.0458200204154545,16.4490790841826
0.0509334053676389,16.45020218433
0.0567097143367165,16.451296102116
0.0632562629121479,16.452365498041
0.070705966509482,16.4534155277716
0.079227136868934,16.4544521397139
0.0890397134735877,16.4554826077408
0.100442136025798,16.4565163276757
0.113862746534244,16.457566466492
0.129952966656032,16.4586525064491
0.148619087479777,16.4597425268725
0.170410290972526,16.4608515698587
0.196130716691759,16.4620031524079
0.227126089624206,16.4632394613157
0.260476458899455,16.4644543859894
0.289840087590218,16.4654714889514
0.316134790310032,16.4663729992661
0.339809382262678,16.4672062143556
0.360783723385315,16.4679948942062
0.378783289561164,16.4687554442154
0.393400220257189,16.4695019532888
0.404056570866863,16.4702481312056
0.409916360618532,16.4710086054156
0.409733740819936,16.4718004581819
0.401567548143966,16.4726463238781
0.3835260398818,16.473528817013
0.354832404727547,16.4744246294517
0.314415398549912,16.4753478518295
0.28201279424119,16.4759600550532
0.245882889073159,16.4765722582769
0.212612584996611,16.477099025511
0.183024028728887,16.4775534205104
0.156310626029227,16.4779621876899
0.131926289615968,16.4783417151743
0.109521118459389,16.478702654849
0.0888352852650472,16.4790531040007
0.0696389700010831,16.4794004774678
0.0516755923421066,16.4797534565646
0.0345379081416808,16.4801263785045
0.0170672468516749,16.4805602633598
0.0102095494891262,16.4807514368271
0.00385247280888763,16.4809426102944
-0.00323526655541537,16.4811754536118
-0.00922244515862417,16.4813925522407
-0.0146226039273946,16.4816088737871
-0.0199685699827956,16.4818477190415
-0.02506647256227,16.4821056368107
-0.0297940524976496,16.4823805806311
-0.0340853809927961,16.4826719633089
-0.0379038013612443,16.4829801549703
-0.0415484812496073,16.4833424341334
-0.0442797140197919,16.4836861059779
-0.0465242448229051,16.4840507856756
-0.0482965124922117,16.4844396912785
-0.0496079495381766,16.4848561226877
-0.0504701393249907,16.4853041030126
-0.0508935251272909,16.4857885646311
-0.0508861062766769,16.4863156128626
-0.050451978124204,16.4868929187892
-0.0495871807883009,16.4875317506133
-0.0482779566955122,16.4882459909202
-0.0464964153890145,16.4890548161972
-0.0441892905067427,16.4899872498747
-0.0412483502935974,16.4910936780994
-0.0374309856164413,16.4924770782753
-0.0337418035388965,16.4938021385658
-0.0302319009575932,16.4950779143159
-0.0269240939748497,16.4963092245606
-0.0238283019549258,16.4974984796516
-0.0209471757382651,16.4986468288717
-0.018278718733879,16.4997547568309
-0.0158177380051701,16.5008223956574
-0.013556783926685,16.5018496876288
-0.0114868385458344,16.5028364653728
-0.0095978612377935,16.5037824841556
-0.00787128958867664,16.5046917206657
-0.00619209662025557,16.5056238252408
-0.00456472382098192,16.5065799791366
-0.0029923324677609,16.5075621672401
-0.00147780220127821,16.508572698632
-2.36638016546428e-05,16.5096142916821
0.00136796250723013,16.5106901789085
0.00269543049912239,16.5118042465532
0.00395763066140817,16.5129612244932
0.0051540481313823,16.5141669513484
0.00628480868181553,16.5154287558184
0.00735069960222344,16.5167560251308
0.00835314055535702,16.5181610899907
0.00929405537097513,16.5196606789059
0.010174399686902,16.5212762168948
0.0109478132710179,16.5229304029194
0.011625178269135,16.5246418498544
0.0122100456503297,16.5264295913123
0.0126989884312257,16.5283185722736
0.0130788509072505,16.5303431623458
0.0133102821381045,16.5323911954039
0.013384954786594,16.5345480491778
0.0132603388604244,16.5369767303617
0.0127506754956226,16.5402788733372
0.0121583337684791,16.542679656863
0.0114138728281223,16.5450804403887
0.0106319670644872,16.5472730248907
0.0102257259641079,16.5483386669994
0.00982112339938902,16.5494043091081
0.00936028309129486,16.5506926054977
0.00849610296997334,16.5533709436952
0.00771123671078358,16.5561775005592
0.00700513085165983,16.559104276605
0.00636781035979464,16.5621773519755
0.00579031498661589,16.5654270151816
0.00526461861414129,16.5688886378767
0.00478359717377545,16.5726048827458
0.00434149908345888,16.5766287882343
0.00393549884320936,16.5810283257939
0.00356972633575699,16.5858935378796
0.00331107347407155,16.5903736140511
0.00315519017993974,16.5942428071274
0.00307638138577215,16.5977593529862
0.00306495882577128,16.6011262806349
0.00312332327309462,16.6045174821307
0.00326915630395794,16.608166385549
0.00352718613917405,16.6121386058386
0.00386167064174478,16.6158743259697
0.00424677410913836,16.6193407569116
0.00466622286834005,16.6225753524985
0.00510871057491704,16.625609926112
0.00556705289941562,16.628473128312
0.00603765292426001,16.631193594935
0.00652022813066634,16.6338024319454
0.00701826633607494,16.6363375360382
0.00754085410235711,16.6388520859395
0.00810899331490209,16.6414392738525
0.00878489187211582,16.6443427489862
0.00939981342406885,16.6468372581664
0.010048346011481,16.6493317673466
0.0105991085604364,16.6513496266996
0.011113000882525,16.6531555605395
0.0116347914992207,16.6549186352167
0.0121988023109301,16.6567498898561
0.012855834506181,16.6587929750717
0.0137374350860923,16.6613959375923
0.015332737183939,16.6657595575808
0.016779767031804,16.6694032972498
0.0181367816370714,16.6726155649294
0.0196892440679226,16.6761247064172
0.0214346232877532,16.6799735447149
0.0230022774716423,16.6834840788769
0.0243301420124721,16.6866536687779
0.025445145845372,16.6896656934117
0.026321619933374,16.6925841376839
0.0269207461203864,16.6953946840275
0.0272395760634822,16.6982166282798
0.0272435690083158,16.7012090290114
0.0268092166874976,16.7047238064523
0.0257197256853443,16.7089417333978
0.0244585791813541,16.712370785656
0.0232577381742818,16.7151309364062
0.0220526858743549,16.7176565685809
0.0208351599606181,16.7200698535465
0.0196205088684328,16.7224021831146
0.0184278136153682,16.7246617229153
0.0172678251002924,16.7268623502376
0.0161383255085756,16.7290352067568
0.0150279153591069,16.7312255624175
0.0139212618890806,16.733487608868
0.0127944395530988,16.7359004275922
0.0122236542911931,16.7371751879561
0.0118380395090249,16.7380596420196
0.0114783313506736,16.7389440960831
0.0109280587640199,16.7404540242098
0.0103926955870749,16.7421194711846
0.00985734688873878,16.7439813271698
0.00928759265827192,16.7461637847531
0.00864425858614191,16.7488413994494
0.00788477950264264,16.752248069404
0.0071190071596411,16.7559493254698
0.00641249749228935,16.7596561409618
0.00575108626154362,16.7634793392642
0.00510489184422475,16.7676919312083
0.00446349150576076,16.7725649319838
0.00388918811219997,16.7778099615425
0.00339038684668579,16.7833887591565
0.00295886215244965,16.7893557851372
0.00260300588864921,16.7954183059612
0.0023615318690911,16.8003185611237
0.00217414609011667,16.8046317852503
0.00201304717552831,16.8087131749288
0.00186308358425383,16.8128060012061
0.00171057399469767,16.8172076086852
0.00155180913662126,16.821952852135
0.00139703839213234,16.8266199149174
0.00124045043449463,16.8312614397232
0.00110305934052035,16.8351909943654
0.000969700177985693,16.8388395499479
0.000834050360643616,16.8423686238804
0.000692523763811599,16.8458555346364
0.000542518454420091,16.8493478088237
0.000381958192710545,16.8528794486035
0.000270200641749668,16.8564774492876
0.000266841007716169,16.860165004372
0.000319255116560172,16.8633222210755
0.000418163713782667,16.867141230799
0.000544421210471426,16.871191892214
0.000687165981983901,16.8754116845171
0.000843280500560393,16.8798226255717
0.0010121730216031,16.8844491630695
0.00119303146621927,16.8893187373025
0.00138312393542074,16.8944629961248
0.00157715522573049,16.8999194824399
0.0017674781131655,16.9057341356074
0.00194484571123481,16.9119649821657
0.00209514663994519,16.9184769588963
0.00221276525272047,16.925364308222
0.00229435503761096,16.9328623582592
0.00233604120268938,16.9414345981715
0.0023318000320589,16.9514345981715
0.00229204550979707,16.9614345981715
0.00223836417435927,16.9714345981715
0.00219447971032631,16.9801681254249
0.0021653705586912,16.9882415384152
0.00215325903052696,16.9960280147407
0.00216002216519148,17.0037001349789
0.00218676020834167,17.0113596843126
0.0022331522412625,17.0190809964816
0.00229840377109303,17.0271757592995
0.00237490349537418,17.0357534436753
0.00243758290618779,17.0444298742277
0.0024515238635454,17.0517233381596
0.00240743561368371,17.0581896769049
0.00229723929860811,17.0640795658803
0.00211128432222217,17.0696435554584
0.00183738894371323,17.0750583131095
0.00145955560590111,17.0804850111798
0.00133982418883331,17.0819417063486
0.00122141292376516,17.0833984015174
0.000907044743970906,17.0876793424532
0.000596647417238532,17.092452537096
0.000284290711113191,17.0976478241685
1.91942811583299e-05,17.1024328267588
-0.000220903434998671,17.1069882795687
-0.000437270945824611,17.1112363784559
-0.000630737994966588,17.1151910853066
-0.000800827587733736,17.1188713262224
-0.000947359998434722,17.1222956457503
-0.00107106387253984,17.1254829751661
-0.00117350788233391,17.1284523888727
-0.00125679610861395,17.1312223000747
-0.00132328717755684,17.1338109111315
-0.00137534314129461,17.1362357659245
-0.00141517951010068,17.1385140694582
-0.00144477463624343,17.1406628505496
-0.00146583123365622,17.1426992865184
-0.00147976765925164,17.1446414768928
-0.00148772062425833,17.1465095561316
-0.00149054408093066,17.1483279847298
-0.00148877553026045,17.15013066791
-0.00148249857646491,17.1519746778552
-0.0014707319279719,17.1539940846869
-0.00145484453408568,17.1559399903577
-0.00143936941285492,17.1574728145232
-0.00142142905020098,17.1590056386888
-0.00140341363166518,17.1603752141996
-0.00138470492751467,17.1616720281458
-0.00136427495114925,17.1629800175318
-0.00134070454980352,17.1643820483656
-0.00131104398725069,17.1660210211814
-0.00126400316931314,17.1684059595503
-0.0011995090584155,17.1713648485407
-0.00113840629460708,17.1739219772454
-0.0010732645408665,17.176445399613
-0.00099130809683558,17.1793833719417
-0.000870988389296759,17.183326140611
-0.000742110781715775,17.1871754898224
-0.000617037560947564,17.1906224738836
-0.000471728143577145,17.1943200647989
-0.000286954825397566,17.198570047322
-9.05300698636048e-05,17.2025384171979
0.000118741298253856,17.2061831832967
0.000345198571379594,17.209527781474
0.000594106388458283,17.212602550483
0.000872297721784627,17.2154380148466
0.0011882766766507,17.2180674983783
0.00154990472331259,17.2205275729692
0.00196758833489503,17.2228593137077
0.00245667641688395,17.2251161844709
0.00304180377722292,17.2273755940296
0.00377190882659312,17.2297831366523
0.00442058162362087,17.2317062103449
0.0051009867745999,17.2336292840376
0.00572513642704642,17.2353933000132
0.00633058252748222,17.2371763545836
0.00697197372576109,17.239221130458
0.00772548364680073,17.241928338206
0.00822952790706164,17.2439391892438
0.00871328407437243,17.2459500402816
0.0091764143235156,17.2478373410938
0.00966374295672886,17.2496796761668
0.0102177776992654,17.2515414682742
0.0108613858150183,17.2534067205738
0.0116368014424578,17.255308902424
0.0125475995530763,17.2571819683438
0.013619503769691,17.2590263850617
0.0148555722989402,17.2608087696173
0.0162679484504685,17.2625221683146
0.0178655405149446,17.2641596566559
0.0196634688386504,17.2657230019516
0.0216790731054967,17.2672149509596
0.0239351126849007,17.268640502062
0.0264580430597519,17.2700044282933
0.029278660160354,17.2713113204554
0.03243341508333,17.2725658258941
0.0359643371081558,17.2737722041582
0.039920155432781,17.2749344758336
0.0443579251158456,17.2760565787233
0.0493443940689229,17.2771423238359
0.0549582707876669,17.278195492361
0.0612933776911832,17.2792199503165
0.0684625238007067,17.2802197072475
0.0766031364615391,17.2811990441072
0.0858853885552897,17.2821626884408
0.0965239886326935,17.2831160371672
0.108796456249974,17.2840655149021
0.123072901673044,17.2850191650751
0.139867930873965,17.2859876938608
0.159934533749122,17.2869862595438
0.183173409569538,17.2879868835072
0.210197612909131,17.2890002256315
0.241832930148552,17.2900414066028
0.279293374618684,17.2911346394588
0.32270253418929,17.2922775835071
0.363333608053437,17.2932779300676
0.397336091822598,17.2940978463319
0.426768066844652,17.2948227884512
0.452499871648017,17.2954979689039
0.474676415246306,17.296150407845
0.493031231633024,17.2968018576753
0.506880013796334,17.2974751538209
0.514863525379464,17.2982013774839
0.514211003529116,17.2990166776644
0.50253876630923,17.2998459696825
0.478635360242254,17.3007052205007
0.440915572326459,17.3016063503555
0.387595241914597,17.3025582945464
0.343969276973475,17.3032066774084
0.295311482790931,17.3038550602705
0.251821749206671,17.3043966341304
0.214528871472638,17.3048478958217
0.181752437783795,17.3052440379032
0.152378423563241,17.3056059975958
0.1257389050633,17.3059464880498
0.101379834956105,17.3062745440571
0.078937732141723,17.3065979661929
0.0580479352655839,17.3069254680896
0.0381831982559891,17.3072710479777
0.0179081167666047,17.3076747909446
0.00382899027078917,17.3080005378007
-0.00344762641817187,17.3081896625665
-0.0100963244466605,17.3083787873323
-0.0159533723851677,17.3085615679827
-0.021912907132267,17.3087672389908
-0.0277074672833478,17.3089918124644
-0.0331611405290008,17.3092326768871
-0.0381759360698826,17.3094888003303
-0.042700263327016,17.3097601825835
-0.0467102470185895,17.3100475430307
-0.0503788717599029,17.3103709378016
-0.0532703706652333,17.3106931004557
-0.0556471554160632,17.3110362361369
-0.0575250348188468,17.311403488694
-0.058918216305013,17.3117983866425
-0.0598405087740256,17.3122252787672
-0.0603038489271041,17.3126895739104
-0.0603167038216605,17.313198093688
-0.0598821063096645,17.3137596162664
-0.0589925312785845,17.3143871595732
-0.057626445766806,17.3150975782783
-0.0557394974053187,17.3159157788625
-0.0532409709653811,17.3168833551634
-0.0499132927592527,17.3180877397576
-0.0459141328474901,17.3194898922449
-0.0420381879487429,17.3208436844306
-0.0383385803795148,17.3221551857777
-0.0348412331492905,17.3234272461121
-0.0315592019037524,17.3246610178931
-0.0284981509053344,17.3258567900371
-0.0256588085590516,17.3270144273943
-0.0230382832510584,17.328133601851
-0.0206309146014957,17.3292139119608
-0.0184289188482244,17.3302549403825
-0.016422929283705,17.3312562746837
-0.0146024691239378,17.3322175052039
-0.0129563691341132,17.3331382074711
-0.01140632185621,17.3340588186836
-0.00991595929944667,17.335003031263
-0.00848969811537936,17.3359724869777
-0.00713145927955966,17.3369693264074
-0.00584496254298394,17.3379960630125
-0.00463367403179327,17.3390556774491
-0.00350075404115138,17.340151740059
-0.00244900241584253,17.3412885761228
-0.001480801359888,17.3424714940914
-0.000598055034013816,17.3437071096195
0.000197875478148756,17.3450038209539
0.000906244660214064,17.3463725345635
0.00152700798735005,17.3478278283082
0.00206093128961581,17.3493899356525
0.00249481784485992,17.3510235019811
0.00283211078191537,17.3527060051815
0.00308888656005106,17.3544558002788
0.00327973102366581,17.3562948487245
0.00341847977461615,17.3582526824626
0.0035187162160154,17.3603715518137
0.00359457054488003,17.3627173317755
0.00366238519170262,17.3654069793229
0.00374584459593062,17.3687030731047
0.00386358826913838,17.3724496861695
0.00402873343815734,17.3765023216682
0.00427135446168396,17.3812600466248
0.004542420214464,17.385762136978
0.00483555326321796,17.3900872004647
0.00516455017430138,17.3944810820047
0.00556564528574775,17.399314977191
0.00602703625917931,17.4042590063037
0.00655004892294213,17.4091688674133
0.00711460525329958,17.4137630590345
0.00770632360712408,17.4179280401238
0.00835345910144178,17.4218672835724
0.00908934908317479,17.4257269776681
0.00992307656889001,17.4294824295975
0.0108739815709393,17.4331622671429
0.0119863020491399,17.4368721193352
0.0133583341160703,17.4408416174321
0.0143633563438483,17.4434694010067
0.0154241527432506,17.4460971845814
0.0163678530139296,17.4483916169206
0.0171684010137892,17.4503775277744
0.0178716226772972,17.4522265134842
0.018485527729714,17.4540162217016
0.0190035283633867,17.455797757692
0.0194110007851519,17.4576247316419
0.0196818627333238,17.459573941689
0.0197624692617511,17.4618045214894
0.0194536458335326,17.4649638877027
0.0189996426854255,17.4670595971506
0.0183855799190792,17.4691553065985
0.0177217188524694,17.4710626556894
0.0170210834615268,17.4728928714627
0.0168066171403494,17.4734323827661
0.0165952892393108,17.4739718940695
0.0157022517729249,17.4764934742583
0.014927971889987,17.4791225586273
0.0142845855405953,17.4818270590936
0.0137667160948435,17.4846298040668
0.0133720745805267,17.4875558452635
0.0131018625298225,17.4906322848278
0.0129612932577378,17.4938897929638
0.0129608436042937,17.4973643957312
0.0131185335070228,17.5010997812944
0.0134638379872277,17.5051505298785
0.0140442941511939,17.5095869305871
0.0149362519390249,17.514502592482
0.0161278011880025,17.5195345020521
0.0173515136891016,17.5237792630203
0.0185600310564989,17.527464306699
0.0197724402692803,17.5308882416774
0.0209963766471895,17.5342532559942
0.022096286816061,17.5373755132693
0.0230426301501108,17.5403509869682
0.0237906740252162,17.5432057299261
0.0243079837789169,17.5459589907525
0.0245837335144965,17.5487310054784
0.0245914199050599,17.5514500671265
0.0243528996571854,17.5540377247966
0.0239096435528218,17.5565195136795
0.023297959206458,17.5589299168391
0.0225414278466566,17.561316818384
0.0216397436902079,17.5637625156503
0.0206726217639865,17.5661319665844
0.0196955162364211,17.5683774561904
0.018714385051591,17.570548927192
0.0177621214196387,17.572617083201
0.0169359484270968,17.5744020400394
0.0161585495943848,17.5760877393697
0.0153815072064149,17.5777897114822
0.0145596865928312,17.5796195984258
0.0136199123387086,17.5817647003116
0.0126929631896736,17.5839526132325
0.0117845374034268,17.5861848264124
0.010896516681361,17.5884709019164
0.0100301131721223,17.5908220236957
0.00918632430030527,17.5932503886167
0.00836512556083931,17.5957721980135
0.00756608909611428,17.5984069690891
0.00678733489895103,17.6011825607592
0.00602497741223711,17.6041408219507
0.00527167239845377,17.6073504038166
0.00451112593492581,17.6109476612013
0.00380380187137901,17.61528876035
0.0033767233233686,17.6194339638462
0.00312091359746334,17.6233397864851
0.00298134688193916,17.6269225213909
0.00292950962850065,17.6300519564089
0.00294351219630866,17.6329258113704
0.00301804359988375,17.6356616639938
0.00315562489025668,17.638362129509
0.00336743504882469,17.6411773758058
0.00369037199001131,17.6444972682421
0.00394968530417316,17.6469136287023
0.00419579420126521,17.6493299891624
0.00438930237899004,17.6516300746784
0.00453106061266901,17.6541308226065
0.00459464211945729,17.6569900494786
0.004553772930324,17.660295531007
0.00444786948612528,17.6632582801016
0.00432246898442382,17.6660658215703
0.00419355432021024,17.6690466040666
0.00407856052842018,17.67247647277
0.00401262452858448,17.6762535165489
0.00402328662659564,17.6806402901111
0.00413320795120007,17.6853614757367
0.00433455729562298,17.6900826613623
0.00462581377608,17.6948795580114
0.00495592644405376,17.6990904044182
0.00534492280845622,17.7031269358711
0.00579022779550405,17.7069443902061
0.00629826617914093,17.7105706578257
0.00687278123901215,17.7139994688632
0.0075168679544211,17.7172253711758
0.00823275950702607,17.7202461682423
0.00902211462827735,17.7230647142106
0.00988658441785973,17.7256893458431
0.0108281474972212,17.72813230854
0.0118727852996465,17.7304565103853
0.0130426783069389,17.7326909065194
0.0143531196012111,17.7348402410789
0.0158222659012573,17.7369104332691
0.0174713973199909,17.7389077776302
0.0193255462995706,17.7408388238262
0.0214144751110181,17.7427104813682
0.0237748715595791,17.7445307889743
0.026451568890554,17.7463082988548
0.0295025444336385,17.7480536713735
0.033004102599743,17.7497799205689
0.0370647880516095,17.7515055041469
0.041851310578546,17.7532586980594
0.0476295292799943,17.7550823037134
0.0543829889018798,17.7569271333381
0.0624209781555489,17.7588498383116
0.069596663865471,17.760402797875
0.0772193354044407,17.7619557574385
0.0839258141448507,17.7632950575182
0.0896873087673546,17.764475188719
0.0946094843436825,17.7655604096246
0.0986745329553615,17.7665862827374
0.101795473984313,17.7675762683042
0.103834713586769,17.768549847783
0.10459440597101,17.7695275570702
0.10376970605729,17.7705378385146
0.100768791456754,17.7716391797796
0.0949984002925915,17.7728153734549
0.0861796743429188,17.7740491688708
0.0771816718438445,17.7750537799608
0.068886589149921,17.7758756292869
0.0609675080933055,17.7766123726486
0.0533367645233204,17.7773017872247
0.0459895274196123,17.7779624576571
0.0389362813540305,17.7786064931251
0.0321855619437144,17.7792435505667
0.0257369327477281,17.7798829141876
0.0195729358357777,17.7805356296013
0.0136389312062896,17.7812188475813
0.00776332944858,17.7819713737438
0.00232326182439158,17.7827670149301
-0.00233713036627328,17.7835626561164
-0.00561640785473601,17.7842175087842
-0.00819003359775662,17.7848127595361
-0.0103233148440638,17.7853843917968
-0.0121530777213743,17.7859564358769
-0.0137774506029984,17.7865580083919
-0.0151847902111013,17.7871894735374
-0.0163698832440577,17.7878519281389
-0.0171588279442529,17.7884609209121
-0.0176431202343641,17.7890699136853
-0.0178716278250427,17.789681127245
-0.0178799259934542,17.7903256132585
-0.0176758536258759,17.7910062038756
-0.0172673076973727,17.7917278379715
-0.0166625718442207,17.7924951456791
-0.0158713747491393,17.7933126980173
-0.0149046850980033,17.7941858647716
-0.0137745462121911,17.7951211224464
-0.012493722084248,17.7961266175316
-0.0110748845945089,17.7972132739684
-0.00964339265609351,17.7983086670996
-0.00823746161630601,17.7994043364801
-0.00686634530782205,17.8005091015603
-0.0055383053819241,17.8016295830713
-0.00426026756162477,17.8027716127336
-0.00303802732281012,17.8039407806798
-0.00187636398218043,17.8051428430882
-0.000779096744199479,17.8063840837553
0.000250906134125052,17.807671698938
0.00121176180803576,17.8090142715055
0.00210265589301927,17.81042242193
0.00292399057724745,17.8119097798986
0.00367763626980247,17.8134945467572
0.00436737234699919,17.8152022157865
0.00498120658055504,17.8170109465604
0.00551128798748539,17.8188733149635
0.00597874291647439,17.8208179491316
0.00640282401913116,17.8228772184075
0.00680352467226749,17.8250954777127
0.00720396738259437,17.8275396801531
0.00763552727747789,17.8303250387008
0.00815359111510114,17.8336979849048
0.00880504440488062,17.8377796726142
0.00955012828342003,17.842129810722
0.0103670883774718,17.8465230646297
0.0112449592402208,17.8508628649274
0.0122200046195193,17.8552830012657
0.0133067362876287,17.8597728128042
0.0145336443765567,17.8643554504704
0.015947680268954,17.8690881280308
0.017643376732644,17.8741296487987
0.0199111581194167,17.8800633273233
0.0217494222496754,17.8844130266479
0.0236871547201169,17.8887627259724
0.0253177479465038,17.8924076218377
0.0266784027516607,17.8956039281403
0.0278231399018965,17.8986009658305
0.028741181400625,17.9014991888991
0.0293866120280196,17.9042636876945
0.029762015644464,17.907011323593
0.0298429497501498,17.9098871374721
0.0295374331828628,17.913179532895
0.0288067351615726,17.9165757693548
0.0279629679129629,17.9192852179676
0.0269328878743303,17.9219946665805
0.0258852694343914,17.9244286665075
0.0248344218531918,17.9266951037617
0.0237800968106325,17.9288696934897
0.022725097511317,17.9309927655346
0.0216732753279979,17.9330888747985
0.0206285199633094,17.9351749014476
0.0195944800242806,17.9372634686605
0.0185744932255026,17.9393646391255
0.0175715813556838,17.9414868600476
0.0165884609271823,17.9436375453759
0.0156275551598588,17.9458234661096
0.0146910079322785,17.9480510223805
0.0137806895898699,17.9503264636879
0.0128982043994839,17.9526560623814
0.0120448934931326,17.955046271684
0.0112218319181918,17.9575038862245
0.0104298283870732,17.9600361899575
0.00964632371241441,17.9627337055372
0.00887427758320039,17.9656158335472
0.00811650982661159,17.9687054522495
0.00737567860973623,17.9720291925876
0.00665405737776837,17.9756182711142
0.00595319598355308,17.9795095697686
0.00527339495531562,17.9837471816049
0.00461289965825191,17.9883848365151
0.00396665368502512,17.9934903344801
0.00332439352113323,17.9991544153684
0.00267013000031337,18.0054855224147
0.00209452259281457,18.0115839484828
0.00164607895026053,18.0172098825953
0.00130894313781169,18.0223937431364
0.00103972202312164,18.0271743089788
0.000816182722482522,18.0315880872822
0.000626062056174261,18.0356691879317
0.000461992054257809,18.0394495407616
0.000319162926222462,18.0429591343219
0.00019418255810467,18.0462262523308
8.44823987618236e-05,18.0492778138639
-1.20078749524345e-05,18.0521399032564
-9.70348180168811e-05,18.0548382431756
-0.000172131536347665,18.057399320427
-0.000238682504912285,18.0598519298323
-0.000297987803724251,18.0622303849594
-0.000351351747125638,18.0645815047276
-0.000400301467000673,18.0669839271984
-0.000447450867673748,18.0696264979735
-0.000484114806400176,18.07203095575
-0.000514744917909011,18.0744354135264
-0.000535104806754774,18.0763856732157
-0.000549666273385746,18.0780996984389
-0.000560761557054548,18.0797549926071
-0.000569125584544146,18.0814575948726
-0.000574752379165475,18.0833309538751
-0.000576531215656882,18.0856405168621
-0.000563898289123367,18.0901178328974
-0.000532354555777818,18.0943024509201
-0.00049045891727082,18.0978494713282
-0.00043087736668767,18.1016114762768
-0.000332221163933485,18.1064172002269
-0.000209769142851236,18.1111077708195
-6.5361601381356e-05,18.115579692938
9.8080001105413e-05,18.1197142897389
0.000282242264414876,18.1235328144418
0.00049049479301985,18.1270700267356
0.000727200508300464,18.1303589863266
0.000997931599757324,18.1334359074873
0.0013101573305498,18.1363451595363
0.00167379653883952,18.1391388296176
0.002103250461413,18.1418873890105
0.00262205613993711,18.1447017388559
0.00328130580355504,18.1478236806264
0.00381788346235456,18.1501893300983
0.00435639259984582,18.1525549795702
0.00484808909638469,18.1548254552028
0.00533626439648868,18.1573145868425
0.00590338401495977,18.1606866845559
0.00628442119345944,18.1633144833047
0.0066437053107041,18.1659422820535
0.00697916905554999,18.1683151852124
0.00735511315805258,18.1706975826031
0.00779772812508807,18.1730821461301
0.00833364525708331,18.1754710062262
0.00898742404375431,18.1778612451709
0.00975141313717327,18.1801579451018
0.0106246727743482,18.1823365480989
0.0116240018156926,18.1844232674974
0.0127558875692064,18.1864140964467
0.0140282645037431,18.18830918115
0.0154526176901091,18.1901132153748
0.0170444266147821,18.191833197124
0.0188213365960236,18.1934750835935
0.0208052105828779,18.1950455135158
0.0230205097072584,18.1965498805766
0.0254963048052969,18.1979937021088
0.0282656658962605,18.1993818038925
0.0313673093954167,18.2007189514351
0.0348462759241993,18.2020096960931
0.0387554262728836,18.2032585187851
0.0431576771054665,18.2044700196924
0.0481283703359467,18.205648926683
0.0537595660192872,18.2068003706708
0.0601655679944014,18.2079300509336
0.067492127177982,18.2090446446964
0.0759315602891688,18.2101524436891
0.085749676427046,18.2112644913073
0.0973404696473284,18.2123970104881
0.1112169648166,18.2135664250323
0.127353011106679,18.2147437899736
0.146285385579509,18.2159501129535
0.168886353338115,18.2172223948649
0.190355575374158,18.2183202630766
0.213205241146894,18.2194181312883
0.234149464424156,18.220396414571
0.25314548613851,18.2212911334392
0.270254426556184,18.2221348764168
0.285269897260902,18.2229456395236
0.297840899077061,18.223735240496
0.30751631548309,18.2245130100492
0.313745275340178,18.225287581639
0.315847274822918,18.2260682201821
0.312937648804606,18.2268667639829
0.30368277226632,18.227705265987
0.286136981965652,18.2286035328935
0.26003171336074,18.2295156000064
0.235504875928653,18.2301926562704
0.207178783802181,18.2308697125343
0.180769081541634,18.2314457824648
0.156921768033096,18.2319424440788
0.135051881067251,18.2323909011669
0.114822739022777,18.2328086668601
0.0960366183003073,18.2332067320632
0.0785479036261007,18.2335932968221
0.0622234928358368,18.2339756590215
0.0469104031750207,18.2343618738556
0.03237351192529,18.2347638160028
0.0180602420015094,18.2352082114074
0.00675731375099129,18.2356088331144
-0.000168523323414634,18.2358849241563
-0.0064179199892583,18.2361610151983
-0.0116466548592844,18.2364175485964
-0.0163578288907883,18.2366745697882
-0.0209302993787455,18.2369547440123
-0.0252287968013558,18.2372551107912
-0.0291695537971469,18.2375740566751
-0.0327083336382056,18.2379113486551
-0.0358239918750473,18.2382676719011
-0.0385091118773582,18.2386443882983
-0.0409897598965557,18.2390951591305
-0.0426707874328476,18.2395114579116
-0.0439274299516743,18.2399544797487
-0.0447723541956178,18.2404284573181
-0.045215240978142,18.2409377601461
-0.0452646989089703,18.2414876799469
-0.0449273443792728,18.2420846912714
-0.0442048626801218,18.2427382714504
-0.0430933197641017,18.2434595158962
-0.0415822548662765,18.2442626574342
-0.0396506724752902,18.2451674201726
-0.0372585969108009,18.2462033761414
-0.0343238916706237,18.2474214747947
-0.0311670972259449,18.2487158620075
-0.0281826476856823,18.2499533265375
-0.0253967234784244,18.2511391444987
-0.0228160567676815,18.2522776067903
-0.0204400361559107,18.2533711627437
-0.0182636968613486,18.2544212047794
-0.016279304307013,18.2554285103449
-0.0144773603611291,18.2563934754657
-0.0128473085729788,18.2573162341249
-0.0112972638477861,18.2582466710006
-0.00980647787102808,18.2592004303533
-0.00837943446641371,18.2601793631779
-0.00702018903624145,18.2611857475033
-0.00573254818852695,18.2622222383553
-0.00452002417782767,18.263291968618
-0.0033857870523132,18.264398680118
-0.00233261299738977,18.2655469001317
-0.00136282874917321,18.2667421854089
-0.000478251305045362,18.2679914697501
0.00031987892318114,18.2693035765587
0.00103097527185728,18.2706900067415
0.00165519972185423,18.2721662135202
0.00219359079594548,18.2737538041315
0.00262920446020626,18.2754015930004
0.00297070868653425,18.2771014975834
0.00323403295755276,18.2788724010319
0.00343378167660441,18.2807376638598
0.00358387337960861,18.2827289770098
0.00369810096185905,18.2848923090075
0.00379106137304487,18.2873008267595
0.00388022188409258,18.2900889917534
0.0039930078215382,18.2935815051494
0.00413656255296642,18.2973690971701
0.00432734708016818,18.3015266866932
0.00456007690518159,18.3058629014397
0.00483203476006292,18.3104119950062
0.00514028595002152,18.3152107556682
0.00548460278551699,18.3203004593916
0.00585612870896454,18.3255466622884
0.00623838661575429,18.3306894893266
0.00663864755511132,18.3357885540745
0.0070583890426575,18.3408081597
0.00750268566051079,18.3457542658682
0.00797666527000382,18.3506286553258
0.0084861908603646,18.3554364324062
0.00903749315462495,18.3601805203068
0.0096372813665418,18.364861861812
0.0102928079562293,18.3694793883776
0.0110199337363785,18.3740784858661
0.0118393299592113,18.3787048057146
0.0127683906528472,18.3833581873932
0.0138323064666529,18.3880579950153
0.0150683008405281,18.3928474887721
0.0165423396799978,18.3978335314665
0.0184140551638048,18.4033327002474
0.0208830668359083,18.4096492177702
0.0224675847798875,18.4133781460913
0.0240885677218328,18.4171070744124
0.0255044181379427,18.4204482175389
0.026701268722656,18.4235140424087
0.0276913011199433,18.426469753778
0.0284214110449445,18.4292820020839
0.0288847761858261,18.432024306121
0.0290696033337521,18.4348232716525
0.0289220156477023,18.4378746092878
0.0282163958662176,18.4417946036008
0.027377996725272,18.4446535868124
0.026317912425265,18.447512570024
0.0252435317318421,18.4500264502882
0.0241714128574551,18.4523342811461
0.0230972639488643,18.4545333417662
0.0220224469245633,18.4566718950596
0.0209503403146628,18.4587779117383
0.0198846580315432,18.4608700645315
0.0188289804315094,18.4629620573399
0.0177866285997598,18.4650646662183
0.0167606380636835,18.467186846103
0.0157537610424648,18.469336398996
0.0147684794449867,18.4715204066656
0.0138070181163654,18.4737455370012
0.0128713562642555,18.4760182791022
0.011963241667713,18.4783451268492
0.0110841986731072,18.4807327527575
0.0102355382459942,18.4831881681923
0.00941837380942717,18.4857188675514
0.00862105887502099,18.4883765337531
0.00783566922995525,18.4912139961432
0.00706597663954984,18.4942526219838
0.00631585612843282,18.497517708969
0.00558942298451977,18.5010386634168
0.00489099097556502,18.5048498751172
0.00422501786081061,18.5089917724676
0.00359599211727538,18.5135124005986
0.00300823142275081,18.5184701451676
0.00246559307692629,18.523938700993
0.00197111669507242,18.5300164827527
0.00167447142905888,18.5343916996016
0.00142799497056517,18.5387669164504
0.00110993347278771,18.546142129236
0.000889911050085584,18.5529419808365
0.000683788713160655,18.5612670895624
0.00052497962460484,18.5700077377116
0.000397576854246904,18.5800077377116
0.000313043297419538,18.5900077377116
0.000259081971223931,18.6000077377116
0.000226831843127407,18.6100077377116
0.000212218028465779,18.6200077377116
0.000210905519151084,18.6300077377116
0.00021898452715321,18.6394703831544
0.000232790030957245,18.6480951499505
0.000250028513321457,18.655956270099
0.000269470143266744,18.6631350145374
0.00029043253413687,18.6697054935275
0.000312517888639428,18.6757350757129
0.000335487780841685,18.6812853307928
0.000359206505596677,18.6864129705593
0.000383620386770588,18.6911708687317
0.000408741505270804,18.6956092827325
0.000434659759910047,18.6997774566564
0.000461561450684375,18.7037260685264
0.000489771843463911,18.7075115036968
0.000519885327502108,18.7112047335473
0.000553048889336519,18.7149141141743
0.000592075739706509,18.718867370086
0.000650082689522162,18.7240668809044
0.00068596272042406,18.7269198065857
0.000725014851215093,18.729772732267
0.000763967396389145,18.7323893657253
0.000804419142169736,18.7348953343686
0.000849200567128539,18.7374509102488
0.000902580392167406,18.7402380567569
0.000974726672176081,18.7436297657144
0.0010938947013153,18.7484936173748
0.00123506113929635,18.7533574690353
0.00137127181755486,18.7573864365475
0.00153418806148658,18.7615945367297
0.00175016230412519,18.7664079771355
0.00202196260879015,18.7715137237079
0.00231869065358991,18.7761476109865
0.00265296808855498,18.7804841913273
0.00303029717125622,18.7845459348499
0.00346068359466477,18.7883985998351
0.00395893488593665,18.7921248656319
0.00455064468870518,18.7958466494211
0.00527040583490056,18.7996864744184
0.00614561678729834,18.8037010407981
0.00720610158378802,18.807955284752
0.0084569021046681,18.812383244009
0.00933123417440851,18.8151540531669
0.0103017776806185,18.8179248623248
0.0112842563252524,18.8204112733933
0.0122736677153141,18.8226152099065
0.0133243348545798,18.8246663566118
0.0144709038798349,18.8266178256694
0.0157401305628252,18.8284922607475
0.0171471169009187,18.8302891659884
0.018712627862229,18.8320147722843
0.0204545744509049,18.833670190973
0.0223915303900038,18.8352567103017
0.0245475040236697,18.8367789248046
0.0269467088719939,18.8382395621101
0.0296169290874387,18.8396419426799
0.0325920022795851,18.8409905188656
0.0359095868470887,18.842289073942
0.0396130502916494,18.8435413483557
0.0437540886842066,18.8447514692171
0.0483932283557056,18.8459234944177
0.0536022143907746,18.8470615547858
0.0594670695465104,18.8481699561288
0.0660931934626582,18.8492534416153
0.073611105468364,18.8503172385327
0.0821865411597514,18.8513674185541
0.0920363145992245,18.852411395146
0.103456481026504,18.853458871081
0.116874935948475,18.8545235588374
0.132914112876166,18.8556237658948
0.151492967257856,18.8567287709766
0.17316515341604,18.8578545842725
0.198757829126264,18.8590267916685
0.229707611805801,18.8602930321171
0.261723232445206,18.8614955215257
0.289638390202802,18.8624986177144
0.31478584097832,18.8633973518739
0.337508614795814,18.8642343835006
0.357662745561013,18.8650308247787
0.374929857701354,18.8658012610932
0.388872563347749,18.8665582313727
0.398905004001038,18.867313949148
0.404219060778622,18.8680813648348
0.403660846928343,18.8688754207132
0.395492137343703,18.8697165014151
0.377699796400655,18.8706029483713
0.349624070999966,18.8715011758352
0.31023515202489,18.8724272839472
0.279970709183633,18.8730197830313
0.246472808848889,18.8736122821155
0.215507888531638,18.8741267724423
0.187709071791005,18.8745762116417
0.162440367992681,18.8749841151477
0.139264868937552,18.8753652267032
0.117892726787989,18.8757294529236
0.0980992969852616,18.8760845897624
0.0796749323269188,18.8764380677664
0.0623688340546468,18.8767990307976
0.0457468918877943,18.8771835944643
0.0283968888460542,18.8776436879102
0.0188805647548512,18.877933142153
0.0121912488308998,18.8781584849178
0.00610361152189221,18.8783838276826
0.000765818591351496,18.8786015191062
-0.00456520050856214,18.8788428886851
-0.00968835541025076,18.8791041883988
-0.014473761411746,18.8793830354666
-0.0188516605670596,18.8796786481415
-0.0227872206299355,18.8799912807104
-0.0267778896475375,18.880378592316
-0.0296500651015836,18.8807277395642
-0.0320612128506344,18.8810977207593
-0.0340306815115873,18.8814920132758
-0.035572683679507,18.8819138814216
-0.036702326292356,18.8823672932733
-0.0374345375026988,18.8828571000794
-0.0377830317110009,18.8833892848071
-0.0377592376734979,18.8839713301401
-0.037369785683692,18.8846142521358
-0.0366144042301377,18.8853314297668
-0.035483981671716,18.886141154942
-0.0339538746385504,18.8870706732086
-0.0325473505290653,18.8878526120156
-0.0310694567298769,18.8886345508226
-0.0287097973857171,18.8898356009141
-0.0261003928845653,18.8911386249395
-0.0235932389709517,18.8923955108311
-0.0212228756198209,18.893607589432
-0.0190041333175787,18.8947771041124
-0.0169437982240309,18.8959052084197
-0.0150435347784555,18.8969924283632
-0.0133014489502927,18.8980389462455
-0.011713096779777,18.8990447493481
-0.0102722124927808,18.9000097020012
-0.0089712743855054,18.9009335725255
-0.00775054300210869,18.9018561558285
-0.00658115037982802,18.9028021775037
-0.00546781880138533,18.9037732990006
-0.00441486237043219,18.9047716875758
-0.00342643453153843,18.9057998796514
-0.00250648727376689,18.9068608761024
-0.00165873245785928,18.9079582654846
-0.000886604622239887,18.9090963899594
-0.000193227417412033,18.9102805741799
0.000418613293014015,18.9115174500232
0.000946484934789576,18.9128154328019
0.00138830421218017,18.9141854479769
0.00174229830399257,18.9156420959063
0.00200689959242536,18.9172056386059
0.00217584891152899,18.9188416084067
0.00225568220184808,18.920526456777
0.00225904020443169,18.9222786744338
0.00219695422572741,18.92412032392
0.00207905066877102,18.9260810667605
0.00191344906997961,18.9282033463471
0.00170632876995521,18.9305533781635
0.00146054746490218,18.9332488632172
0.00117038109110087,18.9365547289882
0.000872874261492768,18.9403073187413
0.000595520403253571,18.9443697725273
0.000328619731826673,18.9491436889909
0.00014151106208543,18.953516637995
3.08674478452725e-05,18.9572697351588
-2.27524050148828e-05,18.9607204638607
-2.37253695144646e-05,18.9640897976931
3.45181346140576e-05,18.9675854333538
0.000159586238979788,18.9711655915391
0.000337262739599718,18.9745386961163
0.000555017622723398,18.9777227097575
0.000802804552698213,18.9807484788456
0.00107371906280485,18.9836512368075
0.0013645633415975,18.9864747429571
0.00167699839544775,18.9892820280344
0.00201789963836594,18.9921572507932
0.00237716744266237,18.9950313097124
0.00275662226970504,18.9979337766815
0.00305527500469395,19.0001396424086
0.00336217819471582,19.0023455081357
0.00365016945510204,19.004365235091
0.00393417119894225,19.0063134999139
0.00423180439743829,19.0083120675667
0.00456584011019814,19.0105052903663
0.00498724981297769,19.0132006679377
0.00556985592787014,19.0168012730916
0.00616888124438364,19.0203535819215
0.00673353592681371,19.0235662711285
0.00735218998874773,19.0269396318482
0.00807802095288947,19.0307082095218
0.00882690448803047,19.0343895690924
0.00963958435920518,19.0381583964783
0.0105708982193953,19.0422050873655
0.0116935775601721,19.0467274182522
0.0131055271569482,19.0519166804047
0.0148592897395433,19.0577178714604
0.0172038959617537,19.0646892295808
0.0188022126631688,19.0691345292144
0.0204268270623877,19.073579828848
0.0218697483532789,19.0776305826022
0.023121122657579,19.0814153126468
0.0241567253768217,19.08500881368
0.0249503263413113,19.0884841607884
0.0254576233738021,19.0917945430932
0.0256755794163309,19.095055994514
0.0255768943045554,19.0984678832484
0.0250406352182173,19.1024381553583
0.0239517635635052,19.1068956125643
0.0227407703349272,19.1105748766489
0.0215445704154143,19.1137156530143
0.0203569801409914,19.1166007152234
0.0191638216178957,19.1193828708621
0.0179633590428548,19.1221353496285
0.0167590575605382,19.1249005889307
0.0155536755534,19.127714179718
0.0143524731282876,19.1306021542592
0.0131584409071223,19.1335949713209
0.011978302947784,19.1367147354234
0.0108159095848028,19.1399932171079
0.00967791847406079,19.1434584054654
0.00857091312072449,19.1471431201338
0.00750244557116711,19.1510830723198
0.00648176350215252,19.1553141948871
0.00551946410213035,19.1598721770109
0.00467137128354313,19.1645273035593
0.00396976082157773,19.1690200964433
0.00344851310627849,19.1728910814988
0.0030248265262011,19.1765068152373
0.00266726381286352,19.1800125598771
0.00236078409022864,19.1834803538075
0.002096824384562,19.1869551307932
0.00187005763049235,19.190469205724
0.00167699073344741,19.1940482182681
0.00151522093159817,19.1977140646044
0.00138295871295367,19.2014865883489
0.00127866029982465,19.2053846365666
0.00120069363812723,19.209426810669
0.00114701568809429,19.2136320680185
0.00111488108290304,19.2180202726371
0.001100639659286,19.2226127751898
0.00109970104311083,19.2274330608164
0.00110672013175591,19.2325075340778
0.00111598668161726,19.2378665109809
0.00112192648155013,19.2435454368964
0.00111959406206004,19.2495862987162
0.00110506418782271,19.2560391732846
0.00107568460612574,19.2629637149677
0.00103019340809984,19.2704309775355
0.000968726286968865,19.2785263153628
0.000892730007993859,19.2873539554527
0.000807969344898518,19.2966941892372
0.000729235546454304,19.3053991584762
0.000656244096841219,19.3138035078773
0.00058585039922254,19.3224711976521
0.000518672408252684,19.3315268339778
0.000455348789078696,19.3410778691494
0.00039726371578612,19.3510778691494
0.000347085622925617,19.3610778691494
0.000304066570368517,19.3710778691494
0.000267349250622475,19.3810778691494
0.000236058293991028,19.3910778691494
0.000209354214828888,19.4010778691494
0.000186462005149338,19.4110778691494
0.000166683193393568,19.4210778691494
0.000149397650779466,19.4310778691494
0.000134059511154559,19.4410778691494
0.000122202496624935,19.4510778691494
0.000119934289305761,19.4610778691494
0.000120764589203357,19.4710778691494
0.000122077536745591,19.4810778691494
0.000123374972083065,19.4910778691494
0.000124749070450153,19.5010778691494
0.000126260569321679,19.5110778691494
0.000127866814624684,19.5210778691494
0.000129512036318446,19.5310778691494
0.000131201777480829,19.5410778691494
0.000132996979510683,19.5506366731975
0.000134967104807257,19.5594553841569
0.000137191054240347,19.5675765100805
0.000139756253072582,19.5750541277325
0.000142739768922814,19.5819394183343
0.000146195722140031,19.5882802043154
0.000150154246256153,19.5941210812286
0.000154622571360379,19.5995035756019
0.000159978027841608,19.6044662728614
0.000166379377752316,19.6090449925057
0.000173450365037202,19.6132729425079
0.000180947028724651,19.6171809003248
0.00018872119340347,19.6207973878704
0.000196677089318919,19.6241488605559
0.00020475148751988,19.6272598985152
0.00021290490589409,19.6301534124167
0.000221110727622698,19.6328508618221
0.000229354952894507,19.6353725039793
0.000237635971062625,19.6377376854973
0.000245961919907316,19.6399652147193
0.000254353623633306,19.6420738745194
0.000262850787080343,19.644083200508
0.000271518336303541,19.6460147943813
0.000280461719060127,19.6478948260441
0.000290000705451991,19.649759586758
0.000300742579759402,19.6516708008293
0.000313814702790831,19.6537772716935
0.000327194256022902,19.6557308033975
0.000341899283686553,19.6576843351015
0.000354770725261397,19.6592541192135
0.000366934070860175,19.6606343614718
0.00037949857872609,19.6619676711727
0.000393315972323844,19.663337864503
0.000409630159194002,19.6648413290193
0.000431384925556999,19.6666791163469
0.000477838573582288,19.6700870162772
0.000534401693944861,19.6735104313092
0.000595309430963352,19.6765655531594
0.000672834448943854,19.6798195393607
0.000797206615277832,19.6841576472361
0.00098499339537052,19.6896832476614
0.00118503684087111,19.6948012727897
0.00139487006762196,19.6994588644894
0.00162057664245482,19.7036927888019
0.0018691221528864,19.7075413317882
0.00214765875572787,19.7110449019101
0.00246373437435583,19.7142442700293
0.00282576798986345,19.7171807045334
0.00323824809162302,19.7198658185859
0.00371126279366399,19.7223546424102
0.00426617085095335,19.7247379052186
0.00494755038264099,19.7271531633773
0.00579271511748682,19.7296724498973
0.00657689189014992,19.7317380246363
0.00741695715123465,19.7338035993753
0.00820584099680641,19.735691836156
0.00902081745060456,19.7376511425203
0.010065816009262,19.740220314227
0.0108637445837157,19.7422139417897
0.0116739587540655,19.7442075693524
0.0124725112002832,19.746072993128
0.0132915615989235,19.7478294330106
0.0141809087360056,19.7495349371548
0.0151918853452674,19.7512331626533
0.0163344021819633,19.7528898965928
0.0176476535105075,19.7545199432855
0.0191474708402073,19.7561057806799
0.0208417727332774,19.7576299864613
0.0227578935896857,19.7590976230689
0.0249153648777439,19.760506376023
0.0273340375177946,19.7618550727269
0.0300428222918177,19.7631472988483
0.0330749580015514,19.7643867473502
0.0364680096117035,19.7655768445133
0.0402652888866862,19.7667210126819
0.0445179386125567,19.7678228996784
0.0492852934277245,19.7688860118261
0.0546365534501464,19.7699137667942
0.0606528643884961,19.7709095360248
0.0674301002238673,19.7718767067407
0.0750823470503847,19.7728187260683
0.083746372193272,19.7737391443982
0.093587852298214,19.7746417019219
0.104809713257345,19.7755304195801
0.117664008155704,19.7764097413093
0.132468373270508,19.7772846921517
0.149630675881849,19.7781611463769
0.169687672892546,19.7790462744974
0.193373354333078,19.7799494665911
0.221116209199928,19.7808647317976
0.253210144590273,19.7817847865888
0.290489658427542,19.7827199779354
0.334170083370775,19.783688568529
0.375393699166709,19.7845183020494
0.419243157280718,19.7853480355699
0.456764328303924,19.7860430750811
0.489124947833914,19.7866558964893
0.517584740589022,19.7872311661249
0.542421490037011,19.7877957975938
0.563359948532474,19.7883730118761
0.579561753207343,19.7889921220355
0.589039312732492,19.7897082087475
0.587680285935229,19.7904613115038
0.574051345102156,19.7912484319722
0.546538551973481,19.7920904719496
0.506014735931383,19.7929457407182
0.450795445821213,19.793844763477
0.383326791015153,19.7947484126877
0.337004510024752,19.7953001609615
0.287729842642595,19.7958519092353
0.244313822146643,19.7963226710015
0.206947991063725,19.7967262418844
0.174022564943189,19.7970881493662
0.14449360733229,19.7974243117643
0.117703353609558,19.7977452107004
0.0931718459793768,19.798059176533
0.0704664199994689,19.7983747489075
0.0490388676446785,19.798704411726
0.0276346753574678,19.7990794065732
0.0183126495341417,19.7992629283445
0.00973000148426327,19.7994464501157
0.000544967630912809,19.7996624362343
-0.006315324096831,19.7998405337333
-0.0123646404768229,19.8000126887939
-0.0185410321565315,19.8002069168062
-0.0245627887793179,19.8004194141499
-0.0302426859665559,19.8006476624341
-0.0354749292764008,19.8008906375419
-0.0402028890145999,19.801148304875
-0.0443996143703849,19.8014213269699
-0.048056362023377,19.8017109183175
-0.051175620411834,19.8020187902183
-0.0537666612001425,19.8023471561601
-0.0559275058122279,19.8027184613868
-0.0574364766966894,19.8030948160531
-0.0584536865417729,19.8035016473731
-0.0589926903635223,19.803944480277
-0.0590620034614457,19.8044299853272
-0.0586641504842116,19.8049667805169
-0.0577909364671151,19.8055672395752
-0.0564177959115204,19.8062482915354
-0.0544946062724845,19.8070346633049
-0.0519189656850466,19.8079679209505
-0.0484442884668841,19.8091364776558
-0.0440323359960865,19.8105634723836
-0.0397205791997265,19.8119427556349
-0.0355709880448932,19.8132817992103
-0.0316176879663706,19.8145832070284
-0.0278802271505967,19.8158478992622
-0.0243701235682499,19.817075950108
-0.0210935431426369,19.8182670286181
-0.0180525725283292,19.8194206318557
-0.015245958900648,19.8205362067563
-0.012669644356081,19.8216132102257
-0.0103172214929014,19.8226511330317
-0.00818035679450391,19.8236495010658
-0.00624919515592486,19.8246078614472
-0.00451274537835695,19.8255257576209
-0.00288298523394761,19.826447330992
-0.00133131093194686,19.8273925958924
0.000134483973500595,19.8283632375346
0.00150669815164756,19.8293614106603
0.00277746057472593,19.8303896482641
0.00393877239838381,19.8314509568857
0.00498254663071568,19.8325489409671
0.00590064265238227,19.8336879708745
0.00668488691706348,19.834873415325
0.00732706563255364,19.8361119719674
0.00781886558449778,19.8374121533758
0.00815172125741387,19.8387850307129
0.00831648985865848,19.8402454294796
0.00830279417115954,19.8418139774125
0.00810975898896952,19.8434493770565
0.00775432832389029,19.8451347653287
0.00729033562676958,19.8468885106483
0.00679463377888984,19.8486640841042
0.00623721143301645,19.8506245383667
0.00564000078331278,19.852746614142
0.00500348658512463,19.8550971439176
0.0043212936608698,19.8577945194966
0.00358397893113459,19.8610252507935
0.00289385364477739,19.8644739815924
0.00225415619116014,19.868173937257
0.00165943243606431,19.8721769944962
0.00110043206339277,19.8765497621194
0.000569319328147318,19.8813802260992
0.000153264564305271,19.8858038133239
-0.000154059708876561,19.8896736307957
-0.000383290030926475,19.8932144520906
-0.000550538608126844,19.8966149921394
-0.00066157903932847,19.9000456553941
-0.000713104480806125,19.9037411453772
-0.000689535233133319,19.9077573995457
-0.000592730521422681,19.9116507665311
-0.000428547018590326,19.9156129039516
-0.000246539912093347,19.9189511088345
-4.83676504201931e-05,19.9220448528169
0.000165404214631383,19.9250342822157
0.000394114247440157,19.9279856081156
0.000637345409561988,19.9309390614684
0.000894946565311065,19.9339230760422
0.00116699740127739,19.9369597719091
0.00145379364355331,19.9400676951328
0.00175585194594012,19.9432633791737
0.00207391728330598,19.9465621642572
0.00240900012883832,19.9499788081854
0.00276243729575708,19.9535279083362
0.00313598594490867,19.9572242384495
0.0035319604524414,19.9610830476394
0.00395342433573193,19.9651203751466
0.00440446059181399,19.969353432775
0.0048905425332407,19.9738010227086
0.00541904145532663,19.9784839250829
0.00599993727104696,19.9834252113332
0.00660363305506877,19.9883087207613
0.00723379281726889,19.9931185977249
0.00771116468351292,19.9965592988624
0.00821384466299111,20
