ecg,time
0.0255441370327719,15.0018054836656
0.0245174887310534,15.0035830984696
0.0233729502946383,15.0050290508479
0.0220954400239025,15.0064197627934
0.0206780183987549,15.0078430365309
0.0191287269756794,15.0093407936918
0.0174536827339733,15.010951901933
0.0156907779154361,15.0127278771117
0.0137389083358665,15.0148906875305
0.0123484152255757,15.016594484697
0.0110817761995398,15.0182982818635
0.0100466956467535,15.0198245926516
0.0091462505291171,15.0212732480156
0.00831183974332345,15.0227382091205
0.00749367299907108,15.0243147740727
0.00662723588515206,15.0261731720149
0.00559700922001532,15.0287145399145
0.00469343516824832,15.031354194983
0.00397454750284037,15.0338482001029
0.00335418731930464,15.0364070874526
0.00277152464822416,15.0393202525611
0.00226438699693022,15.0424859992049
0.0018437980088958,15.0458660782121
0.00150743713562073,15.0495008134815
0.00125711086182757,15.053442822818
0.00110249044097326,15.0577598699235
0.00106575138231176,15.0620740218936
0.00113687887442289,15.0659226615703
0.0012967560286525,15.0693844718784
0.00153544288301308,15.0725030691151
0.00184846679223875,15.0753249745905
0.00223594427180995,15.0779000867651
0.00270209957807246,15.0802771044261
0.00325630039926454,15.0825058723364
0.00391606033801145,15.0846417947471
0.00471336479621063,15.0867528364324
0.00570524832329127,15.0889266783551
0.00701395115325611,15.0913179070996
0.0087908850051474,15.0940335469217
0.0104001058205635,15.0961452430863
0.0122381013488039,15.0982569392508
0.0140395346285883,15.1000672449683
0.015856740938236,15.1016686430184
0.0177945071343642,15.1031624328096
0.0198906473680805,15.1045690445293
0.0221993291708969,15.1059116962414
0.0247667585144869,15.1072007091799
0.0276322549634305,15.1084392427841
0.0308452251907903,15.1096326792226
0.0344536686021827,15.1107833663424
0.0385086922462238,15.1118931302107
0.0430741071025386,15.1129655554787
0.0482182273061675,15.1140030913951
0.0540222076554272,15.1150087716522
0.060582126148248,15.1159858861469
0.0680107888917764,15.1169377005894
0.0764427235537861,15.1178676229039
0.0860429868474835,15.1187795318146
0.0970131672413676,15.1196775375306
0.109604264978042,15.1205662231523
0.12413371834059,15.1214508157697
0.141012944100292,15.1223375728679
0.160787596659283,15.1232341990272
0.184212428003432,15.1241509284429
0.211571788286506,15.1250767103591
0.243267275847404,15.1260086640767
0.280144544130783,15.1269577739898
0.323441787077849,15.1279433354408
0.363862294460674,15.1287795470527
0.406789837973696,15.1296157586646
0.443740307520476,15.1303211074745
0.475645966981907,15.1309441975658
0.503677093388031,15.1315290095498
0.528086374383865,15.1321024574889
0.548588221617223,15.1326877034682
0.564341381098017,15.1333135821449
0.573386997487762,15.1340328165443
0.571769443860391,15.1347929907563
0.557972304717206,15.1355855462858
0.530411414350364,15.1364306984807
0.488755757507808,15.137309221013
0.432402735647178,15.1382227982283
0.379862564010704,15.1389363291159
0.32081843868942,15.1396498600035
0.26979319732286,15.1402236191009
0.227555064992836,15.1406848053153
0.191245405639309,15.1410810223885
0.159123025369256,15.1414386789075
0.130230640296213,15.1417725974961
0.103962729189163,15.1420926884484
0.0798636560388071,15.1424071176273
0.0575035502491643,15.1427246685311
0.0362967643661598,15.143059053291
0.0147212549983196,15.1434486770967
0.00669156986283801,15.1436116784773
-0.000766125192783496,15.143774679858
-0.00919298732907222,15.143975514287
-0.0159851365965078,15.144153459548
-0.0220518817073843,15.1443276875478
-0.0282304873404672,15.1445238555808
-0.0342443384373208,15.144738191013
-0.0399115230276512,15.1449682485495
-0.0451296670729853,15.1452130572229
-0.0498443278736116,15.1454726223376
-0.0540299960402891,15.1457476394648
-0.0576789207359681,15.1460393534121
-0.0607943167457747,15.1463495060777
-0.0633782643159459,15.1466803441415
-0.065427849418889,15.147032950421
-0.0669665505692997,15.1474105583288
-0.0680199975783709,15.14781897692
-0.0686012325692791,15.1482634983232
-0.0687196653401531,15.148750797912
-0.0683790604672845,15.1492894995188
-0.0675730238021308,15.1498920118354
-0.0662796675076191,15.1505752426245
-0.0644529841614457,15.1513638954085
-0.061997750157038,15.1522994493329
-0.0586832143514803,15.1534699305645
-0.054488386810941,15.1548950419018
-0.050395326256819,15.1562723360805
-0.0464646934424357,15.1576091891577
-0.0427285068842793,15.1589082388207
-0.0392039509425753,15.1601704309519
-0.0359000008492557,15.1613958609214
-0.032820222220061,15.1625842159202
-0.0299641715068603,15.1637350087395
-0.0273282559082351,15.1648476998547
-0.0249063741797559,15.1659217575163
-0.0226904589310909,15.1669566814943
-0.0206709637954102,15.1679520041153
-0.0188373068410466,15.1689072760941
-0.0171782707376351,15.1698220413193
-0.0156000447847848,15.1707454198489
-0.0140815667902006,15.1716925770305
-0.0126270858694213,15.1726652627753
-0.0112404769928132,15.1736656580058
-0.00992540233150603,15.1746963285493
-0.00868525773073058,15.1757603220495
-0.00752311801836894,15.1768612951329
-0.00644167935488947,15.1780036855085
-0.00544319812974512,15.1791929505017
-0.00452942521304772,15.1804359071065
-0.00370153318344542,15.1817412333008
-0.00296003199445593,15.1831202377745
-0.00230466428404603,15.1845881029009
-0.00173426228272704,15.1861660253541
-0.00126664907456913,15.1878046194674
-0.000894027955519931,15.1894946548983
-0.000600454530699419,15.1912545660323
-0.000371313895119494,15.193107119866
-0.000192689234447905,15.1950831461943
-5.0836207671646e-05,15.1972271878746
6.86859967999106e-05,15.1996096706138
0.000182918908853443,15.2023585080172
0.000317867402553585,15.2057747549176
0.000477459129950841,15.2095360169752
0.00067346232497839,15.2136596709996
0.000929838441065772,15.218558057713
0.00118657604404895,15.2232122223908
0.00143068957455518,15.2275726600504
0.00167069982132686,15.2318822772576
0.00192053176515466,15.2364310750907
0.00219205974896808,15.2414529450404
0.00245386603653083,15.2463417715439
0.00272155980567546,15.2513547413795
0.00295109339986628,15.2556242117989
0.00316495177422397,15.2595608425021
0.00337460719848196,15.2633642025699
0.00358598460059862,15.267128385482
0.00380319860963705,15.2709111696764
0.00402973448982345,15.2747549346108
0.00426892740769178,15.2786944773872
0.004524231149711,15.2827608115075
0.004799446733876,15.2869838694251
0.00509891268081063,15.2913939376502
0.00542775490144725,15.2960228891549
0.00579228204828977,15.3009054951678
0.00620062326177965,15.306080516762
0.0066243545108155,15.3111323610783
0.00707352626759582,15.316151668691
0.00754803883368264,15.321093900972
0.00805288676220941,15.3259661717956
0.00859317844128001,15.3307682791261
0.00917529811576216,15.3355045836725
0.00980635181280315,15.3401778881951
0.0104943480826142,15.3447904510209
0.0112652983650303,15.3494416296577
0.012133001894205,15.3541203143408
0.0131194121392523,15.3588436924279
0.014254651080426,15.3636422445452
0.0155874012460796,15.3685878643915
0.0172165954189237,15.3738687260673
0.0194724470299151,15.380213287443
0.0211605999407068,15.3844910140457
0.0229321036530843,15.3887687406484
0.0244455865324577,15.3924285271054
0.02571205795922,15.3956711170882
0.0267703702131589,15.3987269069266
0.0276032002748391,15.4016856931887
0.0281680652899704,15.4045184429299
0.0284634618630864,15.4073463108741
0.0284587012006999,15.41032594644
0.0280426204150158,15.4137927206102
0.0272541217556972,15.4171410687746
0.0261465225988478,15.420489416939
0.0250515174503045,15.4232371802131
0.0239753778912995,15.4256785340394
0.0229007964080708,15.4279760450416
0.0218260911379156,15.4301965896549
0.020754051066378,15.432375172144
0.019688334574076,15.4345339912793
0.0186326147638073,15.4366888126462
0.0175903539006887,15.4388517262722
0.0165647450377522,15.4410325648361
0.0155587043840412,15.4432397204586
0.0145748750242408,15.4454806661876
0.0136156412500617,15.4477622960088
0.0126831357570453,15.4500911846719
0.0117792505665197,15.452473780408
0.0109056491685124,15.4549165572414
0.0100637684088577,15.4574261747686
0.00925483335264081,15.460009593704
0.00847937078775184,15.4626759744207
0.00771620045939077,15.4655191631414
0.0069691866512643,15.4685588022807
0.0062421480420345,15.4718187698895
0.00553904242127569,15.475326589782
0.00486398043572771,15.4791141193902
0.00422117297219442,15.4832184333616
0.00361481841522051,15.4876830999805
0.00304892832047145,15.4925602642205
0.00252707402492322,15.4979144693957
0.00205212188533455,15.5038292241778
0.00162613326140368,15.510416208503
0.00126060565921894,15.5176001924908
0.000955964778443702,15.5253773935806
0.000705615202863647,15.5338762263518
0.000509957869292297,15.5432670141424
0.00038105748104362,15.5524097193181
0.000282273671937239,15.5624097193181
0.000213466961217077,15.5724097193181
0.000165637903481067,15.5824097193181
0.000132867086243835,15.5924097193181
0.000110853430686174,15.6024097193181
9.64164434743607e-05,15.6124097193181
8.7270621377803e-05,15.6224097193181
8.18290543988765e-05,15.6324097193181
7.90130667559754e-05,15.6424097193181
7.80938901638111e-05,15.6524097193181
7.85783546715033e-05,15.6624097193181
8.01330559854156e-05,15.6724097193181
8.25353149027231e-05,15.6824097193181
8.56408833415411e-05,15.6924097193181
8.9362007434949e-05,15.7024097193181
9.36522853466008e-05,15.7124097193181
9.84963112939364e-05,15.7224097193181
0.00010390283088538,15.7324097193181
0.000109900508156025,15.7424097193181
0.000116535660204785,15.7524097193181
0.000123871526780509,15.7624097193181
0.000131988821390022,15.7724097193181
0.000140987460612912,15.7824097193181
0.000150989499208207,15.7924097193181
0.000162143426052685,15.8024097193181
0.000174630118934281,15.8124097193181
0.000188670937392866,15.8224097193181
0.000204538682378969,15.8324097193181
0.000222572514522388,15.8424097193181
0.000243198471199121,15.8524097193181
0.000266958076218681,15.8624097193181
0.000294548901073909,15.8724097193181
0.000326883179047322,15.8824097193181
0.000365174362199772,15.8924097193181
0.000411068112624063,15.9024097193181
0.000466846120296902,15.9124097193181
0.000530387647892507,15.9216958430559
0.000602305308756956,15.9302652137653
0.000683656289463296,15.9381717398618
0.000775685413219939,15.9454675605384
0.000879814871566545,15.9522010565858
0.000997657719618198,15.958417089293
0.00113104103941459,15.9641572900503
0.00128203436232306,15.9694603010674
0.00145298342840947,15.9743619704101
0.00164654581262237,15.9788955630808
0.0018657379158822,15.9830919767084
0.00211398651157939,15.9869799418795
0.00239519275159916,15.9905861867055
0.00271381044496412,15.9939356162501
0.00307494438107813,15.9970515118118
0.0034844797129989,15.999955723898
0.0039492479378166,16.0026688760628
0.0044772568623487,16.0052106170316
0.00507801651734124,16.0075999241999
0.00576301506602211,16.0098554988405
0.00652380255607539,16.0119396874393
0.00736419966785719,16.0138702938023
0.00829680635954388,16.0156813157495
0.00934068619243556,16.0174074893288
0.0105275243713448,16.0190897290995
0.0119268408759498,16.0207983753535
0.0137924994375834,16.0227583120798
0.0155534168709241,16.0243871083643
0.0174751517566246,16.0260159046488
0.0191860671755378,16.0274013721327
0.0206742474580541,16.0286055547141
0.0220064148258771,16.0297275624941
0.0231973159407545,16.0308193611018
0.024237333569227,16.0319194210037
0.0250997339273845,16.0330699787073
0.0257329193536525,16.0343373127793
0.0260172761537753,16.0358828892995
0.0255325706481687,16.0380841027608
0.0245045559093238,16.039853321572
0.02335890607163,16.0412972734412
0.0220797926366797,16.0426879964525
0.0206608024524011,16.0441119132208
0.0191100368196233,16.0456107471562
0.017433551484977,16.0472234262619
0.0156698195003699,16.0490017129886
0.0137026669283193,16.0511850080245
0.0123215565021033,16.052880809727
0.0110630156963419,16.0545766114294
0.0100311102904421,16.0561004703714
0.00913220238387142,16.0575487032972
0.00829846146647843,16.0590146333463
0.00748015260972986,16.0605940126413
0.00661210384195749,16.062459504612
0.00558374256209493,16.0650020234756
0.0046818984968383,16.0676429570244
0.00396491336493757,16.0701365617539
0.00334537944106538,16.0726988229963
0.00276303765271921,16.0756194711392
0.00225725351782471,16.0787883488143
0.00183797543560328,16.0821720290176
0.00150291325516121,16.0858110879778
0.00125396230605448,16.0897583403508
0.00110095756626403,16.0940818314734
0.00106609240591619,16.0983878581848
0.00113868329057577,16.1022303705451
0.00129981738000897,16.1056865958526
0.00153965691884141,16.1088003249175
0.00185380285937014,16.111618112275
0.00224243668098012,16.1141898615392
0.00270984159079938,16.1165642251391
0.00326549162768696,16.1187911529295
0.00392705273137646,16.1209261370262
0.00472685712868703,16.1230375386393
0.00572240959837327,16.1252132895554
0.00703746057596757,16.1276095020687
0.00881984999331304,16.130326353417
0.0104263641619951,16.1324297575941
0.0122604780168704,16.1345331617713
0.0140609929284057,16.1363396510818
0.0158790462880187,16.137939266341
0.0178186318030595,16.1394320198347
0.0199169349008387,16.1408377017806
0.0222286374873144,16.1421797656628
0.024799351453534,16.1434681200145
0.0276688575358766,16.1447061351116
0.0308862281563256,16.1458990145135
0.0344998979756536,16.1470492452101
0.0385606598393019,16.1481585283913
0.0431325964145439,16.1492305078718
0.0482842823009295,16.1502676615142
0.0540967801337114,16.151272974055
0.0606664657380148,16.152249760046
0.0681064164211165,16.1532012912237
0.0765514162387447,16.1541309718229
0.0861669368761246,16.1550426866456
0.0971550851871203,16.1559405508087
0.109767586620809,16.1568291564425
0.124322765342679,16.157713735965
0.14123340038362,16.1586005629136
0.161047135436495,16.1594973646084
0.184521956135639,16.1604144166831
0.211929894856432,16.1613402250884
0.243682840594753,16.1622723126713
0.280629632674383,16.1632217253516
0.324015757621853,16.164207921769
0.364331270886566,16.1650411431807
0.407122769586089,16.1658743645923
0.444014962539814,16.1665786134443
0.475885852462107,16.1672012458045
0.503887646564579,16.1677858712278
0.528267227047074,16.168359321149
0.548735097268282,16.1689447647951
0.564444353344763,16.1695711302411
0.573421380196439,16.1702914967057
0.571704044182908,16.1710518577318
0.557796559654355,16.1718447831959
0.530108603317193,16.1726904651508
0.488338476250278,16.1735690822006
0.431854337548168,16.1744830140801
0.379376107211433,16.1751947522426
0.320437208403146,16.1759064904051
0.269491735478965,16.176479168406
0.227302025463384,16.1769397871845
0.191024187779313,16.1773356848641
0.158925391177355,16.1776931468588
0.130051808793634,16.1780269467422
0.103799399153808,16.1783469752099
0.0797130771741759,16.1786613942321
0.0573627090513729,16.1789790009421
0.0361604737603763,16.1793135686462
0.0145697059185285,16.1797038799846
-0.000643379726257364,16.180024101466
-0.00816347669677721,16.1802020982593
-0.0150468065510242,16.1803800950526
-0.0210533339478178,16.1805500812649
-0.0272333000139679,16.1807429222111
-0.0332888890962763,16.1809545238733
-0.0390208948123729,16.1811821286693
-0.0443165524972199,16.1814245654431
-0.0491152092024802,16.181681705505
-0.0533875756604619,16.1819541449859
-0.0571235689919389,16.1822430450728
-0.0603249681908162,16.1825500678561
-0.0629950647248632,16.1828773755624
-0.0651733257899885,16.1832346064165
-0.066781356702618,16.1836083664
-0.0679016458955682,16.1840121961998
-0.0685480835981462,16.1844513176428
-0.0687306908679854,16.184932184423
-0.0684541715294911,16.1854631051975
-0.0677139689371904,16.1860558070228
-0.0664906220016251,16.1867265394552
-0.0647424692210579,16.1874985349945
-0.0623838800885547,16.188409991032
-0.0592147748127165,16.1895383855575
-0.0550117209738662,16.1909712126582
-0.0509016895000757,16.1923538782799
-0.0469484045664262,16.1936955967651
-0.0431865946887289,16.1949993053587
-0.0396348046454348,16.1962661015262
-0.0363028357839558,16.1974961555068
-0.0331948362130518,16.1986891887565
-0.030310810420829,16.1998447269374
-0.02764752231782,16.2009622324322
-0.0251991540929018,16.2020411703684
-0.0229578573796339,16.2030810359511
-0.0209142462141229,16.2040813578171
-0.0190578457702315,16.2050416854755
-0.0173774980437444,16.2059615653199
-0.0157922600554022,16.2068820620154
-0.0142661362883597,16.2078261942486
-0.0128035183280981,16.2087956076573
-0.0114083032128249,16.209792441471
-0.0100841824073776,16.2108192090541
-0.00883458762523666,16.2118788922407
-0.00766263649162199,16.212975064004
-0.0065710752754528,16.2141120540275
-0.00556221825973308,16.2152951774631
-0.00463788266611746,16.2165310598271
-0.00379931694179515,16.2178281138227
-0.00304711821767117,16.2191972674463
-0.00238113085257429,16.2206531316705
-0.00180030962792646,16.2222159935317
-0.00131954232531792,16.2238495132799
-0.000935961171330703,16.2255321314574
-0.000633322819497687,16.2272821868884
-0.000396897812601645,16.2291216746339
-0.000212706601031989,16.2310801851799
-6.70204946574169e-05,16.2332000766411
5.44438002917987e-05,16.2355474417185
0.000168217687932915,16.2382397622888
0.000298378364023081,16.2415414213827
0.000455213260170453,16.2452878900572
0.00064518761062103,16.2493432166034
0.000891900752304161,16.2541066448857
0.0011503635830339,16.2588147203543
0.00139588822796794,16.2632026871609
0.00163579118723077,16.2675040300491
0.00188295530181268,16.2719940564377
0.00215741055484722,16.2770612184905
0.00241981271624762,16.2819563712137
0.00268574207898305,16.28693661876
0.00291900483273277,16.291281206665
0.00313419214854215,16.2952496048288
0.00334401735795034,16.2990652062739
0.00355486000125352,16.3028309663059
0.00377099635657238,16.3066081489833
0.00399596411113566,16.3104407277707
0.00423310073324925,16.3143643166857
0.00448582688580451,16.3184102776424
0.0047578817218472,16.3226086044865
0.00505351190641674,16.3269894524777
0.00537770838571326,16.3315843854041
0.00573657386632547,16.3364276649374
0.00613791954032617,16.341557424446
0.00655965520354496,16.346633126514
0.00700478905262582,16.3516573479449
0.00747532833948164,16.3566118630124
0.00797532955569692,16.3614945420883
0.00850994670231718,16.366306919736
0.00908538070496543,16.371052831321
0.0097086410923878,16.3757354313582
0.0103874797559562,16.380356287261
0.0111451785414142,16.385001639152
0.0119973064333388,16.3896755078952
0.0129644683187939,16.3943908855325
0.0140751674032693,16.3991751591696
0.0153742281739412,16.4040914274233
0.0169488397496665,16.4093005460031
0.0190595965124857,16.415368086372
0.0208234447704842,16.4199101516945
0.0226947538577061,16.4244522170169
0.0242564409889682,16.4282154679626
0.0255534183262993,16.431499461976
0.026639355451373,16.4345709771147
0.0275087658062137,16.4375563664039
0.028108756118574,16.4403993498377
0.0284406510405371,16.4432202110058
0.0284790710577405,16.4461674999482
0.0281312129868733,16.4495315523344
0.0271122925507603,16.4538779013055
0.0262125311670026,16.4565634862134
0.025152958439396,16.4592490711214
0.0240796730920622,16.4617020315503
0.0230053975503293,16.4640091969681
0.0219306358454633,16.4662353133051
0.0208581904763764,16.4684168171117
0.0197917030868535,16.4705767508949
0.0187348611291064,16.4727313490426
0.0176911509826742,16.4748929832338
0.0166637935050164,16.4770716610674
0.0156557312358281,16.4792758893129
0.0146696336612858,16.4815132124006
0.013707910313886,16.4837905670703
0.0127727172693508,16.4861145513661
0.0118659702413285,16.4884916166815
0.0109893545799797,16.4909282280748
0.010144328612546,16.4934310217272
0.0093321378631666,16.4960069227716
0.00855381879616067,16.4986632916476
0.00778929731772178,16.5014885655095
0.00704055178950695,16.5045082533263
0.00631140557745855,16.507745818828
0.00560580421417128,16.511228403114
0.00492784417587791,16.5149874132573
0.00428173053384547,16.5190593758644
0.0036716696229539,16.5234871599868
0.00310169690457822,16.5283219925758
0.00257544940565634,16.5336268905692
0.00209586248152195,16.5394832306171
0.00166507259189735,16.5459995283225
0.00129328208301849,16.5531314499259
0.000983028389605517,16.56084612131
0.000727691315015958,16.5692682415512
0.000526634644720282,16.5785636093954
0.000381764645319348,16.5885636093954
0.000286386789628287,16.5981565871797
0.000216364002224271,16.6081565871797
0.000167649207740038,16.6181565871797
0.000134232300380512,16.6281565871797
0.000111758121207445,16.6381565871797
9.69994204792173e-05,16.6481565871797
8.76300879329483e-05,16.6581565871797
8.20317822483161e-05,16.6681565871797
7.91038061812606e-05,16.6781565871797
7.81027297554418e-05,16.6881565871797
7.85256588097275e-05,16.6981565871797
8.00325680174478e-05,16.7081565871797
8.23961259847341e-05,16.7181565871797
8.54687429895921e-05,16.7281565871797
8.91602311991326e-05,16.7381565871797
9.34223871859347e-05,16.7481565871797
9.82384328461534e-05,16.7581565871797
0.000103616017859455,16.7681565871797
0.000109582871824429,16.7781565871797
0.000116184451375822,16.7881565871797
0.000123483139808362,16.7981565871797
0.000131558737300603,16.8081565871797
0.000140510131293422,16.8181565871797
0.000150458168195085,16.8281565871797
0.000161549874826765,16.8381565871797
0.000173964319727875,16.8481565871797
0.000187920583036345,16.8581565871797
0.000203688548858784,16.8681565871797
0.000221603589900996,16.8781565871797
0.000242086750809308,16.8881565871797
0.00026567287089208,16.8981565871797
0.000293050419175811,16.9081565871797
0.000325119000156971,16.9181565871797
0.000363074175673404,16.9281565871797
0.000408535662092826,16.9381565871797
0.000463746503822468,16.9481565871797
0.000526866246283717,16.9574802969591
0.000598320153379998,16.9660857907553
0.000679148000999199,16.9740256587709
0.000770584835299779,16.9813521898716
0.000874043149983318,16.9881139559001
0.000991125406457568,16.9943559946148
0.00112364681724606,17.0001200997877
0.00127366341779876,17.0054450652088
0.00144350569412502,17.0103668798689
0.00163581379488866,17.0149189385677
0.00185358422912329,17.019132257448
0.00210022067779197,17.023035676262
0.00237959784125724,17.0266560235814
0.00269613830766672,17.0300182950331
0.00305490989556591,17.0331458518758
0.00346175333019016,17.0360606147473
0.00392344546195334,17.0387832656074
0.00444792553237287,17.0413334970672
0.00504461493879292,17.0437303130265
0.00572488287243613,17.045992416829
0.00648171281205102,17.0480856217269
0.00731763295159689,17.0500234866207
0.00824496483409117,17.0518399763371
0.00928232861111973,17.053569700082
0.0104604625892682,17.05525300359
0.011842976968802,17.0569545563609
0.0136716767080926,17.0588917010731
0.0154700711015247,17.0605654233718
0.0174403035009587,17.0622391456705
0.0191616147974079,17.0636335915969
0.0206528860330381,17.0648399161586
0.0219872398312622,17.065962728446
0.0231803152863739,17.0670546895681
0.0242227797874093,17.0681543357697
0.0250881789100391,17.0693037312128
0.0257254502311562,17.0705685172666
0.0260169290224786,17.0721072199324
0.0255440812226388,17.0743095289287
0.0245174188949626,17.0760871125575
0.0233728722673089,17.0775330562272
0.0220953525944349,17.0789237684425
0.0206779219364019,17.0803470457596
0.0191286219937373,17.081844808916
0.017453569376759,17.0834559259255
0.0156906595723807,17.0852319140271
0.0137385281341563,17.0873950449893
0.0123480792436142,17.0890988273616
0.0110814807115106,17.090802609734
0.0100464206479849,17.0923289266352
0.00914599554430892,17.0937775855643
0.00831160551071303,17.0952425473464
0.00749346137833267,17.0968191092954
0.00662705187095631,17.0986774958609
0.00559684771142166,17.1012188748072
0.00469329342309771,17.1038585447858
0.00397442373410059,17.1063525593085
0.00335408168103415,17.108911447488
0.00277143734783314,17.1118246080245
0.00226431126200056,17.1149903817164
0.00184373280196346,17.118370493885
0.00150738183323005,17.1220052690261
0.00125706531529487,17.1259473267121
0.00110245539036255,17.1302644332374
0.00106572764137921,17.1345785571075
0.00113686327779422,17.1384271789276
0.00129674682821518,17.1418889730769
0.00153543903210801,17.1450075563584
0.00184846780318944,17.1478294509025
0.00223594997374897,17.1504045544377
0.00270210993422188,17.1527815648751
0.00325631595610191,17.1550103283374
0.00391608183616019,17.1571462481094
0.00471339430829085,17.1592572910154
0.00570528664212782,17.161431132913
0.00701399991544091,17.1638223608066
0.00879094717872774,17.166537999035
0.0104001603800038,17.1686496687
0.0122381460024402,17.170761338365
0.0140395834882927,17.1725716356276
0.015856797791567,17.1741730290211
0.017794574392155,17.1756668154929
0.0198907274282698,17.1770734248104
0.0221994233989935,17.1784160740707
0.0247668689933647,17.1797050848136
0.0276323835629281,17.1809436162736
0.0308453742511464,17.182137050718
0.0344538405497692,17.1832877359298
0.0385088901178983,17.1843974980713
0.0430743343465804,17.185469921774
0.0482184879826114,17.1865074563034
0.0540225064529548,17.187513135342
0.0605824687442284,17.1884902488121
0.068011182160258,17.1894420624423
0.0764431757251059,17.1903719841597
0.0860435081633113,17.1912838927214
0.0970137705356272,17.1921818983707
0.109604966694423,17.1930705842605
0.124134539700798,17.1939551775367
0.14101391363103,17.1948419357925
0.16078875395201,17.1957385637688
0.184213831128618,17.196655295944
0.211573419361789,17.19758107883
0.243269178915987,17.1985130341879
0.280146780548054,17.1994621467791
0.323444457422238,17.2004477128617
0.363864371839468,17.2012839096855
0.406791153489583,17.2021201065093
0.443741287730794,17.2028254505586
0.475646740546885,17.203448539168
0.503677689636898,17.2040333509884
0.528086791374574,17.2046067996597
0.548588437037613,17.2051920472968
0.56434134418594,17.2058179289896
0.573386585976306,17.2065371693709
0.571768513648322,17.2072973450953
0.557970810391011,17.2080899029322
0.530409281942387,17.2089350580571
0.488752959319744,17.2098135830244
0.432399190051107,17.2107271632292
0.379859460271469,17.2114406832907
0.320816036490518,17.2121542033521
0.269791318586791,17.2127279560208
0.227553504097821,17.2131891389434
0.191244054646859,17.2135853542182
0.159121830498306,17.2139430096796
0.130229570199028,17.2142769276546
0.103961762312279,17.2145970183189
0.0798627748066455,17.2149114475097
0.0575027362616913,17.2152289987998
0.036295987750212,17.2155633846606
0.01472040602647,17.2159530123771
0.00669157470626958,17.2161159971508
-0.000765383633985857,17.2162789819245
-0.00919232370806917,17.2164798167448
-0.0159845624260982,17.2166577630406
-0.0220512755292728,17.2168319887194
-0.0282298825080314,17.2170281549181
-0.0342437575164463,17.2172424888501
-0.0399109789446916,17.2174725450439
-0.0451291669547338,17.2177173524187
-0.0498438753779184,17.2179769162021
-0.054029592709273,17.2182519319086
-0.0576785668046648,17.2185436442974
-0.0607940116412505,17.2188537952205
-0.0633780078210925,17.2191846313082
-0.0654276566057296,17.2195372386606
-0.0669663990604762,17.2199148442635
-0.0680198860529238,17.220323260115
-0.0686011601024872,17.2207677782762
-0.06871963138587,17.2212550739803
-0.068379065068337,17.2217937708597
-0.067573068167522,17.2223962771756
-0.0662797543910969,17.2230795002626
-0.0644531191465192,17.2238681426848
-0.0619979452038817,17.2248036814086
-0.0586835025897016,17.2259741353296
-0.0544886697840853,17.2273992512422
-0.0503955987378745,17.2287765486462
-0.0464649521821767,17.2301134046227
-0.0427287502195896,17.2314124570462
-0.0392041780061458,17.2326746518945
-0.035900211253412,17.2339000845851
-0.032820415911876,17.2350884423314
-0.0299643486883365,17.2362392379334
-0.0273284169824642,17.237351931869
-0.0249065197081073,17.2384259923872
-0.0226905895959162,17.2394609192562
-0.0206710803662917,17.2404562448008
-0.0188374101442581,17.2414115197354
-0.0171783616288561,17.2423262879503
-0.0156001315702192,17.2432496648006
-0.0140816491174673,17.2441968202184
-0.0126271634684979,17.2451695040542
-0.0112405496068147,17.2461698972059
-0.00992546972092853,17.24720056547
-0.00868531967733453,17.2482645564513
-0.00752317432930424,17.2493655267272
-0.00644172986706346,17.2505079139428
-0.00544324271451162,17.2516971753394
-0.0045294637813475,17.2529401277976
-0.00370156569165884,17.254245449138
-0.00296005845144508,17.2556244478242
-0.00230468476033056,17.2570923058883
-0.00173427692378439,17.2586702194595
-0.0012666563513392,17.2603088105463
-0.000894029151717625,17.2619988415749
-0.000600450762441566,17.2637587468621
-0.000371306215201786,17.265611292942
-0.00019267866432095,17.2675873088628
-5.08237861591907e-05,17.269731336158
6.86991238802927e-05,17.2721137978849
0.000182931261869851,17.2748626011673
0.000317876226248103,17.2782787772434
0.00047746570112512,17.2820400290353
0.000673464697144367,17.286163640741
0.000929834293798983,17.2910619427931
0.00118657051515163,17.2957161032364
0.00143068367225613,17.3000765414047
0.0016706938721018,17.3043861582704
0.00192052584459737,17.3089349540581
0.00219205408704889,17.3139568254169
0.00245386050853675,17.3188456520892
0.00272155426413992,17.3238586208073
0.00295108796211133,17.328128093641
0.00316494632754796,17.3320647254082
0.00337460167761756,17.3358680859157
0.00358597895830487,17.3396322689219
0.00380319280461527,17.3434150529779
0.00402972848116744,17.3472588175948
0.00426892115158476,17.3511983599021
0.00452422459673079,17.3552646934147
0.00479943982645073,17.3594877505906
0.00509890535028551,17.3638978179389
0.00542774706400681,17.3685267684262
0.00579227359920692,17.3734093732705
0.0062006140667479,17.378584393533
0.0066243447975584,17.3836362402437
0.00707351586417662,17.3886555491773
0.007548027680505,17.3935977831074
0.00805287474455266,17.3984700554501
0.00859316544035506,17.4032721642851
0.00917528399338779,17.408008470312
0.00980633641359323,17.4126817763212
0.0104943308624674,17.4172943383014
0.0112652790534626,17.4219455164572
0.0121329800491999,17.4266242003482
0.0131193871828595,17.4313475771801
0.0142546221462245,17.4361461269656
0.0155873668117078,17.4410917419121
0.0172165519028637,17.44637259133
0.0194723775826168,17.4527171020365
0.0211605419615316,17.4569948687198
0.02293206089864,17.461272635403
0.0244455519813154,17.4649324389986
0.0257120289410557,17.4681750361502
0.026770346307207,17.4712308286477
0.027603183127511,17.4741896196087
0.0281680546700091,17.4770223710487
0.0284634580733801,17.4798502374565
0.028458705584781,17.4828298665651
0.0280426381529874,17.4862966198311
0.027254141540402,17.4896449968694
0.0261465375126293,17.4929933739078
0.025051531003787,17.4957411453351
0.0239753912845456,17.4981825018452
0.0229008098036055,17.5004800141333
0.0218261045199247,17.5027005594537
0.0207540643912687,17.504879142314
0.0196883477947559,17.5070379615934
0.0186326278350288,17.509192782936
0.0175903667802105,17.5113556964052
0.0165647576868465,17.5135365347018
0.0155587167672957,17.5157436899617
0.0145748871095473,17.517984635242
0.0136156530085088,17.5202662645344
0.0126831471625807,17.5225951525923
0.0117792615960182,17.5249777476483
0.0109056598017909,17.5274205237261
0.0100637786282473,17.5299301404209
0.00925484314317043,17.5325135584439
0.00847938044350122,17.5351799370665
0.00771620993308178,17.5380231234645
0.00696919589968293,17.5410627600028
0.00624215701866456,17.5443227246907
0.0055390510743582,17.5478305412918
0.00486398871174061,17.5516180671795
0.0042211808169966,17.5557223769294
0.00361482577588165,17.5601870387335
0.00304893514814518,17.5650641974374
0.00252708027828123,17.5704183961629
0.00205212753321551,17.5763331432873
0.0016261382822469,17.5829201183259
0.00126060986465331,17.5901040954787
0.000955968252507519,17.5978812883543
0.000705618026603527,17.6063801110377
0.00050996007449757,17.6157708862625
0.000381058422696461,17.624913644452
0.000282274370718503,17.634913644452
0.000213467489685834,17.644913644452
0.00016563830970227,17.654913644452
0.000132867405595247,17.664913644452
0.000110853689573069,17.674913644452
9.6416660987799e-05,17.684913644452
8.7270810870743e-05,17.694913644452
8.18292250738082e-05,17.704913644452
7.90132249945522e-05,17.714913644452
7.80940404827843e-05,17.724913644452
7.85785003538314e-05,17.734913644452
8.01331994890861e-05,17.744913644452
8.25354581337904e-05,17.754913644452
8.5641027845219e-05,17.764913644452
8.93621545343399e-05,17.774913644452
9.36524362458669e-05,17.784913644452
9.84964671570332e-05,17.794913644452
0.000103902992898781,17.804913644452
0.000109900677582153,17.814913644452
0.000116535838431596,17.824913644452
0.000123871715371799,17.834913644452
0.000131989022140653,17.844913644452
0.000140987675613272,17.854913644452
0.000150989730922864,17.864913644452
0.000162143677419452,17.874913644452
0.00017463039349196,17.884913644452
0.000188671239449104,17.894913644452
0.000204539017234535,17.904913644452
0.000222572888775646,17.914913644452
0.000243198893166204,17.924913644452
0.000266958556523462,17.934913644452
0.000294549453492167,17.944913644452
0.000326883821739962,17.954913644452
0.000365175119556581,17.9649136444521
0.000411069018092772,17.9749136444521
0.000466847220853515,17.9849136444521
0.00053038889103205,17.9941997549559
0.000602306708662944,18.0027691129545
0.000683657866456983,18.0106756273254
0.000775687191039584,18.0179714372067
0.000879816877345744,18.0247049233206
0.000997659984206108,18.0309209468927
0.00113104359782771,18.0366611392555
0.00128203725432162,18.0419641425644
0.00145298669911124,18.0468658048352
0.00164654951327797,18.0513993910241
0.0018657421047321,18.0555957987183
0.00211399125497758,18.0594837584657
0.00239519812518803,18.0630899983421
0.00271381653534215,18.0664394233793
0.00307495128781982,18.0695553148476
0.00348448755125029,18.0724595232296
0.00394925684187984,18.0751726720587
0.00447726699056416,18.0777144100449
0.00507802805911237,18.0801037145742
0.00576302825247585,18.0823592869186
0.00652381711634453,18.0844434723608
0.00736421578437736,18.0863740761804
0.00829682431249269,18.0881850962085
0.00934070641839432,18.0899112685389
0.0105275476424953,18.0915935079328
0.0119268700618596,18.0933021566827
0.0137925418333954,18.0952621015844
0.0155534466379331,18.0968908826443
0.0174751651936614,18.0985196637043
0.0191860769156727,18.0999051279463
0.0206742560109806,18.1011093096816
0.022006422521956,18.1022313171275
0.0231973227812224,18.1033231156569
0.0242373394425175,18.1044231757112
0.0250997386093608,18.1055737338673
0.0257329224034923,18.1068410689485
0.0260172763377363,18.1083866482271
0.0255325639665249,18.1105878661567
0.0245045468350649,18.1123570822802
0.0233588957202962,18.1138010332454
0.022079780991258,18.1151917563214
0.0206607895797402,18.1166156735712
0.019110022786727,18.1181145083098
0.017433536306479,18.1197271885913
0.0156698036220272,18.1215054770543
0.0137026062310538,18.1236888265362
0.0123214999658326,18.1253846295441
0.011062963245372,18.1270804325521
0.0100310605144033,18.1286042940321
0.00913215603457345,18.1300525279076
0.0082984191469011,18.1315184575824
0.00748011513560741,18.1330978347679
0.00661207304666315,18.1349633206079
0.00558371552700926,18.1375058412055
0.00468187471561008,18.1401467772372
0.00396489238824937,18.1426403840937
0.00334536185446898,18.1452026437179
0.00276302376072399,18.1481232869707
0.00225724134897236,18.151292168713
0.00183796479440759,18.154675854028
0.00150290401776514,18.1583149191383
0.00125395440271743,18.1622621789706
0.00110095103027612,18.1665856792628
0.00106608726529286,18.1708917043076
0.00113867909796543,18.1747342160891
0.00129981387734532,18.1781904409052
0.00153965394133594,18.1813041695657
0.00185380032152288,18.1841219567667
0.00224243453034006,18.1866937059671
0.00270983977241255,18.1890680694342
0.00326549015269669,18.1912949972469
0.00392705156947173,18.1934299812656
0.00472685635490035,18.1955413829429
0.0057224087742902,18.1977171328606
0.00703745863765626,18.2001133425733
0.0088198480377603,18.2028301929416
0.0104263620551215,18.204933595914
0.0122604759003423,18.2070369988864
0.0140609921898521,18.2088434884035
0.0158790467941019,18.2104431035981
0.0178186335798491,18.2119358569388
0.0199169382630744,18.2133415388587
0.0222286422745326,18.2146836025248
0.0247993579732429,18.2159719567538
0.0276688658028153,18.2172099716644
0.0308862384673147,18.2184028509338
0.0344999104218103,18.2195530814657
0.0385606747921926,18.2206623645313
0.0431326141970795,18.2217343439122
0.0482843032314737,18.2227714974597
0.0540968047098995,18.2237768099336
0.0606664945128741,18.2247535958784
0.0681064500603908,18.2257051270312
0.0765514555623039,18.2266348076294
0.0861669829143039,18.227546522479
0.0971551392502098,18.2284443867013
0.109767650405861,18.229332992433
0.124322841101967,18.2302175721014
0.141233491209072,18.2311043992584
0.161047245733316,18.2320012012462
0.184522092551963,18.2329182537373
0.211930054317908,18.2338440623338
0.243683027824035,18.2347761501942
0.280629854419134,18.2357255632844
0.32401602520699,18.2367117603547
0.364331468622317,18.2375449802159
0.407122878144922,18.2383782000771
0.444015030428655,18.239082448492
0.475885894470339,18.239705080773
0.503887666049716,18.2402897062567
0.528267223757122,18.2408631563316
0.548735068633313,18.2414486002281
0.564444293627659,18.2420749660658
0.573421275929074,18.2427953332255
0.571703880802023,18.2435556944769
0.557796332861763,18.2443486202416
0.530108305897875,18.2451943025477
0.488338095963805,18.2460729200649
0.43185386599588,18.2469868523904
0.379375697694316,18.2476985891774
0.320436893667137,18.2484103259644
0.269491490783148,18.2489830031566
0.227301823337286,18.2494436215274
0.19102401388178,18.2498395189888
0.158925238334975,18.2501969808583
0.130051672808416,18.2505307806721
0.1037992771423,18.2508508091106
0.0797129668105126,18.2511652281406
0.0573626079606067,18.2514828349046
0.0361603782134517,18.2518174027505
0.0145696024500866,18.2522077145769
-0.000643300930369254,18.2525279322961
-0.00816340721826793,18.2527059291903
-0.0150467455502888,18.2528839260845
-0.0210532685123338,18.2530539120449
-0.0272332339914193,18.2532467527978
-0.0332888250783676,18.2534583543066
-0.0390208342925052,18.2536859589688
-0.0443164963088601,18.2539283956154
-0.049115157785841,18.2541855355482
-0.0533875292167175,18.254457974892
-0.0571235275745331,18.2547468748285
-0.0603249317613843,18.2550538974434
-0.0629950332362911,18.2553812049582
-0.0651733002673502,18.2557384357894
-0.0667813355653469,18.2561121955371
-0.0679016290118891,18.2565160250572
-0.068548070869766,18.2569551461683
-0.068730682234138,18.2574360125495
-0.068454166989032,18.2579669328374
-0.0677139686063948,18.258559634044
-0.0664906261554864,18.2592303656824
-0.0647424784168104,18.260002360157
-0.062383895498831,18.2609138146493
-0.0592147995103605,18.2620422064975
-0.0550117452258275,18.2634750340934
-0.0509017127835078,18.2648577000376
-0.0469484265364755,18.2661994188066
-0.043186615176292,18.2675031276665
-0.0396348235658978,18.2687699240937
-0.036302853101515,18.269999978333
-0.0331948519248055,18.2711930118429
-0.0303108245483412,18.272348550287
-0.0276475349016662,18.2734660560481
-0.0251991651885037,18.2745449942539
-0.0229578670536959,18.2755848601094
-0.0209142545414434,18.276585182251
-0.0190578528308323,18.2775455101881
-0.0173775039203101,18.2784653903143
-0.0157922655432419,18.2793858868515
-0.0142661413554019,18.2803300189188
-0.0128035229502104,18.2812994321479
-0.0114083073670899,18.2822962657663
-0.0100841860724993,18.2833230331353
-0.00883459078191389,18.2843827160856
-0.00766263912294904,18.2854788875858
-0.00657107736734274,18.2866158773135
-0.0055622198013721,18.2877990004128
-0.00463788365047263,18.2890348823898
-0.00379931736618779,18.2903319359333
-0.0030471180844752,18.2917010890191
-0.00238113017011554,18.2931569525892
-0.00180030841177739,18.2947198136312
-0.0013195404241219,18.296353333107
-0.000935958709900836,18.2980359508842
-0.000633319905895777,18.2997860057828
-0.0003968945488,18.3016254928224
-0.000212703085913842,18.3035840024232
-6.70168285349666e-05,18.3057038925841
5.44475076450872e-05,18.3080512557789
0.000168221297956786,18.3107435733459
0.000298381636044369,18.3140452264889
0.000455216288524301,18.3177916945023
0.000645190216840768,18.3218470175103
0.000891902744479734,18.3266104388902
0.00115036512749057,18.3313185093246
0.00139588956842579,18.3357064740458
0.00163579251026577,18.3400078173047
0.00188295680835184,18.3444978472881
0.00215741188874419,18.3495650060901
0.00241981402679973,18.3544601582232
0.00268574350712649,18.3594404077514
0.00291900599920597,18.3637849904585
0.00313419321236694,18.3677533864581
0.00334401839135839,18.3715689870647
0.00355486104565949,18.3753347469681
0.00377099744247707,18.3791119299898
0.00399596526514428,18.3829445094869
0.00423310198106694,18.386868099422
0.00448582825424137,18.3909140616855
0.00475788324036624,18.3951123901189
0.00505351360864232,18.39949323999
0.00537771031159043,18.4040881751072
0.00573657606588174,18.4089314571754
0.00613792207965111,18.4140612196045
0.00655965777810603,18.4191369204911
0.00700479177104745,18.4241611418613
0.00747533118382991,18.4291156564026
0.00797533256369733,18.4339983350559
0.00850994990762812,18.438810712285
0.00908538415055996,18.4435566234936
0.00970864482459933,18.4482392231786
0.0103874838252374,18.4528600787422
0.0111451831099458,18.4575054308713
0.0119973115896997,18.4621792998053
0.012964474202672,18.4668946777506
0.0140751742126453,18.4716789519215
0.0153742362449817,18.4765952212492
0.0169488498274886,18.4818043423944
0.0190596115692087,18.4878718920287
0.020823456752649,18.4924139466462
0.0226947618111525,18.4969560012637
0.0242564472150373,18.5007192484088
0.0255534235382971,18.5040032409822
0.0266393597655417,18.507074755565
0.0275087689299884,18.5100601439503
0.0281087581059454,18.5129031270177
0.0284406518552823,18.5157239883725
0.0284790705005719,18.5186712782867
0.0281312103306731,18.5220353337064
0.0271122880406494,18.5263816814895
0.0262125262346303,18.5290672648116
0.0251529534749359,18.5317528481338
0.0240796681396691,18.5342058076371
0.023005392593604,18.5365129725607
0.0219306308917427,18.5387390886237
0.0208581855413162,18.5409205922861
0.0197916981875326,18.5430805260127
0.0187348562820104,18.5452351241685
0.0176911462031534,18.5473967584187
0.0166637888071123,18.549575436354
0.0156557266323253,18.5517796647382
0.0146696291637126,18.5540169879982
0.0137079059325745,18.5562943428721
0.012772713013498,18.5586183274028
0.0118659661189937,18.5609953929839
0.0109893505982155,18.5634320046742
0.0101443247773513,18.5659347986561
0.00933213417958044,18.5685107000649
0.00855381526827189,18.5711670693427
0.00778929385214121,18.5739923440507
0.00704054840510844,18.5770120328086
0.00631140229250587,18.580249599367
0.00560580104676245,18.5837321848431
0.00492784114480949,18.5874911963314
0.00428172765823081,18.5915631604639
0.00367166692159419,18.5959909463251
0.00310169439502946,18.6008257809107
0.00257544710299424,18.6061306812246
0.00209586039726619,18.6119870240185
0.00166507073406562,18.6185033250415
0.00129328052202895,18.625635249084
0.000983027094528829,18.6333499233964
0.000727690256146893,18.6417720472273
0.000526633859729477,18.6510674195317
0.000381764127700944,18.6610674195317
0.000286386348979886,18.6706604073261
0.00021636370605386,18.6806604073261
0.000167649012766771,18.6906604073261
0.000134232177234779,18.7006604073261
0.000111758048936536,18.7106604073261
9.6999384065525e-05,18.7206604073261
8.76300768191124e-05,18.7306604073261
8.20317891741468e-05,18.7406604073261
7.91038262290351e-05,18.7506604073261
7.8102759624673e-05,18.7606604073261
7.85256963086655e-05,18.7706604073261
8.00326117231571e-05,18.7806604073261
8.23961750185522e-05,18.7906604073261
8.54687968673176e-05,18.8006604073261
8.91602897300546e-05,18.8106604073261
9.34224504053203e-05,18.8206604073261
9.82385009718331e-05,18.8306604073261
0.000103616091266411,18.8406604073261
0.00010958295103329,18.8506604073261
0.000116184537052619,18.8606604073261
0.000123483232774139,18.8706604073261
0.000131558838550484,18.8806604073261
0.000140510242025761,18.8906604073261
0.000150458289852298,18.9006604073261
0.000161550009150643,18.9106604073261
0.000173964468833665,18.9206604073261
0.000187920749511993,18.9306604073261
0.000203688735898766,18.9406604073261
0.000221603801488705,18.9506604073261
0.000242086991969,18.9606604073261
0.000265673148042434,18.9706604073261
0.000293050740635119,18.9806604073261
0.000325119376879787,18.9906604073261
0.000363074622349508,19.0006604073261
0.000408536198829479,19.0106604073261
0.000463747158795813,19.0206604073261
0.000526866988878041,19.0299841091314
0.000598320992321488,19.0385895952653
0.000679148948671562,19.0465294562098
0.00077058590614449,19.0538559807985
0.000874044360481817,19.0606177408331
0.000991126775319897,19.0668597740343
0.00112364836568037,19.0726238741397
0.00127366516985341,19.0779488349068
0.00144350767706085,19.0828706452965
0.00163581603963376,19.0874227000808
0.00185358677079361,19.0916360153775
0.00210022355636132,19.0955394309153
0.00237960110226088,19.0991597752449
0.00269614200320294,19.1025220439737
0.00305491408549603,19.1056495983435
0.00346175808370006,19.1085643589771
0.0039234508596883,19.1112870078219
0.00444793166934087,19.1138372374797
0.00504462192855022,19.1162340518443
0.00572489085340416,19.1184961542588
0.00648172162179768,19.1205893572411
0.00731764269840861,19.1225272205903
0.00824497568409972,19.1243437091393
0.00928234082201265,19.1260734321189
0.0104604766132937,19.1277567353793
0.0118429944771497,19.1294582895969
0.0136717017602955,19.1313954389126
0.0154700880548974,19.1330691515234
0.0174403099652171,19.1347428641343
0.0191616191525395,19.1361373082407
0.0206528898248586,19.1373436324037
0.0219872432373821,19.1384664445439
0.0231803183096474,19.1395584056334
0.024222782379473,19.1406580519047
0.0250881809729924,19.1418074475498
0.025725451572598,19.1430722340496
0.0260169291083715,19.1446109379193
0.0255440787727526,19.1468132477446
0.0245174158308406,19.1485908300014
0.0233728688440687,19.1500367732883
0.0220953487585673,19.1514274855153
0.0206779177040588,19.1528507629896
0.0191286173874342,19.154348526409
0.0174535644028202,19.1559596438034
0.0156906543795519,19.1577356324723
0.0137385114842939,19.1598987774611
0.0123480645368478,19.1616025591772
0.0110814677834853,19.1633063408932
0.0100464086187608,19.1648326580584
0.00914598439110017,19.1662813171426
0.00831159526469749,19.1677462789553
0.00749345211974082,19.1693228407764
0.006627043816151,19.1711812268535
0.00559684064177936,19.1737226062837
0.00469328721869642,19.176362276915
0.00397441831713571,19.1788562918477
0.00335407705691739,19.1814151800674
0.00277143352499935,19.1843283404132
0.00226430794591612,19.1874941152901
0.00184372994726944,19.1908742289114
0.00150737941268541,19.1945090057991
0.00125706332250095,19.1984510656029
0.00110245385793306,19.2027681747311
0.00106572660516313,19.2070822973642
0.00113686259905462,19.2109309183971
0.0012967464303572,19.214392711834
0.00153543886929446,19.2175112945002
0.00184846785407965,19.2203331885618
0.00223595023092345,19.2229082917157
0.00270211039617799,19.2252853018343
0.00325631664693948,19.2275140651001
0.00391608278860388,19.2296499847556
0.00471339561369967,19.2317610277152
0.00570528833645946,19.2339348696137
0.00701400207332201,19.2363260974758
0.00879094992883479,19.239041735636
0.0104001627945137,19.2411534041339
0.0122381479798933,19.2432650726319
0.0140395856484332,19.2450753695207
0.0158568003018887,19.2466767627087
0.0177945773591054,19.2481705490343
0.0198907309569423,19.2495771582458
0.0221994275500525,19.2509198073983
0.0247668738580764,19.2522088180445
0.0276323892238123,19.2534473494103
0.030845380810872,19.2546407837669
0.0344538481152949,19.2557914688948
0.0385088988224502,19.2569012309603
0.0430743443416972,19.2579736545941
0.0482184994468414,19.2590111890624
0.0540225195921904,19.2600168680474
0.0605824838078998,19.2609939814724
0.06801119945039,19.2619457950668
0.076443195603242,19.2628757167577
0.0860435310793406,19.2637876253039
0.0970137970532447,19.2646856309501
0.109604997535853,19.2655743168516
0.124134575797979,19.2664589101565
0.141013956236502,19.267345668463
0.160788804803897,19.2682422965188
0.184213892775823,19.2691590288148
0.211573491021864,19.2700848117432
0.243269262522888,19.2710167671729
0.280146878795599,19.2719658798814
0.323444574725779,19.2729514461669
0.363864463123936,19.2737876423414
0.40679121134233,19.2746238385158
0.443741330871825,19.275329182356
0.475646774622762,19.2759522709001
0.503677715934804,19.2765370827131
0.528086809809267,19.2771105314163
0.548588446629659,19.2776957791261
0.564341342706657,19.2783216609512
0.573386568056796,19.279040901595
0.571768472958261,19.2798010773856
0.55797074493445,19.2805936353238
0.530409188469086,19.2814387905772
0.488752836636565,19.282317315651
0.432399034573556,19.2832308959867
0.379859324161499,19.2839444155733
0.320815931139312,19.2846579351599
0.269791236188407,19.2852316875465
0.227553435636139,19.2856928703247
0.191243995388784,19.2860890855206
0.159121778085532,19.2864467409356
0.130229523257182,19.2867806588837
0.103961719896244,19.2871007495353
0.0798627361455696,19.2874151787266
0.057502700548442,19.2877327300337
0.0362959536741094,19.2880671159427
0.0147203687722341,19.2884567438309
0.00669157491229232,19.2886197278759
-0.00076535110508116,19.2887827119209
-0.00919229459713759,19.2889835467584
-0.0159845372396535,19.2891614930995
-0.0220512489388464,19.2893357186765
-0.0282298559770103,19.2895318847947
-0.0342437320348757,19.2897462186609
-0.0399109550796938,19.2899762747958
-0.0451291450189735,19.2902210821135
-0.0498438555318693,19.2904806458386
-0.0540295750205416,19.2907556614827
-0.0576785512835502,19.2910473738031
-0.0607939982626117,19.2913575246498
-0.0633779965754539,19.2916883606507
-0.0654276481560421,19.2920409680505
-0.0669663924227942,19.2924185735523
-0.0680198811692713,19.2928269892836
-0.0686011569322878,19.2932715073025
-0.0687196299051546,19.2937588028362
-0.0683790652789736,19.2942974995083
-0.0675730701225334,19.2949000055609
-0.0662797582112594,19.29558322831
-0.0644531250767141,19.2963718702777
-0.061997953768668,19.2973074083348
-0.0586835152420771,19.2984778610579
-0.0544886822054736,19.2999029771712
-0.0503956106989483,19.3012802747167
-0.0464649635403714,19.3026171308204
-0.0427287609019326,19.3039161833651
-0.039204187974569,19.3051783783326
-0.0359002204908875,19.3064038111425
-0.0328204244160731,19.3075921690094
-0.0299643564681118,19.3087429647335
-0.0273284240554947,19.3098556587928
-0.0249065260990199,19.3109297194364
-0.022690595334642,19.3119646464322
-0.0206710854865884,19.3129599721051
-0.0188374146823776,19.3139152471694
-0.0171783656223465,19.3148300155156
-0.0156001353835515,19.3157533922922
-0.0140816527351755,19.3167005476326
-0.0126271668787304,19.3176732313846
-0.0112405527982969,19.3186736244451
-0.00992547268314525,19.3197042926091
-0.00868532240070797,19.3207682834799
-0.00752317680536844,19.3218692536326
-0.00644173208865862,19.3230116407095
-0.00544324467598964,19.3242009019483
-0.0045294654787967,19.3254438542246
-0.00370156712316083,19.326749175352
-0.00296005961738459,19.3281281737842
-0.00230468566379759,19.3295960315384
-0.00173427757115737,19.3311739447199
-0.00126665667551747,19.3328125356739
-0.000894029209027886,19.3345025665094
-0.000600450601855801,19.33626247154
-0.000371305882912902,19.3381150172796
-0.000192678205145938,19.3400910327438
-5.08232456760389e-05,19.3422350594078
6.86996954004611e-05,19.3446175202127
0.000182931799511631,19.3473663219979
0.000317876609132345,19.3507824949664
0.000477465985277543,19.3545437463079
0.000673464797155098,19.3586673561567
0.00092983410785882,19.363565654494
0.00118657026913805,19.3682198147599
0.00143068341012054,19.372580252954
0.00167069360786758,19.3768898698032
0.00192052558117101,19.3814386654923
0.00219205383529134,19.3864605369187
0.00245386026267415,19.3913493635989
0.0027215540173889,19.3963623322629
0.00295108772039792,19.4006318052124
0.00316494608562129,19.4045684370307
0.00337460143246388,19.4083717975591
0.00358597870775989,19.4121359805694
0.00380319254679671,19.4159187646185
0.0040297282142174,19.4197625292198
0.00426892087351822,19.4237020715041
0.00452422430531309,19.4277684049871
0.00479943951908197,19.4319914621269
0.00509890502386822,19.4364015294325
0.00542774671476136,19.4410304798701
0.00579227322240962,19.4459130846573
0.00620061365633521,19.4510881048549
0.00662434436423713,19.4561399516736
0.00707351540013481,19.4611592606656
0.00754802718315206,19.4661014946695
0.00805287420875218,19.47097376708
0.00859316486079949,19.4757758759821
0.00917528336389648,19.4805121820751
0.00980633572722099,19.4851854881505
0.01049433009495,19.489798050093
0.0112652781927288,19.4944492282272
0.0121329790755379,19.4991279120829
0.0131193860704986,19.5038512888588
0.0142546208565371,19.5086498385403
0.015587365276827,19.5135954532684
0.0172165499631331,19.5188763021398
0.019472374486927,19.5252208105876
0.021160539377072,19.5294985790575
0.0229320589928723,19.5337763475275
0.024445550441227,19.5374361518872
0.0257120276476061,19.5406787493583
0.0267703452416383,19.5437345419743
0.0276031823632118,19.5466933331448
0.0281680541966709,19.5495260846605
0.0284634579045034,19.5523539509999
0.0284587057802535,19.5553335798206
0.0280426389437112,19.5588003321547
0.0272541424223551,19.5621487104802
0.0261465381774464,19.5654970888057
0.0250515316079648,19.5682448605963
0.0239753918815802,19.5706862172261
0.0229008104007425,19.5729837295715
0.0218261051164588,19.5752042749234
0.0207540649852569,19.5773828578003
0.0196883483841005,19.5795416770861
0.0186326284177128,19.5816964984276
0.017590367354352,19.5838594118897
0.0165647582507206,19.5860402501745
0.0155587173193235,19.5882474054182
0.0145748876482979,19.5904883506784
0.0136156535326949,19.5927699799472
0.0126831476710414,19.5950988679782
0.0117792620877242,19.5974814630038
0.0109056602758435,19.5999242390479
0.0100637790838594,19.6024338557056
0.00925484357967628,19.6050172736878
0.00847938087399815,19.6076836522171
0.00771621035546283,19.6105268385116
0.00696919631201854,19.6135664749339
0.00624215741887897,19.6168264394915
0.00553905146014499,19.6203342559459
0.00486398908071435,19.6241217816677
0.00422118116674465,19.6282260912294
0.00361482610404508,19.6326907528188
0.00304893545254729,19.6375679112759
0.00252708055708021,19.6429221097138
0.00205212778502249,19.6488368564969
0.0016261385061009,19.6554238311214
0.00126061005215821,19.6626078079695
0.000955968407410105,19.6703850004789
0.000705618152517119,19.6788838227126
0.000509960172757729,19.6882745973772
0.000381058463693547,19.6974173580021
0.000282274401156436,19.7074173580021
0.000213467512717948,19.7174173580021
0.000165638327412151,19.7274173580021
0.000132867419519218,19.7374173580021
0.000110853700860797,19.7474173580021
9.64166704718187e-05,19.7574173580021
8.7270819133589e-05,19.7674173580021
8.18292325168077e-05,19.7774173580021
7.90132318958682e-05,19.7874173580021
7.80940470392335e-05,19.7974173580021
7.85785067084711e-05,19.8074173580021
8.01332057490487e-05,19.8174173580021
8.25354643821737e-05,19.8274173580021
8.56410341494047e-05,19.8374173580021
8.93621609520356e-05,19.8474173580021
9.36524428296014e-05,19.8574173580021
9.84964739575896e-05,19.8674173580021
0.000103902999967932,19.8774173580021
0.00010990068497499,19.8874173580021
0.000116535846208695,19.8974173580021
0.00012387172360141,19.9074173580021
0.000131989030901118,19.9174173580021
0.000140987684995831,19.9274173580021
0.00015098974103509,19.9374173580021
0.000162143688389575,19.9474173580021
0.000174630405474443,19.9574173580021
0.000188671252631972,19.9674173580021
0.000204539031849158,19.9774173580021
0.000222572905110033,19.9874173580021
0.000235329122176092,19.9937086790011
0.000249187851118963,20
