ecg,time
0.000887228655725665,15.0036058742971
0.000736365436148443,15.0110846097015
0.00060110899153673,15.0202871341903
0.000502639771837773,15.0302871341903
0.000442092121994423,15.0402871341903
0.000409869784214281,15.0502871341903
0.000399237685694754,15.0602871341903
0.000405805793129642,15.0702871341903
0.000427180883185652,15.0802871341903
0.000462693595352405,15.0902871341903
0.000512360987237188,15.100124790894
0.000573481510977996,15.1092121418605
0.00064584014771344,15.1175870733379
0.00073001786551791,15.1253071656881
0.000827082572407504,15.1324260125366
0.000938465215170216,15.1389928778562
0.00106591225821391,15.1450531583848
0.00121147773201005,15.1506487833591
0.00137753686073507,15.1558185445437
0.00156681368354998,15.1605983803109
0.00178242050439851,15.1650216318021
0.00202791022385767,15.1691192804174
0.00230734321566182,15.1729201704132
0.00262537258459507,15.1764512259624
0.00298735540952357,15.1797376748858
0.00339949922459795,15.1828032893798
0.00386906165819552,15.1856706567866
0.00440463081909032,15.1883615079166
0.00501653589914611,15.1908971479391
0.0057169490217021,15.1932974125375
0.00649409065331432,15.1955131862071
0.00735950395356537,15.1975842480723
0.00833161509399583,15.1995528648437
0.00944149955276041,15.2014686968974
0.0107520551940825,15.2034084892765
0.0124819412688541,15.2056060538635
0.0140167623476367,15.2073285105291
0.0156812860032899,15.2090509671947
0.0171911488567353,15.2105502424794
0.0185070045577485,15.2118603447605
0.0196798469858727,15.2130808251801
0.0207204574495835,15.2142664156646
0.0216185311304202,15.2154577131621
0.0223481448804926,15.2166986456786
0.0228602878570474,15.2180566512399
0.0230438489699147,15.2196901046948
0.0226617709574175,15.2216210644756
0.0217168415129013,15.2235520242563
0.0206381328268087,15.225109827569
0.0194486965513347,15.2265692211933
0.0181412506643641,15.228036281835
0.0167236729657677,15.2295566532
0.0152040221525562,15.2311664152363
0.0139613052330704,15.2325319091802
0.0117282442602604,15.2352360659884
0.00970642434849091,15.238058305409
0.00808625042921115,15.240683180202
0.0067502760537512,15.2431875215048
0.00557968914026541,15.2457290902409
0.00454744378106057,15.2483383697023
0.00363484454742087,15.2510389961574
0.00282671068068374,15.2538545623091
0.00211009294354048,15.2568103324036
0.00153375997697707,15.2596145733071
0.00106313418365227,15.2622808578899
0.000668513620609595,15.2648526700962
0.000330612878026245,15.2673590069877
3.76523483075053e-05,15.2698069531713
-0.000218736273134326,15.272195174194
-0.000447133818609341,15.2745423091798
-0.000657721403798351,15.2769081892753
-0.00086518189798145,15.2794404808075
-0.00106828496687994,15.2821183882211
-0.00120739963935042,15.2840645659284
-0.00134070862144452,15.2860107436357
-0.00145556221346258,15.2877468884154
-0.00156060494188708,15.2893787004846
-0.0016636214746694,15.2910157587943
-0.00177132562458387,15.2927617080524
-0.00189410699511308,15.2947891358197
-0.00206619300170074,15.2976860322447
-0.0022798575452981,15.3013583525317
-0.00245497677745268,15.304431965053
-0.00262159801463169,15.3074266674049
-0.0028050431252909,15.3108497890701
-0.00302082635943161,15.3152000370395
-0.00322929862953511,15.3202539352749
-0.00334497088414615,15.3244668739532
-0.00338166496781603,15.3282045382475
-0.00333910759138813,15.3317739183704
-0.00319777747866512,15.335405441636
-0.00294161490064242,15.338978858811
-0.00258573212001156,15.3422565175477
-0.00213628270769013,15.3452879848105
-0.00159663404354502,15.3481126758393
-0.000958871760122942,15.3507987270935
-0.000196016172113947,15.3534469370527
0.000767872993104652,15.3562499699589
0.00199907095006337,15.359302251361
0.00340944215807228,15.3623824303142
0.00490882306483767,15.3653754104674
0.00619274520466752,15.3677694768654
0.00757134699385613,15.3701635432633
0.00883209469788048,15.3721699850183
0.0101021412091397,15.3740007391223
0.0114360822026331,15.3757197638047
0.0128763908984321,15.3773603813312
0.0144692625743058,15.3789489468569
0.0162324222378908,15.3804774319963
0.018202076195925,15.381954667967
0.0203974508821913,15.383374797357
0.0228528702016587,15.3847425383176
0.025599378644642,15.3860588274095
0.0286685468817834,15.3873241541749
0.0321031920777681,15.3885424584697
0.0359505045630666,15.3897169769072
0.0402646012766264,15.3908509367921
0.0451081330547334,15.3919475960812
0.0505563162452154,15.3930106636504
0.0566986583677616,15.3940439685067
0.0636421171648381,15.3950514276298
0.0715164551003633,15.3960372089154
0.0804820932494859,15.3970059395175
0.090740468003004,15.3979628533341
0.102550327318948,15.3989141093493
0.116253906068906,15.3998673114285
0.132322325905277,15.400832445593
0.151440136976391,15.4018236237887
0.173755267366888,15.4028241488295
0.199672940732976,15.4038345854107
0.22995489164423,15.4048687900586
0.265689595146909,15.4059480694612
0.307845895011288,15.4070905159828
0.350506546263609,15.408159905997
0.385826283042421,15.4090172403083
0.416178033683557,15.4097624966887
0.442720408918342,15.4104493763396
0.465720186319338,15.4111075304228
0.485000777834067,15.4117592296623
0.499993997742096,15.4124263858453
0.509558622775206,15.4131368049316
0.511347841774074,15.4139369808042
0.502516024639995,15.4147624349374
0.481827074646295,15.4156136762054
0.447788637869708,15.4165036226461
0.398666586750679,15.4174415470387
0.354123542522195,15.4181356277851
0.303496843512398,15.4188297085314
0.258294179736399,15.4194013087916
0.219884713408253,15.4198694796275
0.186329299155872,15.4202757862903
0.156355403711075,15.4206442452136
0.129225896964983,15.4209888782763
0.104456621578833,15.4213192648616
0.0816746875114417,15.4216432977509
0.0605271335486197,15.4219692417051
0.04055107546844,15.4223091933884
0.0206938469061713,15.4226925057364
0.0040834912042014,15.4230654203173
-0.0034818038071755,15.4232579627984
-0.0103913433999105,15.4234505052795
-0.0163741171743366,15.4236333721415
-0.022331698219982,15.4238342973065
-0.0281776822578789,15.4240549272457
-0.0337164531265143,15.4242923268225
-0.0388347550554712,15.4245451396096
-0.043471916277473,15.4248131499718
-0.0475978368628793,15.4250969214563
-0.0514726189593967,15.4254241394252
-0.054464239866841,15.4257425771267
-0.0569374246653533,15.4260813540317
-0.0589087177776543,15.4264436007865
-0.0603921212726279,15.4268326948091
-0.061401540608767,15.4272527923542
-0.0619493159979921,15.4277090504608
-0.0620446638551258,15.4282079495801
-0.0616918170739664,15.4287577863746
-0.0608857996011572,15.4293705165742
-0.0596082270410844,15.4300620096992
-0.0578206157209743,15.4308549482287
-0.0554453040286124,15.4317860246189
-0.0523060670091451,15.4329273666641
-0.0482663329424585,15.4343410153201
-0.0443395337782765,15.4357031474886
-0.0405835844946766,15.4370220303842
-0.0370278294214694,15.4383010279118
-0.0336870706395952,15.4395415533993
-0.0305680176466284,15.4407440293879
-0.027672106347946,15.4419083872747
-0.0249969581002297,15.4430343299559
-0.0225372917437767,15.444121468577
-0.0202855976037241,15.4451693897115
-0.0182326940251344,15.4461776820172
-0.0163682117604927,15.4471459378379
-0.0146810216430643,15.4480737381961
-0.013110145947103,15.4489903753945
-0.0115982051620093,15.4499304193592
-0.0101498302358282,15.4508953667521
-0.00876898396145503,15.4518873020115
-0.00745943907844956,15.4529086678845
-0.00622472527739307,15.4539623563949
-0.00506807799065997,15.4550518253895
-0.00399238497400503,15.4561812551934
-0.00300013070075535,15.4573557640287
-0.00209333818805931,15.4585817122952
-0.00127350727036743,15.4598671462543
-0.000541547289168851,15.4612224702399
0.000102299805463198,15.4626615142251
0.000658553924325849,15.4642033332843
0.00111753753383009,15.4658302944931
0.00147568250653,15.4675029923842
0.00174940546237887,15.4692397300675
0.00195329679282751,15.4710614690045
0.00210103210948257,15.4729961569812
0.00220577785122477,15.4750832907023
0.00228079336108666,15.4773834019667
0.00234056586717451,15.4800010598423
0.00240393889491719,15.4831586688986
0.00249080749229452,15.4868941407445
0.00260469084662177,15.4907375925386
0.00274011857048183,15.4944940364817
0.00289376604601371,15.4982337424865
0.00306210265504121,15.5020076556955
0.00324263342542997,15.5058548138556
0.0034342663026388,15.5098084598779
0.00363727273353486,15.5138993310613
0.00385311258915392,15.5181577275223
0.00408423851051204,15.5226149748274
0.00433396180120761,15.5273047094789
0.00460648025821248,15.5322643610291
0.00490715364824489,15.5375364669396
0.00523475640274394,15.5430309738005
0.00556964808663647,15.5483641663915
0.00592034558276762,15.5536381550314
0.00628702422783159,15.5588098281907
0.00667413006594994,15.5638983670432
0.00708556999934625,15.5689095010726
0.0075258995335402,15.5738523159216
0.00799986784804676,15.5787322465116
0.00851262293432412,15.5835527812743
0.00906976436128936,15.5883151772492
0.00967747672142688,15.5930190484608
0.0103426603407644,15.5976628909919
0.0110836664909589,15.6023078647629
0.0119189946524235,15.6069834528426
0.012867338006067,15.6116958871034
0.013955711358884,15.6164702031352
0.0152261625766461,15.6213624433861
0.0167568869487932,15.6265129203825
0.0187632509310265,15.632380890437
0.020607179561458,15.6371847035314
0.0225830028279852,15.6419885166259
0.0241866446052495,15.6458326747697
0.025507978155447,15.6491427190553
0.0266156093839869,15.6522215410834
0.027513156503714,15.6552220696972
0.0281400029122163,15.6580689678902
0.0284994274185092,15.660882061515
0.0285695214064326,15.663804967682
0.0282682466028313,15.6671020936417
0.0272911278501877,15.6714723629923
0.0264015451698077,15.6741896879429
0.0253433799494917,15.6769070128935
0.0242705936937508,15.6793768032828
0.0231969758822199,15.6816917082686
0.0221224937714176,15.6839211335699
0.0210497673520037,15.6861034652735
0.0199824024121321,15.6882626764129
0.0189240878157336,15.6904155393536
0.0178783211606181,15.6925747851218
0.0168483340925226,15.6947506987639
0.0158370788929849,15.6969520265079
0.0148472330002733,15.6991865433886
0.0138812121760824,15.7014614285766
0.0129411797152691,15.7037835457928
0.0120290579946939,15.7061596561681
0.0111465409252699,15.7085965910285
0.0102950982510446,15.711101427283
0.00947599215550068,15.713681622409
0.00869027984545049,15.7163451933767
0.00792438460901192,15.7191561055342
0.00717393556904125,15.7221605350164
0.00644277350164957,15.7253815478449
0.00573484598819626,15.7288462207641
0.00505428810156312,15.7325859213762
0.00440536569131454,15.7366371693425
0.00379237907926808,15.7410428422946
0.00321950233853611,15.7458541530896
0.00269056753289995,15.7511340067046
0.00220876492527392,15.7569635596273
0.00177653651543749,15.7634514179407
0.00140506505527261,15.7705420252027
0.00110893198201683,15.7782054293061
0.000889948155596096,15.7863691267323
0.000739098304623008,15.7942105254106
0.000613378650097237,15.8033634461274
0.000523541965562253,15.8133634461274
0.000471417444649866,15.8233634461274
0.000448013859933202,15.8333634461274
0.000447241382084917,15.8433634461274
0.000465469152322325,15.8533634461274
0.000501267263831674,15.8633634461274
0.000553261233571744,15.8730349582274
0.00061858628274678,15.8819556413285
0.000696758387881491,15.8901707514233
0.000788252135235766,15.8977386934193
0.000894133036463937,15.904713481133
0.001015901367624,15.9111446737269
0.00115542902479802,15.9170778762459
0.00131494367882043,15.9225551626442
0.00149704000985764,15.9276154247915
0.00170470863277065,15.932294676488
0.00194138142301754,15.9366263296821
0.00221099288942998,15.9406414525958
0.00251806187592818,15.9443690149661
0.00286779774364231,15.9478361352041
0.0032662434021498,15.9510683454653
0.00372047000170812,15.9540898903557
0.00423885166165484,15.9569240857932
0.00483147004867826,15.9595937902334
0.00551073971739676,15.9621220798074
0.00627115730756549,15.9644732615842
0.00711997347365515,15.9666717016435
0.00807642596687044,15.9687641628487
0.00917406710555417,15.9708076987609
0.0104842562345749,15.9728958640518
0.0122639771172954,15.9753248959898
0.0136503623096561,15.9770070372065
0.0151351676727573,15.9786891784232
0.0165194135185437,15.9802082466113
0.0177369898855086,15.9815577193302
0.0188209861828121,15.982823122399
0.0197768415875731,15.984056884933
0.0205921719393191,15.9853002351121
0.0212395209327175,15.9865995339611
0.0216672059355211,15.9880285436205
0.0217532361397216,15.9897702449068
0.0213005779958374,15.9917094011713
0.0203500965420537,15.9936485574358
0.0192863883856146,15.9952358218553
0.018121229682555,15.9967295459207
0.0168495766332754,15.9982288593465
0.0154795797733193,15.9997780739971
0.0146657952533416,16.0006877736366
0.0138616966456762,16.0015974732762
0.0130881987647388,16.0025076268655
0.0109727351307381,16.005224002692
0.00911407529341055,16.0079706218867
0.00760909177414826,16.0105408427106
0.00632998200201384,16.0130625298731
0.00520391084361244,16.015633112846
0.00420790702522481,16.0182797985748
0.00332487024013872,16.0210261273392
0.00254057531150773,16.0238962422866
0.00189077375521049,16.0266911039421
0.00136326904189301,16.0293297521507
0.000925245653062357,16.0318457251596
0.000552980098610558,16.0342734884492
0.000229674550032799,16.0366435992943
-5.70367042987783e-05,16.0389851919136
-0.000317881509482778,16.0413398623355
-0.000565885056720671,16.0437994909078
-0.000829912432516153,16.0466742476114
-0.0010066255367131,16.0487523444255
-0.0011736626820662,16.0508304412396
-0.0013136908364271,16.0526555548428
-0.00143690379711725,16.0543212439007
-0.00155428287633977,16.0559569570345
-0.00167345236773284,16.0576628861791
-0.00180370999793401,16.0595752105615
-0.00196697812713814,16.062035179892
-0.00224591770627344,16.0663799064781
-0.00247983387338798,16.070164176546
-0.00267635652471581,16.0734717620728
-0.00288046143798009,16.0771037248718
-0.00311510264261322,16.081767305894
-0.00329639717980631,16.0863252509269
-0.00339466441268029,16.0902669966281
-0.00341873455873611,16.0939002519351
-0.00336275661935922,16.0974741421214
-0.00319926087434904,16.101238569727
-0.00292640775334493,16.1048028931925
-0.00255993283179702,16.1080530109712
-0.0021037586895098,16.1110643183207
-0.00155751809073863,16.1138901540488
-0.00091081235856215,16.1165986965351
-0.000129655131206434,16.1193060944604
0.000874797741257382,16.1222301952358
0.00210887522903255,16.1253149262966
0.00349144150048591,16.1283977368476
0.00491119987053317,16.131327771128
0.00608684234667077,16.1336164311339
0.00733974659562991,16.1359050911398
0.00857750563040413,16.1379881715616
0.00977012171217631,16.13980949174
0.0110482404843452,16.1415582277473
0.0124216197919484,16.1432200987003
0.0139434925212674,16.1448328930287
0.0156288322264193,16.1463852192478
0.0175134384361474,16.1478865595454
0.019616850070612,16.1493311948349
0.0219683431408753,16.150721286722
0.0245990775807935,16.1520588409884
0.0275411750938327,16.1533451544701
0.0308302965216319,16.1545820223591
0.0345129965661388,16.1557736547493
0.0386403554756486,16.1569233228326
0.043271527611032,16.1580343439226
0.0484770377807657,16.1591103912439
0.0543405287799534,16.1601552404564
0.0609616904737876,16.1611727503059
0.0684608594048748,16.1621669828969
0.0769861665060752,16.1631424248083
0.086722098155681,16.1641040586172
0.0979036481481537,16.1650576710632
0.1108382306039,16.1660102857409
0.125942775506423,16.1669709289983
0.1438102672278,16.1679519906945
0.164906677462878,16.1689527635393
0.189372193497746,16.169959597026
0.21788946243138,16.17098476362
0.251403491823147,16.1720463017252
0.291398503572447,16.1731756434113
0.326792352289606,16.1740937751906
0.363964314253035,16.1750119069699
0.396896114408489,16.1758147582465
0.425660151304615,16.1765350912588
0.450800252432396,16.1772099610053
0.472378137333854,16.1778647810657
0.490074373255281,16.178520964865
0.503141990629755,16.1792016596055
0.51011214721227,16.1799391455133
0.508121958680757,16.1807577676402
0.495037175794853,16.1815917798862
0.469608479771392,16.1824565200118
0.430241239408358,16.1833632570298
0.375169200040807,16.1843210708321
0.332605255528147,16.1849433924868
0.285587820192388,16.1855657141416
0.243467476820521,16.1860903151184
0.207111894317164,16.1865322016994
0.175020597785537,16.1869229559845
0.146188450497246,16.1872817387882
0.119998360624352,16.1876204933355
0.0960205998357728,16.1879479370515
0.0739013981809218,16.1882718384023
0.0532708213534132,16.1886012526344
0.0335571521695717,16.1889516316146
0.0129936759155611,16.1893727050596
0.0021894836012644,16.1896274021013
-0.00510714793823439,16.1898176034357
-0.0117725819362079,16.1900078047702
-0.0176108372839824,16.1901905772168
-0.0235572497535566,16.1903963989348
-0.0293427147748497,16.1906212381318
-0.0347896343880762,16.1908624325812
-0.0397990869286455,16.1911189213884
-0.0443189573155194,16.1913906875989
-0.0483217263191209,16.191678440178
-0.0519683385397608,16.1920011180099
-0.0548527648130689,16.19232363929
-0.0572228644533937,16.1926671390671
-0.059094140044169,16.1930347376641
-0.0604806715441248,16.1934299531081
-0.0613961536348123,16.193857120197
-0.0618524218795784,16.1943216280146
-0.0618578602717757,16.1948302693039
-0.061415447508895,16.1953917784547
-0.0605176549205995,16.1960190930527
-0.0591430398332323,16.1967289548308
-0.0572475899212279,16.1975460345514
-0.0547416463498426,16.1985113765542
-0.051411836177649,16.1997105669959
-0.0473934581213328,16.2011126420609
-0.0434998974959959,16.2024660373035
-0.0397842399018748,16.2037769538924
-0.0362723308007074,16.2050483023647
-0.0329771150815513,16.2062812715214
-0.0299041358893285,16.2074761735764
-0.0270540003057959,16.2086328892189
-0.0244237005594133,16.209751101611
-0.0220074684664292,16.2108304175552
-0.0197974227708933,16.2118704257527
-0.0177841105033741,16.2128707180388
-0.0159569801769594,16.2138308874613
-0.0143047992240817,16.2147505107802
-0.0127460116052431,16.215671768391
-0.0112472004930658,16.2166166565589
-0.00981276690160665,16.2175868399811
-0.00844664110506889,16.2185844684841
-0.00715255215457294,16.219612067059
-0.005933976084922,16.2206726307334
-0.00479408429782879,16.2217697480299
-0.00373568977629745,16.2229077676191
-0.00276119108253546,16.2240920286404
-0.00187251367526668,16.2253291879654
-0.00107104742026047,16.2266277007877
-0.000357577986644752,16.2279985550627
0.000267792402522314,16.2294564505442
0.000805743956027733,16.2310218139241
0.0012421536276771,16.2326564848153
0.00158125866924448,16.2343405987534
0.00183896099176722,16.2360925283123
0.00202963679185583,16.2379343997627
0.00216681727985021,16.2398960080563
0.00226362333666455,16.2420200643822
0.00233343123308482,16.2443733498806
0.00239121169590031,16.2470749712039
0.00245760179106664,16.2503948257063
0.00254806699193017,16.2541441798533
0.00266363727661915,16.2579095281288
0.00280165108214132,16.261648922517
0.00295870778030569,16.2654146325774
0.00313131501824796,16.269247246825
0.003317072107604,16.2731808059992
0.00351502629111203,16.2772463672937
0.00372564208166463,16.2814742312659
0.00395063024424535,16.2858955163437
0.00419276760544209,16.2905434444256
0.00445582960755463,16.2954547937873
0.00474473900165448,16.300671249715
0.00506606116874363,16.3062408244857
0.00539159696861644,16.3116119423812
0.0057325869090398,16.3169390850811
0.00608780604847547,16.3221558548595
0.00646185026606186,16.3272868449183
0.00685831471914857,16.332336248918
0.00728159755017132,16.3373146810762
0.00773619635197913,16.3422283285365
0.00822697797691878,16.3470816036804
0.00875920503535925,16.3518765184986
0.00933867488797882,16.356613334654
0.00997183965147086,16.3612909676966
0.0106670901751664,16.365914827466
0.0114495996991846,16.3705768150193
0.0123335755239487,16.3752668176921
0.0133417766800878,16.3800032793271
0.014506777444687,16.3848212146476
0.0158822527295725,16.3898044378534
0.0175839949004985,16.3951806332481
0.0199981153083218,16.4017915118472
0.0216179376437072,16.4058166572633
0.0232976593249914,16.4098418026794
0.0247579894408222,16.4133828994443
0.0259874176934218,16.4165717777948
0.0270110730446851,16.4196056139334
0.0277975451279284,16.4225279929678
0.0283173511815587,16.425346163626
0.0285650320676138,16.4281834249373
0.0285018043080292,16.4312103168614
0.0279835138629624,16.4348452461779
0.0271742183083795,16.4380140292502
0.0260887123331238,16.4411828123225
0.0250027650077302,16.4438628841831
0.0239283375361456,16.4462765963343
0.022854130423766,16.4485591756446
0.0217797589880123,16.450770674655
0.0207082434186881,16.4529438370512
0.0196432642220433,16.455099850585
0.0185884624584818,16.4572539707785
0.0175472533533008,16.4594180305579
0.0165227774561656,16.4616017620791
0.015517896653162,16.4638135689448
0.014535202331848,16.4660610210696
0.0135770255352586,16.4683511988721
0.0126454520623968,16.4706909375759
0.0117423282563413,16.4730870406367
0.0108692728804101,16.4755464491911
0.0100276901354676,16.4780763919089
0.00921877364778202,16.4806845580285
0.00844352095214297,16.4833792478515
0.00768218357616945,16.4862504117744
0.0069375645525002,16.4893219666587
0.00621347820772101,16.4926184368323
0.00551393532043646,16.4961682257826
0.00484312211632826,16.5000042771653
0.00420532984459754,16.5041650394424
0.00360484128181157,16.5086958617956
0.00304575399989278,16.513651308266
0.00253172028115085,16.5190995072107
0.00206570646466093,16.5251294642731
0.0016499437946714,16.531861407433
0.00140033821516691,16.5368476182575
0.0012003983628264,16.541833829082
0.000994721565445617,16.5486174551075
0.000815925547460162,16.556604777006
0.000674146401946891,16.5654468959047
0.00056695115572196,16.5754468959047
0.000502679395787765,16.5854468959047
0.000470857092195559,16.5954468959047
0.000464328776915231,16.6054468959047
0.000478663861570209,16.6154468959047
0.000511846488623748,16.6254468959047
0.000562164083182866,16.635122604825
0.000626453716207403,16.644047531138
0.000703970215397866,16.6522667580981
0.000795034293947212,16.659838679681
0.000900618139281287,16.6668172975931
0.00102216223822845,16.6732521559056
0.00116149806127783,16.679188844671
0.00132082441216065,16.6846694244476
0.00150271408175816,16.6897327754557
0.00171013985294522,16.6944149016028
0.00194651794765068,16.69874920659
0.00221576800805711,16.7027667516944
0.00252239374553865,16.7064965001113
0.0028715880443129,16.7099655630405
0.00326937488595276,16.7131994635733
0.00372280254898306,16.7162224337077
0.00424021611708682,16.719057770479
0.00483165853514049,16.7217283029946
0.00550948973282303,16.724257060357
0.00626863368645192,16.7266095784352
0.00711584558519956,16.7288085351681
0.00807013460348838,16.7309004749988
0.00916454843111307,16.7329419166671
0.0104688797315894,16.7350246326757
0.0122286640647939,16.7374315898695
0.0136621461203072,16.7391714201082
0.0152014345455665,16.740911250347
0.0165867009369248,16.7424279788236
0.0178016647923762,16.7437731009319
0.0188832233263805,16.7450359264025
0.0198363928317589,16.7462684732367
0.0206483557362373,16.7475118947617
0.0212911181932205,16.7488129555425
0.0217118699105058,16.7502469102153
0.0217842086226856,16.752003969776
0.0213183353375432,16.7539307949878
0.020362859435986,16.7558576201995
0.0192967165819625,16.7574396288196
0.0181285663708753,16.7589320633842
0.0168538647986035,16.7604316062105
0.0154808704900604,16.7619820462058
0.0146733054470077,16.7628840294904
0.0138760321818545,16.7637860127749
0.01307925059906,16.7647242946388
0.010961435731233,16.7674485920715
0.00910835581654857,16.7701929990676
0.00760819193003615,16.7727608782617
0.00633204969325528,16.7752828307568
0.00520864311786258,16.7778541230731
0.00421513375623186,16.7805018423129
0.00333448177949512,16.7832495210751
0.00255250994916612,16.7861213197061
0.00190574290524149,16.7889138828696
0.0013797668115709,16.79155608909
0.00094196867665144,16.7940834873555
0.00056855557357314,16.7965342344226
0.000242273766912089,16.7989461672153
-5.02817865712136e-05,16.8013627035511
-0.000322342811640321,16.8038582498604
-0.000596120902585926,16.8066406995338
-0.000809740686838281,16.8090165639681
-0.00100828952886679,16.8113924284024
-0.0011637839220607,16.813366296046
-0.00129537930560635,16.8151126099376
-0.00141804352106415,16.8168003882074
-0.00154022276057999,16.8185358184458
-0.00167062376140852,16.8204436274396
-0.00182634610695688,16.8227904721482
-0.00212141381845988,16.8274159705179
-0.00238589755715561,16.8317569777594
-0.00259851004439921,16.8354144152703
-0.00280920673854456,16.8392762488295
-0.00304654336407827,16.8442134059923
-0.00321314766142086,16.8487629012591
-0.003295353531733,16.8526830906324
-0.00330167320162937,16.8563066029909
-0.00322409572771114,16.8598782720051
-0.00303132009074706,16.863650183116
-0.00273472624064561,16.8671075075327
-0.00234320508838157,16.8702843377765
-0.00185873158269561,16.8732472984923
-0.00127690877303546,16.8760571298495
-0.000580176609442565,16.8787952555275
0.000277055217233475,16.8815939132223
0.0013803582268785,16.8846363267607
0.00266757334265082,16.8877187848273
0.00409541165321578,16.890798936974
0.00566252161669157,16.8939125560474
0.00682385939974406,16.8960548681534
0.00807900878321218,16.8981971802594
0.00932751998064095,16.9001348662662
0.0106018819136939,16.9019101462474
0.0119892298263703,16.9036250000868
0.0134859528602457,16.9052495590781
0.0151494115299169,16.906823592652
0.0169932651040354,16.9083359044465
0.0190538673706276,16.9097956755797
0.0213547441661862,16.9112002870128
0.0239239936220556,16.9125503805472
0.0267975726689837,16.9138496421958
0.0300123303532826,16.9151002473685
0.0336086621589214,16.9163042879786
0.0376382210384726,16.9174657860686
0.0421594634779412,16.9185882596535
0.0472406913846062,16.9196752571467
0.0529622307434637,16.9207303673424
0.0594214139600039,16.9217575841752
0.0667352854678138,16.9227610218898
0.0750472869018897,16.9237451481021
0.0845360980791594,16.9247149509166
0.0954298279749841,16.9256762803651
0.108026903645841,16.9266362262028
0.122732346829173,16.9276039042292
0.140123915049492,16.9285918978364
0.160682035555554,16.9296007760721
0.184526715148859,16.9306157259956
0.212329200279783,16.9316493585163
0.245023128343888,16.9327202452062
0.284077623607416,16.9338605444991
0.327391666869548,16.9350137480542
0.364415776417547,16.9359512046683
0.396009528249959,16.9367472249826
0.423618061669486,16.9374678874368
0.447691880688339,16.9381481037151
0.468189450716378,16.9388115471979
0.484713322606414,16.9394790817214
0.496428359025854,16.9401739879956
0.501726005950571,16.9409293045606
0.49771854224197,16.9417561374779
0.482570259870273,16.9425992423397
0.455003114483779,16.9434728054304
0.413451507164043,16.9443871872367
0.356202405141521,16.9453525324119
0.315640510087879,16.9459358854025
0.271465723356929,16.9465192383932
0.231719884820127,16.9470182819226
0.197040749821419,16.9474460703831
0.166207277770029,16.9478289177135
0.138384293611518,16.9481833439338
0.113037130466342,16.9485201282203
0.0897766837319672,16.9488475272172
0.0682649474988086,16.949173342151
0.0481189411195646,16.9495074089199
0.028666619267936,16.9498685069485
0.00719096714981334,16.9503344644418
-0.000801161765640412,16.9505344367128
-0.00809245709349383,16.9507344089838
-0.0143449561169889,16.9509226931701
-0.020244410798142,16.9511183259597
-0.0261092602358016,16.9513349342648
-0.0317195890588489,16.9515691919429
-0.0369399400017273,16.9518192480087
-0.0416964614360269,16.9520845682248
-0.0459515299881421,16.95236549696
-0.0499818376514194,16.9526901539932
-0.0531060186778055,16.9530049568336
-0.0557109456444774,16.9533394493154
-0.0578125652017955,16.9536966137065
-0.0594243985385209,16.9540796243655
-0.0605603466238312,16.9544923815129
-0.0612332151242386,16.9549397074239
-0.0614532140427547,16.9554276290416
-0.0612262498611115,16.9559638043418
-0.0605508044379845,16.9565588110511
-0.0594130544530213,16.9572272552459
-0.0577825127922786,16.9579890323486
-0.0555981218988735,16.9588750271054
-0.0527295648907174,16.9599411976277
-0.0488077007563231,16.9613299067899
-0.0448686183652072,16.9627019349376
-0.0410884356884147,16.9640290270401
-0.037503084584199,16.9653151721509
-0.0341300776165858,16.9665622789177
-0.0309776103926987,16.9677710410008
-0.0280480511463253,16.9689415381724
-0.0253396617428864,16.9700735549645
-0.0228476234710977,16.9711667475174
-0.0205647648410852,16.9722207275455
-0.0184821462870663,16.9732350987849
-0.0165895618197242,16.9742094645857
-0.0148759791360914,16.9751434167842
-0.0132959937657896,16.9760567262793
-0.0117741333132365,16.9769932755098
-0.0103152064058018,16.9779544372134
-0.00892319982811213,16.9789422499277
-0.00760191783693243,16.9799590982645
-0.00635492821710869,16.9810078012291
-0.00518551138323748,16.9820917239455
-0.00409660717460256,16.9832149273583
-0.00309075940188358,16.9843823733289
-0.00217005781012627,16.9856002130833
-0.00133607653724808,16.9868762056539
-0.000589807128585932,16.9882203479112
6.84176790082943e-05,16.9896458674372
0.000639016928607247,16.9911708796126
0.00111590842287864,16.9927926257126
0.00148934942673876,16.9944574090947
0.0017761930460175,16.9961835614335
0.00199122109701204,16.9979912481601
0.00214826069045202,16.9999071728808
0.00226057581012771,17.0019686983519
0.00234144184117558,17.0042323010808
0.00240518644312573,17.0067934763597
0.00246988584720004,17.0098472770359
0.0025585238846149,17.0135812317306
0.00267026156825569,17.0173207293169
0.00280746261102674,17.0210866004347
0.00296778850579044,17.0249191063316
0.00314756093200659,17.0288522824254
0.00334371265429647,17.0329172300125
0.00355461349059344,17.0371442481645
0.00378026978891956,17.0415643887191
0.00402224942421581,17.0462108413954
0.00428356410708901,17.0511203565703
0.00456867896149797,17.0563345651178
0.00488382615586797,17.0619013783187
0.00520546122466928,17.0673371970905
0.00553965816781323,17.0727047400328
0.00588694138500935,17.0779649514962
0.00625127799595739,17.0831336396503
0.00663635168276241,17.0882182898434
0.00704634884214669,17.0932294500991
0.00748558903627952,17.0981742964137
0.00795868302941181,17.103057803096
0.00847060090541794,17.1078825965772
0.00902680203253669,17.112649488063
0.00963335621308937,17.1173578563555
0.0102970712130759,17.1220061051724
0.0110351669265299,17.1266492965944
0.0118669609318328,17.1313238713941
0.012810676868731,17.1360343519573
0.0138928494113717,17.1408051313027
0.0151542974076064,17.1456901519021
0.0166710111122812,17.1508236748883
0.0186460095150325,17.1566361621514
0.0205181602337336,17.1615357860404
0.0221005914538907,17.1654059462352
0.0237191712517022,17.16927610643
0.025110022453936,17.172692096607
0.0262818722500046,17.1758219444023
0.0272484618767295,17.1788387286833
0.0279603632443366,17.1817206498675
0.0284061850866808,17.1845309019961
0.0285736113888576,17.1873997277863
0.0284077333692627,17.1905300402883
0.0276760609981489,17.1945695527552
0.0268276117768971,17.1974885840545
0.025762706581133,17.2004076153537
0.0246856825904534,17.202980374912
0.023612014842444,17.205346841177
0.0225374791628921,17.2076046635929
0.021463455026528,17.2098026199571
0.0203933053012491,17.2119691807329
0.0193307354494627,17.2141234571981
0.0182793310192097,17.216279541923
0.0172424291404133,17.2184485682557
0.0162230895598017,17.2206398294954
0.0152240938319697,17.2228614574681
0.0142479564288188,17.2251208613818
0.0132969363942951,17.227425038736
0.0123730464155684,17.229780816477
0.0114780679638396,17.2321950315387
0.0106135547604228,17.2346747160239
0.00978084889861176,17.2372272384585
0.00898108523878139,17.2398604778577
0.0082100760047387,17.2426019647471
0.00745296195266067,17.2455292292918
0.00671363211202239,17.2486636209461
0.00599594360792312,17.2520307627199
0.00530395706426448,17.255660282849
0.00464188850759619,17.2595866000481
0.00401402996695204,17.2638499662366
0.00342461636507091,17.2684980659038
0.00287762926090736,17.2735887103868
0.00237651120550198,17.2791950440977
0.00192396620163708,17.2854136597262
0.00152529956193637,17.2923105775513
0.00120007262290846,17.2997418637417
0.000991523650659956,17.306412213861
0.000807157034670825,17.314352185007
0.000658925237571893,17.3231786114211
0.000545005104265744,17.3331236269902
0.000473232160843086,17.3431236269902
0.000433407620853995,17.3531236269902
0.000417816837708008,17.3631236269902
0.000421351546614099,17.3731236269902
0.000441114087044372,17.3831236269902
0.000476114687963237,17.3931236269902
0.000525877756597276,17.4029064804394
0.00058764719251319,17.4119402961801
0.000661081101671299,17.4202650899879
0.000746693337795216,17.4279384025652
0.000845522486715073,17.4350136999905
0.000958994090232936,17.4415401167251
0.00108886593470853,17.4475629234535
0.00123721612502888,17.4531239283372
0.00140645476260774,17.4582618078581
0.00159935075979342,17.4630123925858
0.00181907171312295,17.4674089253153
0.00206923726620006,17.471482300657
0.00235398821139934,17.4752612898209
0.00267807482459325,17.478772761133
0.00304697304341596,17.4820419090122
0.00346703826417471,17.4850925020929
0.00394571614266846,17.4879471652343
0.0044918411276465,17.4906277262454
0.00511607734928608,17.4931556776877
0.00582726130086957,17.4955395719561
0.00661686318428187,17.4977446003522
0.00749744263374125,17.4998112226536
0.00848916929251991,17.5017829788141
0.00962707158201841,17.5037132704689
0.0109859203649584,17.5056910147459
0.0128683399362885,17.5080384802455
0.0143242557260142,17.5096525028343
0.0158824585196308,17.511266525423
0.0173303468551076,17.5127204243507
0.0186068997616973,17.5140158006443
0.0197459913910398,17.5152336613419
0.0207528254026646,17.5164240759322
0.0216142604364604,17.5176272743396
0.0223012870492002,17.5188896091717
0.0227586863926853,17.5202869669756
0.0228514352157442,17.5220170196929
0.0223830619554452,17.5238866144931
0.0214118542290251,17.5257562092933
0.0203237698429005,17.527295606038
0.0191238523372842,17.5287570503125
0.0178081046352563,17.5302327946263
0.0163850055116947,17.5317657342612
0.0154380921366978,17.532775369715
0.0145053441008808,17.5337850051687
0.013636696044602,17.5347668293954
0.011428986797736,17.5374966945062
0.00947270595933905,17.5402874634072
0.00790091693070543,17.5428874795315
0.00658980292073597,17.545396102714
0.00543940577908412,17.5479467857271
0.00442432964283108,17.5505685596382
0.00352650899912715,17.5532849529538
0.00273115368953539,17.5561197226301
0.00203319918632008,17.5590634275363
0.00147427051269934,17.5618386204431
0.00101583030782715,17.5644825452353
0.000629870242328848,17.5670376587216
0.000298037222289213,17.5695332165047
8.59625337870574e-06,17.5719817338109
-0.000247409157552757,17.5743940294476
-0.000479686795690466,17.5768096408749
-0.00070154888057131,17.5793381070875
-0.000944497434832246,17.582369779162
-0.00109586548195371,17.5844001315952
-0.00123990066431007,17.5864304840285
-0.00136365884621124,17.5882478886372
-0.00147452902937209,17.5899292879469
-0.00158149030038975,17.5915951171759
-0.00169146378607012,17.5933482134178
-0.00181378218911298,17.5953405524255
-0.00197351396365174,17.5979999753295
-0.00223073270715414,17.6023967674327
-0.00244061451333333,17.6060909834351
-0.00262284350912155,17.6094032508652
-0.0028172631395318,17.6131165733243
-0.00304386858578237,17.617931898093
-0.0032189708427195,17.6226901863548
-0.00330619120289849,17.6267193618178
-0.00331593841365588,17.630381276741
-0.00324219236296679,17.6339433211567
-0.00305751903051798,17.6376412177106
-0.0027653178379384,17.6410925680749
-0.00237423095954815,17.6442808038922
-0.00188909364859596,17.6472456133614
-0.00130953652709328,17.6500337599424
-0.000622105603161182,17.6527206943052
0.000215765033904545,17.6554384842645
0.00131164868310281,17.6584299862387
0.00262758087653145,17.6615244271178
0.00409272672236925,17.6646020322498
0.00570343047629722,17.6677015293759
0.00686346636667001,17.6697738563746
0.00811449447108157,17.6718461833733
0.00940715184816368,17.6737976963055
0.0107059169979779,17.6755603788372
0.0121070966021844,17.6772512609131
0.0136281787017385,17.678866181973
0.0153131760072677,17.6804275745119
0.0171822826529859,17.6819302410114
0.0192687604170287,17.6833799379185
0.0215999365580616,17.6847762624006
0.0242013848837058,17.6861178671946
0.0271112747540048,17.6874093082792
0.0303671351558831,17.6886526807311
0.0340103483917321,17.6898500971376
0.0380926991641248,17.6910052876073
0.0426739701911954,17.6921218571302
0.0478235893022994,17.6932033223667
0.0536234449337541,17.694253285919
0.0601720348388535,17.6952756353413
0.0675887479452358,17.6962745279339
0.0760196549354131,17.6972544284151
0.085646852652348,17.6982203304661
0.0967026956781678,17.6991780729551
0.109491528360358,17.700134758553
0.124426443075511,17.7010995125213
0.142096546756059,17.7020849167517
0.162960447858363,17.7030901223942
0.187160306833014,17.7041016027024
0.215376563737748,17.7051318979123
0.248554954422466,17.70619949333
0.288187547447854,17.7073366272735
0.332201631016839,17.7084888900255
0.369291010192778,17.7094137412387
0.400871514163438,17.7101989454272
0.428454251788909,17.7109110233166
0.452489707272373,17.7115845303947
0.472925775126209,17.7122430416806
0.489343925024048,17.7129076427338
0.500865676861668,17.7136023963298
0.505774929860908,17.714362562511
0.501120082225292,17.7151869525602
0.485183379203687,17.7160296113347
0.456643548406529,17.7169047100262
0.413888101538722,17.7178224884751
0.368214645109797,17.718594987363
0.326093749764528,17.7192100739292
0.279733589778329,17.7198251604954
0.23857727727225,17.7203406517485
0.202942671594658,17.7207772753135
0.171394156606297,17.7211651833117
0.142996361386907,17.721522510238
0.1171684275616,17.7218607251585
0.0934991008437866,17.7221883508368
0.0716429433556032,17.7225131466289
0.0512280488940502,17.7228444149566
0.0316532131030434,17.7231986640809
0.0108906712270808,17.7236335000895
0.00131271093233615,17.7238641812696
-0.00731318902644097,17.7240948624497
-0.0137437081767621,17.7242851086376
-0.0196452186071198,17.7244772748742
-0.0255442083969155,17.7246908078889
-0.0312106372099728,17.7249222807594
-0.0364988606363688,17.725169651869
-0.0413289200185638,17.7254322594227
-0.0456599400043095,17.7257103577379
-0.0495544383689989,17.7260125061679
-0.0527857351775957,17.7263225454325
-0.0554978797776301,17.726652082375
-0.0577032750352661,17.7270037213799
-0.0594152129790948,17.7273805081345
-0.0606477077224373,17.7277861895821
-0.0614139559744819,17.7282253935257
-0.0617248410209651,17.7287038916611
-0.0615872743144469,17.7292289944314
-0.0610016581444915,17.7298104840041
-0.0599565701302887,17.730462376512
-0.0584252401816404,17.7312032173881
-0.0563537481400637,17.732061260533
-0.0536295455451312,17.7330858962195
-0.0499578580967598,17.7343922778704
-0.0459817825771832,17.7357760549235
-0.0421508348397041,17.7371140349734
-0.038508481618703,17.7384105380369
-0.0350753658560121,17.7396678347405
-0.0318615158369807,17.7408867996426
-0.0288705536224418,17.7420675958972
-0.0261016783845011,17.7432100408959
-0.0235507974783788,17.7443137983004
-0.0212113001233079,17.7453784760887
-0.019074665755443,17.7464036713478
-0.0171309815372479,17.7473889831529
-0.015369396194793,17.7483340050638
-0.0137739152523988,17.7492410005641
-0.0122350883063703,17.7501709516663
-0.0107580585676218,17.7511249991465
-0.00934685409259465,17.7521050971811
-0.00800533634466629,17.7531135245033
-0.00673714441347539,17.7541529681509
-0.00554564478539143,17.7552266267495
-0.0044338787729987,17.7563383481374
-0.00340450773961891,17.7574928166737
-0.00245975590418069,17.7586958146307
-0.00160135001370206,17.7599545979062
-0.000830454311436722,17.761278455441
-0.000147597688415303,17.7626795787404
0.000447413088255039,17.7641744878731
0.000955606690095707,17.7657865373814
0.00135545540235929,17.7674373893659
0.00166440434990318,17.7691448773816
0.00189754903860035,17.7709278231344
0.00206893612359139,17.7728108413702
0.00219192220926835,17.774827774934
0.00227968293064979,17.7770285793548
0.00234606360726041,17.7794947504752
0.00240754789067023,17.7823823792691
0.00249079055348767,17.7861054145642
0.00259638250260121,17.7898854207094
0.00272566389100253,17.7936255300664
0.00287675606131224,17.7973814188991
0.00304608073595819,17.8011958661976
0.00323050271276838,17.8051039479743
0.00342818871020624,17.8091371483509
0.00363880396989194,17.8133257147486
0.00386342619541377,17.8177004135249
0.00410436608449447,17.8222938031849
0.00436504699516733,17.82714164678
0.00465006152255679,17.8322842952772
0.00496553809884057,17.8377680384637
0.00529209432494048,17.8431901140764
0.00563091529142025,17.8485293468547
0.0059839074353979,17.8537718612824
0.0063543786146642,17.8589225127426
0.00674620499006501,17.8639904304732
0.00716363481459852,17.868985172834
0.00761114545055959,17.8739138919339
0.0080935211724543,17.8787814480426
0.0086159265576176,17.8835903693899
0.00918402655769489,17.8883412962467
0.00980410913875767,17.8930334128509
0.01048322433866,17.8976650232092
0.0112438140696815,17.9023184165532
0.0121017910719285,17.9070003135715
0.0130777499598328,17.9117232421484
0.0142007800090456,17.9165162101724
0.015517805643104,17.9214466921535
0.0171220453823423,17.9266890785241
0.0193072866341107,17.9328853907686
0.0210339594309912,17.9372823264963
0.0228562867883243,17.941679262224
0.024397774236428,17.9453859112839
0.0256838075045357,17.9486452842473
0.0267604136979643,17.9517045568843
0.0276167577536587,17.954673547
0.0282043239813934,17.9575075336388
0.028523285351177,17.9603267712936
0.028546170627901,17.9632826469286
0.0281732134660664,17.966682275716
0.0273925908542472,17.9701208614135
0.0262697585309993,17.973559447111
0.0251713492093105,17.976328618175
0.0240954439664975,17.9787746740333
0.0230213439342203,17.981073124776
0.021946829116839,17.9832932564017
0.0208746095085254,17.9854707708627
0.0198083291960758,17.9876282019564
0.0187516553468928,17.9897815370854
0.017708045227909,17.9919430441112
0.0166806849921745,17.9941227237219
0.0156724820334269,17.9963291446208
0.0146860704436421,17.9985699754965
0.0137238234847792,18.0008523423616
0.0127878658058132,18.0031830902417
0.011880080696553,18.005568999499
0.0110021256084272,18.0080169478368
0.0101554356960998,18.0105340863543
0.00934123944176758,18.013127978167
0.00856056286043078,18.0158067753048
0.00779672380288285,18.0186472936923
0.00704894021193126,18.0216846832026
0.00632103607718551,18.0249427173063
0.00561698697638206,18.0284491069387
0.00494094864100139,18.0322359703156
0.00429719398819479,18.036340735238
0.00369000761841808,18.0408074278093
0.00312351935965893,18.0456887653101
0.00260145336922985,18.0510500566923
0.0021268689846099,18.0569759428892
0.00170206391952791,18.0635801756731
0.00134028804870399,18.0707562259535
0.00105214211752512,18.0786807814618
0.000878418916733444,18.0854021983284
0.000712764931218764,18.0940303984182
0.000592451119571511,18.1029025448373
0.000502237731624269,18.1129025448373
0.000448659156029654,18.1229025448373
0.000422686472703618,18.1329025448373
0.000418102195574947,18.1429025448373
0.000431048301984831,18.1529025448373
0.000459709608589802,18.1629025448373
0.00050410443738605,18.1729025448373
0.000561603981621972,18.1822575707865
0.000631015267744294,18.1908795818415
0.000712545244121552,18.1988238474461
0.000807049203649484,18.20614620723
0.000915822533513879,18.2128980313232
0.00104051596604951,18.2191265645333
0.00118310885354535,18.2248753725483
0.0013459124700426,18.2301847113885
0.0015315920011402,18.2350918381893
0.00174320173559924,18.2396312879377
0.00198423500641334,18.2438351278137
0.00225868829650975,18.2477331950751
0.00257114502846452,18.2513533256907
0.002926884061033,18.2547215877874
0.00333202379462088,18.2578625326055
0.0037937187752132,18.2607994761974
0.00432043543397554,18.2635548390479
0.00492235694172101,18.2661505914271
0.0056120070825904,18.2686088878167
0.00638027944407282,18.2708854658564
0.00723658545231334,18.2730130617644
0.00819951235160485,18.2750357304407
0.0093007786381478,18.2770058620032
0.0106055908387455,18.2790058407649
0.012338585702772,18.2812839348621
0.0138070160105423,18.2829931724563
0.0153927393895162,18.2847024100504
0.0168541238905103,18.2862180382435
0.0181318617738431,18.2875490450662
0.0192700687544926,18.2887905825312
0.0202779675030779,18.2899971747688
0.0211448232282075,18.2912097872283
0.0218445968740425,18.2924729762208
0.0223282403936352,18.293855382725
0.0224841562095122,18.295518960482
0.0220846672145853,18.2974681791967
0.0211401590299223,18.2994173979113
0.0200692173394601,18.3009927138669
0.0188923883023252,18.3024675345201
0.0176025740112132,18.3039478076438
0.0162076420377498,18.3054791454967
0.0151690548529118,18.3066046360343
0.0141478505359318,18.307730126572
0.0132405820004373,18.3087788319155
0.011059143432267,18.311545679665
0.00917573154347395,18.3143036104177
0.00765798301035362,18.3168769336851
0.00637426819939372,18.3193926614331
0.00524573850499984,18.3219560020889
0.00424881257368772,18.3245944521373
0.00336612710003142,18.3273314846904
0.00258331392223483,18.3301911093928
0.00191715962815909,18.3330621995236
0.00138014049504276,18.3357707937397
0.00093693917621176,18.3383525761436
0.000562190262737713,18.3408446455946
0.000238951905885472,18.3432730217775
-4.41530806637823e-05,18.345652307048
-0.000296198171191319,18.3479995760278
-0.000526908900617343,18.3503600254852
-0.000749978544916544,18.3528515058617
-0.00100215477598589,18.355928308934
-0.00114998302225017,18.3578616242766
-0.00129118579879135,18.3597949396191
-0.00141419648827389,18.3615446222386
-0.00152586694984381,18.3631820928298
-0.00163460935151946,18.364817786146
-0.00174744525953259,18.3665538208909
-0.00187468470548901,18.3685534165303
-0.00204760218807514,18.371332229192
-0.00228135187750879,18.3751855121407
-0.00247041741587233,18.3783858624024
-0.00264489286470071,18.3814250033936
-0.0028346604368066,18.3848761459034
-0.00305611950708685,18.3892668435895
-0.00325764923732996,18.3941236314172
-0.00337080116367483,18.3982356048
-0.00340736953726039,18.4019343708983
-0.00336555458578243,18.4055004670651
-0.00322424531687251,18.4091662864559
-0.0029688701380658,18.4127608667982
-0.00261614182881018,18.4160443124918
-0.00217113646618726,18.4190832003729
-0.00163593198792107,18.4219224290593
-0.00100273745765366,18.4246265351877
-0.000244489266718751,18.4272962531069
0.000710224318657624,18.4301134934826
0.00192348064968622,18.4331696854768
0.0033078503871722,18.4362488673882
0.00474366854065807,18.4391799985636
0.00602438472493449,18.4416328747793
0.00739561496137494,18.4440857509951
0.00863802100531645,18.4461271032129
0.00987517181774043,18.4479716951609
0.0111744232988588,18.4497061566174
0.0125750539064435,18.4513604255498
0.0141245031058493,18.4529635503459
0.0158396819949204,18.454506453784
0.0177565290950094,18.4559982672376
0.019893336054633,18.4574324546316
0.0222836976682618,18.4588137740668
0.0249575640823575,18.460142954254
0.0279452681685886,18.4614203243826
0.0312881716921672,18.4626498148798
0.0350317426360271,18.4638346389943
0.0392280997530647,18.4649780196868
0.0439372226819539,18.4660831486299
0.0492319461840492,18.4671538642009
0.0551977540194208,18.468193895511
0.0619368688288439,18.4692071117155
0.069572832938639,18.4701975950956
0.0782580707220513,18.4711698804772
0.0881827704646269,18.4721290170946
0.0995898210553314,18.473080895373
0.112797988493563,18.4740327004514
0.128241442867663,18.4749937235014
0.146541347805928,18.4759768198075
0.168071617839938,18.4769764164311
0.193050711660574,18.4779832098226
0.222185553622827,18.4790098835767
0.25646275470653,18.4800753103758
0.297465774484152,18.4812133244579
0.332381202374726,18.4821068504587
0.368870596003783,18.4830003764595
0.401351764188494,18.4837890026396
0.429762837830124,18.4845007190767
0.454572311105295,18.4851703609466
0.475799066173134,18.4858226008411
0.49308246676302,18.4864788409024
0.505613227022232,18.4871629366256
0.51179132535438,18.487909356612
0.508654998282564,18.488727690345
0.494283629266671,18.4895635834219
0.467377690139473,18.4904320689411
0.426302589205291,18.4913440421189
0.369265704020749,18.4923087107856
0.327110595940408,18.4929128176407
0.280890497285246,18.4935169244959
0.239464280272438,18.4940291951268
0.203580154974789,18.4944637820152
0.171831315815829,18.4948499630248
0.143269479795983,18.4952057536611
0.117303071555976,18.4955425940508
0.0935131144028281,18.4958690046575
0.0715472498167152,18.4961927770465
0.0510241948782441,18.4965233313062
0.0313193973512223,18.4968776351384
0.0102471730563541,18.4973171213059
0.00102880414986629,18.4975382873811
-0.0073029731641073,18.4977594534563
-0.0137326928138937,18.4979478519027
-0.0196576811230804,18.4981388751864
-0.0255829803593742,18.4983512125844
-0.0312763988641686,18.4985814282773
-0.0365912500563079,18.4988274858973
-0.0414469201919978,18.4990887229492
-0.0458021431812,18.4993653896987
-0.0496324976171434,18.4996583957079
-0.0529375114729163,18.4999703349307
-0.0556782538179045,18.5002980196032
-0.0579098981010138,18.5006476293325
-0.0596462699186928,18.5010222397168
-0.0609015053763852,18.501425576969
-0.0616889510749691,18.5018622439296
-0.062019662595997,18.5023379825727
-0.0619007383207845,18.5028600672561
-0.0613328583091641,18.5034381760153
-0.0603048541808796,18.5040862934843
-0.058790187139862,18.5048228650108
-0.0567352336953043,18.5056759752832
-0.0540280220382909,18.5066946508009
-0.0503761179700876,18.5079927916343
-0.0463826713738902,18.5093798610457
-0.0425313829539103,18.5107212059531
-0.0388670465070198,18.5120212148786
-0.0354110563034962,18.5132821658157
-0.0321739445006285,18.5145049260383
-0.0291597233594192,18.5156896451546
-0.0263679132117367,18.5168361249887
-0.0237946876564546,18.5179440139297
-0.0214336517337008,18.5190129063559
-0.0192764523546419,18.5200423883558
-0.0173132979933729,18.521032051312
-0.0155334156844201,18.521981484997
-0.0139254540001858,18.5228902565434
-0.0123813992810416,18.5238175826188
-0.0108986503902836,18.524768847836
-0.00948131524684642,18.5257459366753
-0.0081332773753906,18.5267510878637
-0.00685820449779243,18.5277869384515
-0.00565949813380506,18.5288566242927
-0.00454024138257667,18.5299639132431
-0.00350314456410818,18.5311133859934
-0.00255048856478538,18.5323106876882
-0.0016840652843219,18.5335628883272
-0.000905113810700992,18.5348790171313
-0.000214249563194767,18.5362708888308
0.000388619014974579,18.537754449911
0.000904397262809232,18.5393521241681
0.00131369361322715,18.5409978484441
0.0016301681207594,18.5426980166105
0.00186912527353581,18.5444712691766
0.00204468461913393,18.5463414277452
0.00217021986816487,18.5483410312724
0.00225883789939579,18.5505176724341
0.00232415350576202,18.5529479519682
0.00238199993463677,18.5557752200974
0.00245648255913318,18.5593597042456
0.00255482928150371,18.5631490743657
0.00267794968140939,18.5669231055052
0.0028217365350339,18.5706621274446
0.00298250871041014,18.5744213007576
0.00315708670097201,18.5782424859918
0.00334357143597466,18.5821603135518
0.00354149342895984,18.586206045542
0.00375170074784912,18.5904099725796
0.0039761645028516,18.5948029973929
0.00421780470556347,18.5994179370676
0.00448043692784298,18.6042909499067
0.00476893507214863,18.6094629277809
0.00508972442205048,18.614980865811
0.00541791181709082,18.6203539340904
0.00576091104367709,18.6256701089876
0.0061186215019443,18.6308825614462
0.006495158086804,18.6360080495635
0.00689426424029724,18.6410524219044
0.00732034126362976,18.6460255805846
0.00777796529412269,18.6509338969974
0.00827207413933583,18.6557817756918
0.00880801073190877,18.6605712585758
0.00939165279565303,18.6653025838756
0.0100295353338473,18.6699746309459
0.0107315727915826,18.6746017323607
0.0115218856380484,18.6792655905085
0.0124153560037277,18.6839587041765
0.01343527051154,18.6887002495414
0.0146154443852931,18.6935278996825
0.016012528464315,18.6985321803338
0.0177524800743597,18.7039643877667
0.0201685582137973,18.7105159553414
0.0217665020982752,18.7144656319336
0.0234164698048291,18.7184153085259
0.0248564714149187,18.7219177180207
0.0260702631013486,18.7250892443171
0.0270787313108355,18.7281174704788
0.0278452594186719,18.7310279946426
0.0283454541153493,18.7338430066725
0.0285721277114845,18.7366872542922
0.0284826852660116,18.7397384881823
0.0279150965999788,18.7434609448375
0.0270959899845972,18.7465606789095
0.026017325216895,18.7496604129814
0.0249342075628057,18.7523127296117
0.0238601210159302,18.7547148100818
0.0227858972536399,18.756991326537
0.021711650208264,18.759199407989
0.0206404948173678,18.7613707462147
0.019576121941363,18.7635260267811
0.018522162142387,18.7656802240062
0.0174820146375836,18.767844998382
0.0164588029935562,18.7700299699865
0.0154553722163835,18.7722434674133
0.0144742978564491,18.7744930083681
0.0135178956500541,18.7767856374237
0.012588236352493,18.7791281661956
0.0116871527138486,18.7815273805789
0.0108162493695839,18.7839902130083
0.00997691774952285,18.7865238856543
0.00917033832249688,18.7891360872166
0.0083968454206595,18.7918374835404
0.00763640517525193,18.7947201642426
0.00689292570604133,18.7978045580756
0.00617022001420107,18.8011154517357
0.00547231115422888,18.8046814921873
0.00480339448230929,18.8085359114613
0.00416776479081508,18.8127175081765
0.00356969897349381,18.8172720810594
0.0030132747563459,18.8222548207959
0.00250210638375481,18.8277348189805
0.00203911155666423,18.8338025479643
0.00162647940255941,18.8405803011486
0.00138002219093026,18.8455808890955
0.00118240511668473,18.8505814770425
0.00096817221539578,18.8578075344249
0.000797907924582318,18.8656596390258
0.000658034994090686,18.8746594464633
0.000554778511970434,18.8846594464633
0.000493150068311248,18.8946594464633
0.000463028853993785,18.9046594464633
0.000457508734050498,18.9146594464633
0.000472330645700545,18.9246594464633
0.000505583425993527,18.9346594464633
0.000555866217176623,18.9443777790593
0.000619984659870203,18.9533429716268
0.000697223411089093,18.9615987337848
0.000787922907368624,18.9692037897496
0.000893066843366233,18.9762124886461
0.00101410160486258,18.9826746811131
0.00115286045188491,18.9886362282279
0.0013115409129069,18.9941394322327
0.00149271207423581,18.9992233906585
0.00169934107809915,19.0039243035865
0.00193483661963552,19.0082757523013
0.0022031090551803,19.0123089594005
0.00250865082681839,19.0160530353698
0.00285664133779167,19.0195352262607
0.00325308843293757,19.0227811789025
0.00370502083308618,19.0258152394541
0.00422075970001315,19.0286608110366
0.00481031800583179,19.0313408222014
0.00548601698822459,19.0338783966553
0.00624340336400476,19.0362407036475
0.00708875577817751,19.038448610961
0.0080410552847901,19.0405489014806
0.00913334008447042,19.0425984369949
0.0104354514902411,19.0446896092168
0.0121920040346272,19.0471057983931
0.0136123188197439,19.0488400022868
0.0151368358355156,19.0505742061804
0.0165178016524467,19.0520958245138
0.0177294173696978,19.0534453956378
0.0188078502173531,19.0547118892233
0.0197582143414926,19.0559475623253
0.0205678239386201,19.0571936479
0.0212088894600715,19.0584968321251
0.0216290482593073,19.0599319387692
0.0217035968180908,19.0616868055393
0.0212412822912951,19.0636204760717
0.0202881909138548,19.0655541466041
0.0192240900206249,19.0671403738367
0.0180587377596497,19.0686352230804
0.0167874321672343,19.0701362980091
0.0154183843357894,19.0716875886047
0.0146144363380488,19.0725884403491
0.0138206201900303,19.0734892920936
0.0130286186248856,19.0744247309344
0.0109165499576071,19.077149515668
0.00907081949417902,19.0798905519576
0.00757578140701613,19.0824559927304
0.00630201995865257,19.0849790099895
0.00518036507849712,19.0875519288596
0.00418815755073519,19.090201694436
0.00330842504720258,19.0929518426045
0.00252702541529197,19.0958265677076
0.00188308351413928,19.0986101704143
0.00135934659783563,19.1012414728674
0.000923491386935598,19.1037550196343
0.000552068281997008,19.1061867974758
0.000228213757101887,19.1085709824284
-6.09088303333216e-05,19.1109443186326
-0.000327267178895123,19.1133653313021
-0.000588062289040739,19.1159791634745
-0.000831491638059834,19.1186540929174
-0.00100060405108512,19.1206515244249
-0.00116078903891762,19.1226489559325
-0.00129697831510108,19.1244260357212
-0.00142037031937166,19.1260960848024
-0.00154032947208737,19.1277712526087
-0.00166466537992211,19.1295574828637
-0.00180511148124768,19.1316311228064
-0.00199975499694896,19.1345927432646
-0.00223786793760971,19.1383412721846
-0.00242989398853496,19.1414685475848
-0.00261049633478392,19.1445157329355
-0.00280639601148651,19.1479942348492
-0.00303116614560499,19.1523955878826
-0.00322624911100739,19.1571078897046
-0.00333526422622127,19.1611450767829
-0.00336871806766324,19.1648149876747
-0.00332361987749389,19.1683805265574
-0.00317726504625514,19.1720776643795
-0.00291703878197729,19.175687094176
-0.00256164353945587,19.1789695085505
-0.0021152402612779,19.182007323317
-0.00157718498053349,19.1848595154849
-0.000937379867282115,19.1875946286415
-0.000166492053637677,19.1903152860396
0.000819980819681112,19.1932356051018
0.00203838188834195,19.196325366457
0.00340522765926146,19.1994041804109
0.00488587392601168,19.2024701886244
0.00609854457026664,19.2048229008163
0.00739717158834606,19.2071756130081
0.00861250466075613,19.2091966455375
0.00983987920473455,19.2110457747806
0.0111324511815726,19.2127864866453
0.0125293702772589,19.2144487917676
0.0140752991551106,19.2160588769597
0.0157871606932015,19.2176081571657
0.0176998508219364,19.2191053441994
0.0198318218971184,19.2205443997778
0.0222160938981042,19.221930007371
0.024882556063455,19.2232631027806
0.0278617513132584,19.2245442514978
0.0311947465561663,19.2257773555138
0.0349269434515884,19.226965687771
0.0391104228200717,19.2281125193576
0.0438051461930246,19.2292210808128
0.0490840238786015,19.2302952616272
0.0550324757140216,19.2313388019086
0.0617528015867494,19.2323556049031
0.0693688842898879,19.233349813379
0.0780336860759707,19.2343260267104
0.0879385018023958,19.2352893927093
0.0993282758941515,19.2362459439149
0.112526024429069,19.2372031093239
0.127974115285189,19.2381705658623
0.146311276634041,19.2391618819838
0.167824035647881,19.2401671970492
0.192797817472338,19.2411809892253
0.221956310311458,19.2422167101707
0.256322625810884,19.2432946540099
0.297248569469909,19.2444432142673
0.331497889467045,19.2453323856071
0.367160711743904,19.2462215569469
0.398971754768666,19.2470106106761
0.426846972495765,19.2477262536765
0.451165888888181,19.2484013855857
0.47190168558966,19.2490599143915
0.488664862749575,19.2497229379065
0.50061977717031,19.2504141086966
0.506137496903549,19.2511674406275
0.502289037384022,19.2519908485661
0.487236602503666,19.2528314116263
0.459684844580029,19.2537035997681
0.418034106914847,19.2546179096833
0.360536159109841,19.2555841128398
0.31940383096343,19.2561728103014
0.274539748784922,19.2567615077631
0.234231316035544,19.2572638432985
0.19914284484323,19.2576931597761
0.167994934377241,19.2580765855311
0.139916636718282,19.2584310549545
0.11435469931474,19.2587675313125
0.0909097755614288,19.2590943458278
0.0692382519359611,19.2594193008805
0.0489557511912155,19.2597521285328
0.0293997332445201,19.2601111456778
0.00798713217007129,19.2605697484437
-0.000283391378404583,19.2607738544605
-0.00781409880986461,19.2609779604773
-0.014122425091053,19.2611658875627
-0.0200352435863492,19.2613597930132
-0.0259252971837257,19.2615747761469
-0.0315682303866083,19.2618074712921
-0.0368247635398746,19.2620559674177
-0.0416187429795535,19.2623196879573
-0.0459115590888159,19.2625989455986
-0.0498534909645641,19.2629101456746
-0.053032964614844,19.263222170807
-0.0556929331275669,19.2635538128227
-0.0578473762904793,19.2639078407172
-0.0595097647300297,19.2642873684232
-0.0606941080351768,19.2646962252101
-0.061413443515193,19.2651391441759
-0.0616783339686036,19.2656220364641
-0.0614951768289462,19.2661524041407
-0.0608633654824045,19.2667404567759
-0.0597701464517438,19.2674005469541
-0.0581866464184768,19.2681519751172
-0.0560548694709023,19.2690244666471
-0.0532521923551204,19.2700710599679
-0.0494430298061321,19.2714216375339
-0.0454809530357199,19.2727998224022
-0.0416708719655256,19.2741328824284
-0.0380524867679365,19.2754248565611
-0.0346448625049842,19.2766777955817
-0.0314571414473516,19.2778924601506
-0.0284923648186966,19.2790689562445
-0.0257493119094062,19.2802070740206
-0.0232235721219657,19.2813064655737
-0.0209082924453337,19.2823667350633
-0.0187947725502448,19.2833874788794
-0.0168729739454659,19.2843682956551
-0.0151319672158906,19.2853087768604
-0.013543632130883,19.2862183353719
-0.0120125702750012,19.2871509651017
-0.0105437861092919,19.288107901655
-0.00914129180124737,19.289091133028
-0.00780892669126185,19.2901029804719
-0.00655030232530111,19.2911461840371
-0.00536875198969738,19.2922240092186
-0.00426727795050833,19.2933403893818
-0.0032484965136181,19.2945001201266
-0.00231458064599694,19.2957091313853
-0.00146719938974173,19.2969748799816
-0.000707452409725098,19.298306936777
-3.57963736769755e-05,19.2997179043755
0.000548043324199234,19.3012249327828
0.00104218762258799,19.3028411977767
0.00142987020415471,19.3044975850155
0.00172841246704524,19.3062125210313
0.00195276348938147,19.3080053475101
0.00211686120995501,19.3099015004034
0.00223399901032186,19.3119361972273
0.00231735533889581,19.3141619159472
0.00238090536129545,19.3166654826997
0.00244162261675424,19.3196173761394
0.00252500082910123,19.3233575384462
0.00263067835083976,19.327112328399
0.00276073051168086,19.3308536719656
0.00291304222589448,19.3346305519519
0.0030839788579224,19.3384817703268
0.0032704229960338,19.3424405190007
0.0034706049030389,19.3465375713759
0.00368429300540392,19.3508032482794
0.00391270669000365,19.3552689925351
0.00415834879946712,19.3599686389271
0.00442492343260866,19.364939890087
0.00471746283773793,19.3702256102134
0.00503817167997803,19.3757953427371
0.0053635400117388,19.3811796179637
0.00570352070885784,19.3865084344695
0.00605770304882923,19.3917277376221
0.00643060140235688,19.3968606547526
0.00682588286802103,19.401912676217
0.00724789140143616,19.4068941543198
0.00770107617152884,19.4118112204323
0.00819023830087359,19.4166681004715
0.00872057802937073,19.4214667120537
0.00929783236600059,19.4262072771014
0.00992839575944876,19.4308887147203
0.0106196432786127,19.4355103849392
0.0113974749917623,19.4401711565141
0.0122756523283552,19.4448591444885
0.0132765349877905,19.4495923688445
0.0144316519241495,19.4544042012916
0.01579328925972,19.4593743648838
0.0174712561943635,19.4647166114713
0.0198731625590517,19.4713384764205
0.0215094121027363,19.4754203854412
0.0232113173088854,19.479502294462
0.0246860572929765,19.4830714234916
0.0259262548344394,19.4862727312799
0.026960236122688,19.4893107897863
0.0277602845688717,19.4922416015859
0.0282933661743025,19.495062284873
0.0285551614046543,19.4978953075463
0.0285093090288442,19.5009068026912
0.0280221966557846,19.5044883651295
0.0272193832944917,19.5077050789749
0.0261286891465743,19.5109217928202
0.0250406467319367,19.5136203065002
0.0239659402051366,19.5160414584007
0.0228917197523244,19.5183278586582
0.0218172527526499,19.5205415034472
0.0207454949369401,19.5227158119754
0.019680119188345,19.524872289538
0.0186247726355814,19.5270263680199
0.017582880134834,19.5291899878078
0.0165575925385103,19.531372950302
0.0155517819677228,19.5335837049022
0.0145680493666259,19.5358298528243
0.0136087350385541,19.5381184951086
0.0126759337068069,19.5404564798922
0.01177149981382,19.5428506189571
0.0108970605830517,19.5453078553235
0.0100540274865995,19.5478354180405
0.0092436018868397,19.5504409909576
0.0084667880647819,19.5531328677189
0.00770479286153838,19.5559969935898
0.00695934807940366,19.5590607142432
0.0062342717705071,19.5623483681629
0.00553356393346321,19.5658882005573
0.00486140092388569,19.5697129641823
0.00422206625524868,19.5738608699322
0.00361983882239057,19.5783769549503
0.0030588181945284,19.5833153397113
0.00254266576819091,19.58874346348
0.00207435779303307,19.5947492531506
0.0016561222781481,19.6014513166955
0.00140638315124681,19.6063777817402
0.00120514567590306,19.6113042467848
0.000975040443920525,19.6188326749465
0.000805189647507621,19.6264483385231
0.00065913318827331,19.6354914052434
0.000550886572516834,19.6454914052434
0.000484811645904777,19.6554914052434
0.000450399037809194,19.6654914052434
0.000440370953297412,19.6754914052434
0.000450074674064802,19.6854914052435
0.000477137225698892,19.6954914052435
0.000521235629011753,19.7054914052435
0.000579041032111246,19.7147796085837
0.000649336119936495,19.7233370129323
0.000732212070813964,19.7312213596502
0.000828461462561453,19.7384883088698
0.000939353316786295,19.7451889670622
0.0010665360909752,19.751370332535
0.00121200436484892,19.7570757440099
0.00137809857041937,19.762345248581
0.00156752519005653,19.7672159119867
0.00178339152849087,19.7717220959853
0.00202925637916686,19.7758957138915
0.00230919596355969,19.7797664696696
0.00262789055953965,19.7833620889734
0.00299073787588916,19.7867085571773
0.00340400415892135,19.7898303773543
0.00387503193808523,19.7927508626547
0.00441253358760735,19.7954924939014
0.00502702598937536,19.7980773957724
0.00573022201611135,19.8005239490463
0.00651156624598232,19.8027862970796
0.00738364546273277,19.8049063364947
0.00836689484578021,19.8069295910936
0.00949713490028617,19.8089123991789
0.0108521668147895,19.8109504358103
0.0127500219357699,19.8133937690171
0.0141740613437868,19.8150259383367
0.015692513415048,19.8166581076563
0.0170886918315541,19.8181190160935
0.0183214136385754,19.8194279052973
0.0194203537317121,19.820662899513
0.020388351447828,19.8218730118936
0.02121104305347,19.8230988246331
0.0218582121963771,19.8243883005789
0.0222721329555056,19.8258220474368
0.022306421263084,19.8276198382244
0.0217977736049948,19.8294797743951
0.02082109210765,19.8313397105659
0.0197366304386028,19.8328870630186
0.0185438883024562,19.834362061915
0.0172403100040415,19.8358519602177
0.0158345432450455,19.8373986664195
0.0149994491928221,19.8383092836673
0.0141771768272888,19.8392199009151
0.0132833673374646,19.8402532692061
0.0111171604369267,19.8429977901043
0.00922781550336599,19.845758472691
0.00770401334504828,19.8483359160163
0.00641683756503535,19.8508519767797
0.00528529736618497,19.8534149685305
0.00428566610592148,19.8560525845541
0.00340053734319227,19.8587883240264
0.00261551904200771,19.8616461835962
0.00194842869542378,19.8645106328493
0.0014099354913691,19.8672158300404
0.000964919597698273,19.8697977977578
0.000587928839321385,19.872295413901
0.000261452439357732,19.87474070677
-2.68453109116236e-05,19.8771598856268
-0.000287422483840442,19.8795894273048
-0.000533139930934266,19.8821183117394
-0.000791440552889589,19.8850486423727
-0.00096682823190364,19.8872052912556
-0.00113209930700557,19.8893619401384
-0.00126958502166933,19.8912457956144
-0.00138993972653424,19.8929587354861
-0.00150423696606805,19.8946371878565
-0.00161999715272495,19.8963845707822
-0.00174617330772718,19.8983385464378
-0.00190344646300556,19.9008379993857
-0.00217669355092287,19.9053244474045
-0.00240545900065932,19.9092201608676
-0.00259641869225537,19.9125963654706
-0.0027944980328792,19.91628955712
-0.00302151674911876,19.9210025028755
-0.00320077980509894,19.9257302284353
-0.0032928752723082,19.9297530724625
-0.00330815460486568,19.933413694382
-0.00324133436297067,19.9369764912275
-0.00306599164623922,19.9406781636037
-0.00278193554876375,19.9441639149794
-0.00240054129387065,19.9473696040229
-0.00192516003793111,19.9503536493735
-0.00135428639234704,19.9531677162543
-0.000675020553472522,19.9558835607322
0.00015100983566902,19.9586218751279
0.00122869255079674,19.9616279998122
0.00251471703438613,19.9647192442416
0.0039472466074312,19.9677964991775
0.00552167635142515,19.97089792821
0.006680903522846,19.9730201193479
0.00793055078310174,19.9751423104859
0.00921743950970297,19.9771346285982
0.0104910724230647,19.9789078587986
0.0118710050483736,19.9806172921202
0.0133626869419653,19.9822436356682
0.0150166851998028,19.9838181481478
0.0168496713738719,19.9853323039656
0.01889662478103,19.9867938448466
0.0211818597554126,19.9882005719801
0.0237333482172306,19.9895529090477
0.0265869723167052,19.9908544701317
0.0297793041111359,19.99210731157
0.0333499440267527,19.9933133036158
0.0373508268394465,19.994476688435
0.0418395235010137,19.9956008418041
0.0468835498940061,19.9966892755886
0.0525621017898644,19.9977455224613
0.058971404443498,19.9987735811931
0.0632750942999726,19.9993867905966
0.0679855314582041,20
