ecg,time
-4.19112038296659e-05,15.0009322321029
0.000234866961353569,15.0038048942379
0.000584366849952414,15.0064524537707
0.00101658524428043,15.008929728346
0.00154819956060441,15.0112988350466
0.00220865585279383,15.0136367651074
0.0030511328560796,15.0160450858856
0.00421223531983388,15.018750318268
0.00573909871363186,15.0216817223215
0.00718343467965905,15.0240434650444
0.00884689636520331,15.0264052077673
0.0104239957619786,15.0283517421712
0.0120192444478397,15.0300723532917
0.0137060388363847,15.0316595987845
0.0155454414426506,15.0331635270452
0.017566743588419,15.0345935185432
0.0198176409145758,15.0359670569174
0.0223291195804983,15.0372858549002
0.0251450818867609,15.038556602102
0.0282985282245437,15.0397787613903
0.0318397242957664,15.0409574335288
0.0358178112579266,15.0420948257682
0.0402853525928461,15.0431925989486
0.0453126227411055,15.0442549120751
0.0509769430503238,15.045284836852
0.0573697120903993,15.046285644724
0.0645999279590165,15.047260799026
0.0727978064297876,15.048213872414
0.0821261289656898,15.049149172009
0.0927846106499554,15.0500712162434
0.105024990878236,15.0509851548555
0.119171396669162,15.0518970645203
0.135651911461551,15.0528143948638
0.155053577386155,15.0537468586435
0.178089870387081,15.0547029121015
0.204748907517234,15.0556612638418
0.235706743246772,15.0566312778883
0.271865713296556,15.0576265792318
0.314586747494496,15.0586710520603
0.35277035153332,15.0595249560011
0.393033391550192,15.0603788599419
0.428307654308533,15.0611156197287
0.458912205838995,15.0617718829109
0.485724782357353,15.0623883051534
0.508911887985036,15.0629913415652
0.52815615502444,15.0636038121065
0.542612928270217,15.0642530370509
0.550422541154046,15.0649849941301
0.548054946931701,15.0657681601749
0.53382007175434,15.0665785970037
0.506229757423977,15.0674343219996
0.463257369221716,15.0683488829275
0.40387425658337,15.0693122503169
0.356072843283892,15.0699654627386
0.30312095970571,15.0706186751603
0.256510213463557,15.0711588346827
0.217059834577373,15.0716049560585
0.182680593231332,15.0719946194404
0.152035404184628,15.0723497942182
0.124343278544777,15.0726835741158
0.0990839752278816,15.0730051727023
0.0758463781438891,15.0733225636837
0.0542180913670214,15.0736448238901
0.0335860014113148,15.0739871770874
0.0121077739945349,15.0743979946051
0.000713667061050161,15.0746491715286
-0.0067627382475462,15.0748314679696
-0.0136010067802833,15.0750137644106
-0.0195563617750256,15.075187644046
-0.0256558726332136,15.0753841287335
-0.031624795815736,15.0755995578706
-0.0372686040358523,15.0758311582947
-0.0424773961772134,15.0760777564118
-0.0471923405496038,15.076339234655
-0.051385234344004,15.076616207607
-0.0550465759320349,15.0769098596305
-0.0581727296175064,15.0772218798017
-0.0608057721273072,15.0775607065523
-0.0628497419038969,15.0779139391961
-0.0643957840743761,15.0782935011148
-0.065459121603321,15.0787036389642
-0.0660526311918562,15.0791495095204
-0.0661858983913195,15.0796376151824
-0.0658632393190353,15.0801763174828
-0.0650795529441517,15.0807775388883
-0.0638152095468847,15.0814575187215
-0.0620287558674953,15.082239557015
-0.0596354951903351,15.083161887867
-0.0564383916895127,15.0843018114955
-0.0522776515122585,15.0857268544027
-0.0482209261950525,15.0871016986088
-0.0443290337339289,15.0884348942447
-0.0406340738142708,15.0897294757994
-0.0371528239366931,15.0909866220467
-0.0338936660680197,15.0922065753287
-0.0308595229443569,15.0933891218216
-0.0280493270970513,15.0945338448311
-0.0254589177359373,15.0956402570842
-0.0230817006591363,15.0967078661627
-0.0209091991821276,15.0977362009796
-0.0189315427687654,15.0987248141127
-0.017137907037573,15.0996732681167
-0.0155169073163227,15.1005811102795
-0.0139579280267115,15.1015085462409
-0.0124601268068615,15.1024599558641
-0.0110275747470547,15.1034372330513
-0.00966413131119799,15.104442618569
-0.00837343708674606,15.1054787531585
-0.00715886232806399,15.1065487782369
-0.00602345333805373,15.1076564695631
-0.00496987635166136,15.108806418795
-0.00400035856012051,15.1100042862391
-0.00311662533551215,15.1112571630533
-0.0023198317080874,15.1125741085882
-0.00161048430077491,15.1139669818324
-0.000988346279617549,15.115451797183
-0.000452309968783393,15.1170510891308
-2.30627348893075e-05,15.1186971701779
0.000313602794010737,15.1203979712292
0.000573097997221162,15.1221721388416
0.000769689882878326,15.1240435796482
0.00091694678382565,15.1260449754721
0.00102825213289206,15.1282241804908
0.00111765856595548,15.1306583375546
0.00120182508464535,15.1334921951417
0.00130705559351776,15.1370916852366
0.00143384271309248,15.1408832117542
0.0016005916636364,15.1451167358378
0.00181789338329455,15.1499716314073
0.00205703021953663,15.1549331750252
0.00227714053288683,15.159356233026
0.00247849279397763,15.1633618685597
0.00267192487208814,15.1671975032061
0.00286306592491828,15.1709747206699
0.0030557899427905,15.1747581271023
0.00325332806807388,15.178593356494
0.00345866154549682,15.1825170200613
0.00367471308127437,15.1865611850699
0.00390450520706323,15.1907563831701
0.00415128486177847,15.195133287657
0.00441867764351509,15.1997240431319
0.00471093579572388,15.2045636600722
0.00503334669312033,15.2096912863338
0.00538989864471722,15.2151061980883
0.00575377179835332,15.2203488356935
0.00613605040347108,15.2255505842395
0.00653594309878599,15.2306557272707
0.00695831112516358,15.2356825388091
0.00740729543183911,15.2406331021896
0.00788803360163873,15.2455154392475
0.00840594306818612,15.2503339883541
0.00896692424138871,15.2550912856163
0.00957739618246499,15.2597876741511
0.010244421182245,15.2644219315261
0.0109857302341582,15.269050723715
0.0118203994898154,15.2737075643306
0.0127666847015833,15.2783965794571
0.0138508554947888,15.2831404836028
0.015112764447917,15.2879901190599
0.0166257137147997,15.2930718209629
0.0185811636695013,15.2987818562458
0.0205032312345885,15.3037592044404
0.0221073917860817,15.3076267995944
0.0237532066191909,15.3114943947485
0.0251692779974361,15.3149010562678
0.0263634371971382,15.3180129261367
0.0273516639045668,15.321005479472
0.0280861161310292,15.3238636994643
0.0285542071216337,15.3266449539263
0.0287452707595122,15.3294762854335
0.0286083492939508,15.3325502772344
0.0279357283328253,15.3364448532836
0.0271007172345752,15.3393820933269
0.0260363038053132,15.3423193333702
0.0249602421779199,15.344886644718
0.0238883914332483,15.3472364375368
0.0228153866430202,15.3494728037425
0.0217423091083763,15.3516464335389
0.0206724830324522,15.3537863982574
0.0196096301088155,15.3559119883131
0.0185573869351145,15.358037295448
0.0175191518889631,15.3601733539516
0.0164979996791323,15.3623292907431
0.0154967226956414,15.3645130164359
0.014517845480998,15.3667316669698
0.0135636365054374,15.3689919123035
0.0126361176328335,15.3713001907936
0.0117370782440634,15.3736628834904
0.0108680802366055,15.3760864824667
0.0100304709673988,15.3785777248166
0.00922538976044672,15.3811437399235
0.00844295710707422,15.3838308218832
0.00767331125660629,15.3866986237667
0.00692024147140399,15.3897681675626
0.00618759461486948,15.3930643736152
0.00547943943880876,15.3966160497007
0.00480002215084863,15.400456650824
0.0041537005293464,15.404625213852
0.00354482326227446,15.409167747685
0.00297752521482301,15.414139678103
0.00245546192174381,15.4196101461965
0.00198151744705922,15.4256696835653
0.00155943516122838,15.4324100875595
0.0012040415696761,15.4396572248651
0.000971456045796057,15.4456495047927
0.00079200710680531,15.4516417847203
0.00060021895136622,15.4602842855036
0.000455521826795847,15.4693558603253
0.000341996805416298,15.4793407762052
0.000262954571988349,15.4893407762052
0.000208646406528276,15.4993407762052
0.000171902692966188,15.5093407762052
0.000147483020353452,15.5193407762052
0.000131649885080407,15.5293407762052
0.000121816351829828,15.5393407762052
0.000116225302330095,15.5493407762052
0.00011369035397364,15.5593407762052
0.000113410565892405,15.5693407762052
0.00011484741716215,15.5793407762052
0.000117644967206155,15.5893407762052
0.000121577276868735,15.5993407762052
0.000126512954525851,15.6093407762052
0.000132391093315205,15.6193407762052
0.000139205329753809,15.6293407762052
0.000146993976812516,15.6393407762052
0.000155834857901936,15.6493407762052
0.000165843955556186,15.6593407762052
0.000177177416990003,15.6693407762052
0.000190036865745939,15.6793407762052
0.000204678385842968,15.6893407762052
0.000221426026385096,15.6993407762052
0.000240691306990986,15.7093407762052
0.000263001122222983,15.7193407762052
0.000289037866033103,15.7293407762052
0.000319697905131069,15.7393407762052
0.000356178412798374,15.7493407762052
0.000400109335084151,15.7593407762052
0.00045375946046124,15.7693407762052
0.000515013575914132,15.7786058292377
0.000584614567719095,15.7871550323483
0.000663647996739617,15.7950429080389
0.000753384794045718,15.8023214295361
0.000855276222631012,15.8090388391149
0.00097096818803919,15.8152398990489
0.00110232477225727,15.8209661626274
0.00125145691645843,15.8262562095552
0.00142075606765757,15.8311458531226
0.00161293128688541,15.835668346839
0.0018310554937494,15.8398545871662
0.00207861838284788,15.8437333044227
0.00235959168464198,15.8473312387128
0.00267850972886663,15.8506733219535
0.00304057082308309,15.8537828700729
0.00345176984315593,15.8566817800581
0.00391907226629655,15.8593907456946
0.00445065409373361,15.861929514494
0.00505624348754474,15.8643172050924
0.00574762644717321,15.8665727322925
0.00651337463348348,15.8686508731613
0.00736033216889625,15.8705789913663
0.00830193878905016,15.8723916636843
0.00935872009602469,15.8741246859602
0.0105656488403795,15.8758217504617
0.012009463750847,15.8775701765907
0.0139970408188762,15.879637086403
0.015704491973799,15.8812077124836
0.0175481340704757,15.8827783385641
0.0191878502344648,15.8841256144315
0.0206282961545209,15.8853175043675
0.021919432413588,15.8864383734238
0.023069594075081,15.8875359532802
0.0240659068375906,15.8886484691733
0.0248781660978584,15.8898206283453
0.0254478497549753,15.8911272795089
0.0256279846803115,15.8927715968883
0.025192634516105,15.8945191904578
0.0242145432218076,15.8962667840273
0.0230901591068305,15.8977186270597
0.0218280379190949,15.899112601826
0.0204258601005447,15.9005342459519
0.0188922670522553,15.9020257151304
0.0172338849666177,15.9036250839623
0.0154853886610972,15.9053813856014
0.0136555289515537,15.9073897248604
0.0114939019916206,15.9100649800193
0.00971193597745557,15.9126090371029
0.00824477963899698,15.9150243659457
0.00702384530832314,15.9173373455046
0.00599318590478841,15.9195798194014
0.0051061173992353,15.9217948473965
0.00431949499134346,15.924053729877
0.00357848539394582,15.9265228094015
0.00285437463985838,15.9293768468177
0.00246599969495467,15.931151115228
0.00211884093795764,15.9329253836382
0.00183274749998432,15.9345532940698
0.00158377983459992,15.9361195752353
0.00135324553754783,15.9377209949532
0.00112664245856933,15.9394680137853
0.000883465205363394,15.9415804619791
0.000533240188229575,15.9452041455899
0.000249493757527283,15.9488775191866
4.97503043017874e-05,15.9520788537944
-0.000119342369431775,15.9554125771994
-0.0002820991646338,15.9595260233906
-0.000439869724579224,15.9653731331968
-0.000509258449298861,15.9703711432842
-0.000514546183603529,15.9749265242987
-0.000459964882487755,15.9790277938793
-0.000346337172378991,15.9827261077908
-0.000172373452673579,15.9860627513557
6.52551769111111e-05,15.9890921619544
0.000371540165453788,15.9918652046984
0.0007538922123137,15.9944335807645
0.00122428435254688,15.9968543107905
0.00180323503676061,15.9991940644265
0.00253197345503755,16.0015509879772
0.00348355990068899,16.0040478543937
0.00481790515311308,16.006909746547
0.00649253442620356,16.0098850005938
0.007846105914367,16.0119561128823
0.00938347735805614,16.0140272251709
0.0109472523529972,16.0158715372568
0.0125709682574859,16.0175454028861
0.0142995457138308,16.0190979363176
0.0162040081320666,16.0205819517918
0.0182951828242313,16.0219900103288
0.0206317629228404,16.023345954163
0.0232381698652924,16.024646846012
0.0261622855342031,16.0259008478662
0.0294417689494796,16.0271086439577
0.0331216857351437,16.028272612061
0.0372568083822146,16.0293963431918
0.0419065801049751,16.030482496639
0.0471369237150764,16.0315333566578
0.0530330667340738,16.0325529335662
0.0596921231156487,16.0335445894752
0.0672302831091059,16.0345118831562
0.0757883578413918,16.0354586528928
0.0855391700340957,16.0363890986436
0.0966963934484036,16.0373077907383
0.109534667112048,16.0382202899799
0.124408747862886,16.0391330773113
0.141792642020751,16.0400542533379
0.162345599260065,16.0409945803781
0.186520776502911,16.0419505112991
0.2145249098088,16.0429115433054
0.247096576417158,16.0438881437368
0.285249812659226,16.0448962827768
0.330629149704212,16.0459666336134
0.367066233109985,16.0467615752082
0.404920717880684,16.047556516803
0.438485526414715,16.0482603264787
0.467826371482841,16.0489003776966
0.493493793913755,16.0495100201443
0.515483394105051,16.0501135362277
0.533329652300877,16.0507342532762
0.545953046816073,16.0514031622082
0.550879580619551,16.0521794152491
0.544602809141155,16.052969623968
0.526018811973129,16.0537936480788
0.493442296007474,16.0546681504253
0.44471233729492,16.0556048193798
0.381824761990624,16.0565528466784
0.336233137010396,16.0571465220892
0.286787797166302,16.0577401974999
0.243009662075544,16.0582416570133
0.205427336864163,16.058665906271
0.172373000027965,16.0590425240202
0.142754953669772,16.0593895780335
0.115901720742642,16.0597184989665
0.0913412305848489,16.0600378599874
0.0686747672083276,16.0603556948251
0.0474577504948125,16.0606822190919
0.0268988147704294,16.0610376151435
0.00877544929077388,16.0613982199789
-0.000506279976879319,16.0616075090926
-0.00891780069617107,16.0618167982063
-0.0155154078027839,16.0619976145055
-0.0215548196779759,16.0621794034407
-0.0276401445535784,16.0623825429018
-0.0335188773407531,16.0626034929083
-0.039029032156689,16.0628400832389
-0.0440804674008326,16.063091536353
-0.0486261376050605,16.0633580010033
-0.0526450010944077,16.0636402908752
-0.0561319659715396,16.0639397594819
-0.0591862305892949,16.0642711457803
-0.0615654323764077,16.0646089764947
-0.063436207281505,16.0649707719544
-0.0648148311542167,16.0653603244993
-0.0657154423367649,16.0657820969755
-0.0661499790070966,16.0662416629136
-0.0661264676655487,16.0667460935004
-0.0656468353616485,16.0673045578598
-0.0647011902051743,16.0679307431228
-0.063263804036679,16.0686426080912
-0.0612819054969405,16.0694673445112
-0.0586450894959095,16.0704521110661
-0.0550689562224854,16.0717046248297
-0.0509356821975404,16.0731108038905
-0.0469280007351107,16.0744715591907
-0.0430980007073546,16.0757919388879
-0.0394716093435197,16.0770742271132
-0.0360623880812132,16.0783192265917
-0.0328767178955592,16.0795269939201
-0.0299160969376965,16.0806972298127
-0.0271783650033467,16.0818294847892
-0.0246585008683692,16.0829232655143
-0.0223492383521197,16.0839780853642
-0.0202415940725592,16.0849934818608
-0.018325339650776,16.0859690131329
-0.0165894266094947,16.0869042401123
-0.014992546818177,16.0878162455204
-0.0134534030376087,16.0887514695153
-0.011976838152421,16.0897112455279
-0.0105668253923376,16.0906975943358
-0.00922715729191391,16.0917128798903
-0.00796139044502961,16.0927598967183
-0.00677279357157725,16.0938419801496
-0.00566429308171746,16.0949631539284
-0.00463841607017012,16.0961283322693
-0.00369723022303753,16.0973436037127
-0.00284227941967869,16.09861664232
-0.00207451258736229,16.099957325705
-0.00139420108113847,16.1013787068463
-0.00080083520401226,16.1028986314243
-0.000299535721559558,16.1045185103881
9.73565817246305e-05,16.1061806547139
0.000406944799741477,16.1079033922752
0.000644168218922336,16.1097066477631
0.00082301767581217,16.1116167568719
0.000956933598613881,16.1136704618546
0.00105939740968781,16.1159230799649
0.00114500699107951,16.1184675723705
0.00123225251401947,16.121491670656
0.00134505734796976,16.1252256960754
0.00148248915388132,16.1291179211309
0.00166638704112017,16.1335719517284
0.00189045579045438,16.1384337776272
0.00213664689173601,16.1434741809502
0.00234871240857311,16.1477130320956
0.00254648042766749,16.1516413710636
0.00273861225096788,16.1554472886982
0.00292991807942863,16.1592206252121
0.00312397619304514,16.1630175120444
0.0033239024880024,16.1668797146407
0.00353264173630959,16.1708418989422
0.00375313502299203,16.1749353107951
0.00398846895834511,16.1791903711402
0.00424200196853529,16.1836381177233
0.00451754341077761,16.188311533349
0.00481965030610709,16.1932469501643
0.00515411204541287,16.198485224862
0.00551284333097207,16.2038388063668
0.00588296151801966,16.2090716717677
0.0062708703266451,16.2142396492382
0.00667800255708899,16.219317426594
0.00710895867264788,16.2243173033229
0.00756823903916743,16.2292438068771
0.00806108486429596,16.2341038670465
0.00859307034959116,16.2389012592932
0.00917026349803739,16.2436377340733
0.00979928885333073,16.2483130206839
0.0104874630715348,16.2529255419764
0.0112593377365364,16.2575668963323
0.0121295717693471,16.2622326600897
0.0131194950291828,16.2669370616174
0.0142587829233295,16.2717089986295
0.0155952544628549,16.2766171177504
0.0172252969535617,16.2818403727539
0.0194612309382566,16.2880518595067
0.0211856789802734,16.2923567466004
0.0230025579768992,16.2966616336941
0.0245483882045373,16.3003157523512
0.0258410484162957,16.3035386865067
0.0269239964717024,16.3065681898671
0.0277828738247106,16.3095012388724
0.0283728399093412,16.3123036032735
0.0286938279378784,16.3150942827543
0.0287177794126503,16.3180237937926
0.0283429124795313,16.3214013596173
0.0275668010481597,16.3247833302923
0.0264521932485719,16.3281653009672
0.0253573419906634,16.3308997400874
0.0242835409517381,16.3333165874352
0.023210984312439,16.3355872234713
0.0221376022281467,16.3377798376098
0.0210661527416384,16.3399295842554
0.0200003033283738,16.3420586156248
0.0189437384035412,16.3441826102671
0.0178999710754924,16.3463135580929
0.0168721865526239,16.3484611921582
0.0158632796972421,16.3506338088582
0.0148758723522114,16.3528387882922
0.0139123253196139,16.3550829437632
0.012974751724522,16.3573727718676
0.0120650240254537,16.3597146590303
0.0111847871218548,16.3621150387187
0.0103354669482682,16.3645805399697
0.00951827840220924,16.3671181310931
0.00873202657881771,16.369742917486
0.00795716261566669,16.3725415139618
0.00719750750013213,16.3755334718153
0.00645682061613949,16.3787424238403
0.00573909105809981,16.3821956612655
0.00504850633143297,16.385924813235
0.00438939357168027,16.3899667138047
0.00376612220673248,16.3943645841205
0.0031829349158087,16.3991699810104
0.00264370356496049,16.4044462420635
0.00215162375625695,16.4102748455733
0.00170903301886173,16.4167650907441
0.00132956803338654,16.4238116547232
0.00101241437649187,16.4314251684224
0.000761186456081483,16.4397269016831
0.000594800255801471,16.4474860147686
0.000447841037126846,16.4568395396282
0.000338379057275416,16.4666519910913
0.000260482355527157,16.4766519910913
0.000206962982524049,16.4866519910913
0.000170768485480418,16.4966519910913
0.000146733842659231,16.5066519910913
0.000131171776612502,16.5166519910914
0.000121530135953282,16.5266519910914
0.00011607631908183,16.5366519910914
0.000113641229964527,16.5466519910914
0.000113436036311732,16.5566519910914
0.000114930676657742,16.5666519910914
0.000117775152220509,16.5766519910914
0.000121747758325212,16.5866519910914
0.000126720194075563,16.5966519910914
0.000132633889602668,16.6066519910914
0.000139484339986675,16.6166519910914
0.000147311440648484,16.6266519910914
0.000156194478998624,16.6366519910914
0.000166250916211151,16.6466519910914
0.000177638517335984,16.6566519910914
0.000190560793942582,16.6666519910914
0.000205276142082756,16.6766519910914
0.000222111544090523,16.6866519910914
0.000241482343301692,16.6966519910914
0.000263920533129394,16.7066519910914
0.000290115450157536,16.7166519910914
0.000320973113502813,16.7266519910914
0.000357704415772524,16.7366519910914
0.000401959280595604,16.7466519910914
0.000455923099791427,16.7566327631519
0.00051747529104156,16.7658701727973
0.000587410241850868,16.7743935012488
0.000666822216371512,16.7822575177461
0.000756988842951362,16.7895140627971
0.000859368351179635,16.796211242685
0.00097561439842442,16.8023936941261
0.00110759980487126,16.808102854395
0.00125744544247379,16.8133771952368
0.0014275539830791,16.8182524298142
0.00162064730871011,16.8227617192109
0.00183981296118021,16.8269358749645
0.00208855755798578,16.8308035492602
0.00237087237098496,16.8343914107403
0.00269131473936925,16.8377243269085
0.00305511031954551,16.840825556645
0.00346828698753204,16.8437169474932
0.00393785094315004,16.8464191526031
0.00447202958901441,16.8489518895515
0.0050806179890898,16.8513342606264
0.0057754926790978,16.8535851834476
0.00654417283822093,16.855657000443
0.00739446664747653,16.857580072102
0.00834003605576377,16.8593890168914
0.0094017783089523,16.861119771998
0.0106154955004712,16.8628165714858
0.0120729904953408,16.8645714711609
0.0140958247592927,16.8666621125225
0.0158019947008952,16.8682232946748
0.017640082221802,16.8697844768272
0.0192671233729168,16.8711204473508
0.0206990285430349,16.8723070124984
0.0219828648665135,16.8734256551099
0.023125483575635,16.8745230725479
0.0241131347287944,16.8756374611776
0.0249145687743187,16.8768143305572
0.0254690024522378,16.8781314061401
0.0256194064709344,16.8798074679649
0.0251557185942038,16.881536068422
0.0241673844066191,16.8832646688792
0.0230371526905395,16.8847106837429
0.0217687018304887,16.8861046850208
0.0203605067387728,16.8875286316005
0.0188212851423132,16.889024043774
0.0171574276791379,16.890629193391
0.0154058991074204,16.8923939681495
0.0129293625076873,16.8951763862856
0.0108856765699084,16.8978225295924
0.00921232504002503,16.9003232044749
0.00783060655866443,16.9027028531089
0.00667601250767586,16.9049895596664
0.00569600772613687,16.9072177927866
0.0048458324438703,16.9094367989171
0.00408131356009032,16.9117356032564
0.00333333093900174,16.9143619398923
0.00281621406953083,16.916472472091
0.00236378318205683,16.9185830042897
0.00202823373210128,16.9203529757852
0.00175550903702856,16.9219528450885
0.00151366035635893,16.9235198743811
0.00128585890918592,16.9251509773511
0.00105719038192011,16.926973767326
0.000800821431700343,16.9292960766519
0.000442695822098006,16.9332186234696
0.000178599864105073,16.9368717842293
-1.24413963442111e-05,16.9401530479696
-0.000180026118979904,16.9437423236189
-0.000344551416716653,16.9484329383893
-0.000469877111438336,16.9539857738314
-0.000517652985227632,16.9588373476554
-0.000503181122839188,16.9632398512221
-0.000429441496005394,16.967205773582
-0.000296440112657078,16.9707803456841
-0.000102198766202449,16.9740112324715
0.000157146491469912,16.9769516686247
0.000487224560953911,16.9796522267538
0.000896628856857761,16.9821659456428
0.00139946417071352,16.9845520179255
0.00202127298901586,16.9868849539846
0.00280850070976934,16.9892614651363
0.00386465570986962,16.9918564026806
0.00530120720315219,16.9947557450206
0.00708141243316614,16.9977482918538
0.00842466408062158,16.9996989703039
0.00994562603756869,17.001649648754
0.0115121660506611,17.0034103441968
0.0131877243344486,17.0050547515989
0.014964993103711,17.0065714084094
0.0169331701799342,17.0080269343239
0.019104685078839,17.0094133095257
0.0215333516095725,17.0107487123628
0.0242506947635653,17.0120332057726
0.0272959459238365,17.0132697202811
0.0307149989598466,17.0144619694067
0.0345512425176466,17.0156109795027
0.038861970310949,17.0167204645734
0.0437112128622971,17.017793545318
0.0491724104449716,17.0188332155545
0.0553312586517949,17.0198425337702
0.0622906111245389,17.0208249277646
0.0701762656599405,17.0217843061742
0.0791395773028791,17.0227246274149
0.089367210635275,17.0236502518691
0.101093209842107,17.024566111553
0.114616055474663,17.0254779100972
0.13032821912628,17.0263926620995
0.148760588908749,17.0273192794981
0.17066520811797,17.0282699177965
0.196148712361362,17.0292267014059
0.225704724954816,17.0301919478906
0.260152596560356,17.0311776379444
0.300667134606942,17.0322033253059
0.349362318290574,17.0333111141145
0.384159715403478,17.0340532570206
0.419700437491832,17.0347953999268
0.451336010929247,17.0354664998403
0.47909381233635,17.0360903470292
0.503236547017403,17.0366946696225
0.523562639294634,17.0373023954186
0.539386858594904,17.0379387918076
0.549208940509073,17.0386425756938
0.549769690935905,17.0394218905418
0.538755177238679,17.0402233131232
0.51483087014458,17.041065689648
0.476095783384902,17.0419638818835
0.420288215147218,17.0429273751445
0.370829367174624,17.0436320149829
0.315021497355141,17.0443366548213
0.266150567195904,17.0449089650309
0.225265939454982,17.0453725895495
0.189906841226403,17.045772405122
0.158518513116715,17.0461338566417
0.130225945872546,17.0464714781017
0.104467568178602,17.0467950674559
0.0808176364515331,17.0471126896417
0.0588749504988445,17.0474329175363
0.0381027362296297,17.0477687819062
0.0171834973107138,17.0481546734456
0.00827334360742525,17.0483396102923
6.68811043657989e-05,17.048524547139
-0.0083491331979814,17.0487325205369
-0.0150228698619464,17.0489140893618
-0.0210416164272252,17.0490938209211
-0.0271335314839495,17.0492953003906
-0.0330371308002688,17.0495148601446
-0.0385825089391977,17.049750181196
-0.0436747786105006,17.0500003898024
-0.0482640583608927,17.050265569335
-0.0523275789793864,17.0505464838262
-0.0558591841867455,17.0508444439341
-0.0588963454199768,17.0511663341708
-0.0613309398118965,17.0515016237174
-0.0632562705983659,17.0518606225723
-0.0646878513805352,17.052246948682
-0.0656399570117212,17.0526649597221
-0.0661248429405725,17.053120092001
-0.0661510568269112,17.0536192291406
-0.0657213213873885,17.0541712724994
-0.0648273550774489,17.0547893235728
-0.0634454675951983,17.0554907541849
-0.0615267773117663,17.0563014172928
-0.0589699897518353,17.0572653067963
-0.0555236584130482,17.0584786664502
-0.0513805357992069,17.0598907592215
-0.047355930042765,17.061256145949
-0.043505035596816,17.0625807660393
-0.0398556744024078,17.063867137094
-0.0364224168160625,17.0651161786243
-0.0332122825549124,17.0663280046608
-0.0302272296545491,17.0675023420808
-0.0274654520236262,17.06863875116
-0.0249222074573454,17.0697367400515
-0.0225904470846038,17.0707958200434
-0.020461350530531,17.0718155258656
-0.0185248033587796,17.0727954140305
-0.0167698271153876,17.0737350463569
-0.0151668433245512,17.0746445554807
-0.0136210130064821,17.0755771690736
-0.012137312014053,17.0765341288519
-0.0107197303272022,17.0775174220192
-0.00937208355713031,17.0785293703557
-0.00809795696696671,17.0795727157789
-0.00690065382604417,17.0806507271869
-0.00578314125472932,17.081767343224
-0.00474799351869006,17.0829273671902
-0.00379733231888141,17.084136740011
-0.00293276296113457,17.0854029342142
-0.00215530413972372,17.0867355434523
-0.00146530693369513,17.0881472043994
-0.000862354347572528,17.0896551203038
-0.00034858931431879,17.0912713737216
5.87424537898933e-05,17.0929279408688
0.000377075716839231,17.0946432193197
0.000621471839719699,17.0964365862537
0.000806008442233616,17.098333536023
0.000944161660464601,17.1003693889792
0.00104936969922884,17.1025968177354
0.00113602569515144,17.1051030704717
0.00122192866555248,17.1080598011243
0.00133361209955952,17.111798670235
0.00146746069797072,17.1156519730016
0.00164595324065492,17.1200348450701
0.00186792620470277,17.1248915985436
0.00211187119091812,17.129904513578
0.00232618936358492,17.134194648977
0.0025249760820854,17.1381449593285
0.00271745471550352,17.1419590802293
0.00290865966054933,17.145732883366
0.00310225249865512,17.1495249277731
0.00330138157707579,17.1533781054834
0.00350900071815004,17.1573276451686
0.0037280432471007,17.1614050195626
0.00396157384078878,17.1656406658686
0.00421291342121171,17.1700654893677
0.00448580939973182,17.1747121874855
0.00478471627989895,17.1796166573236
0.0051152538803177,17.1848191934099
0.00547329321828475,17.1901927959371
0.00584139775167636,17.1954291600643
0.00622746501498814,17.2006079531053
0.0066322303696803,17.2056944596057
0.00706037780405718,17.2107028671382
0.00751629636754052,17.2156369896041
0.00800519532972441,17.2205041263863
0.00853259801340787,17.225308266751
0.0091045175609922,17.2300514084053
0.00972751122477235,17.2347334700376
0.0104088119464449,17.2393529752697
0.0111707252507166,17.243990287232
0.012029344940512,17.2486530538443
0.0130049806576254,17.2533522348676
0.014126124352679,17.258114502311
0.015437778368398,17.2630021798219
0.0170278385266267,17.2681748506373
0.0191595625090523,17.2741931738521
0.0209406410659849,17.2786928755946
0.0228322302835208,17.2831925773371
0.0244131069504664,17.2869213171227
0.0257274679796515,17.2901737686452
0.0268298990064343,17.2932146107276
0.0277146141386935,17.2961665270402
0.0283293041641449,17.2989763569005
0.0286758663721487,17.3017626378981
0.0287298426799854,17.3046706414769
0.0284013928681191,17.3079807789424
0.0273949634361336,17.3123041817267
0.0265016306292551,17.3149630885352
0.0254459414663821,17.3176219953437
0.0243754842511922,17.3200474767705
0.0233033141173522,17.3223266080884
0.022229948487451,17.3245242053667
0.0211582029918916,17.3266766031208
0.0200917332730963,17.3288066977713
0.0190342342648508,17.3309305829432
0.0179892416404199,17.3330604966416
0.0169599685889023,17.3352063271397
0.0159493341281164,17.3373764700441
0.0149599830016163,17.3395783689213
0.0139942984073684,17.3418188738083
0.0130544141579954,17.344104500549
0.0121422227511544,17.3464416389337
0.0112593894528335,17.3488367094318
0.0104073574559229,17.3512963220546
0.00958736050792235,17.3538274074834
0.00880026944495909,17.3564379170299
0.00802424251432609,17.3592206636041
0.00726310804193376,17.3621948657429
0.00652060392305806,17.3653838683129
0.00580070096265036,17.3688146160466
0.00510757117459735,17.3725183297486
0.00444553279478437,17.3765313493784
0.00381895701157263,17.3808962790889
0.00323210850823574,17.3856638230714
0.0026889016750483,17.390896100311
0.00219259908171451,17.3966726986755
0.00174561557284961,17.4031000248919
0.00136034622933084,17.4101013144293
0.00103798536843306,17.4176605962709
0.000780886192566097,17.425896015704
0.000595438233344727,17.4343679374833
0.000453844924179006,17.4433226510634
0.00034177947449244,17.4532189058528
0.000262840308603534,17.4632189058528
0.000208573232682585,17.4732189058528
0.000171848525815077,17.4832189058528
0.000147442926047752,17.4932189058528
0.00013162245897429,17.5032189058528
0.000121799548705833,17.5132189058528
0.000116216519818622,17.5232189058528
0.000113687262107535,17.5332189058528
0.0001134114921273,17.5432189058528
0.000114851307045674,17.5532189058528
0.0001176511960682,17.5632189058528
0.000121585484030548,17.5732189058528
0.00012652294357186,17.5832189058528
0.000132402782567312,17.5932189058528
0.00013921872880171,17.6032189058528
0.000147009174548694,17.6132189058528
0.000155852016697952,17.6232189058528
0.000165863310706269,17.6332189058528
0.000177199281873033,17.6432189058528
0.000190061643435609,17.6532189058528
0.000204706588263845,17.6632189058528
0.000221458302920222,17.6732189058528
0.00024072848578912,17.6832189058528
0.000263044269515258,17.6932189058528
0.000289088372001538,17.7032189058528
0.000319757610165081,17.7132189058528
0.000356249796999416,17.7232189058528
0.000400195809835199,17.7332189058528
0.000453865830164452,17.7432189058528
0.00051513484748646,17.7524826210063
0.000584752274727074,17.7610305382734
0.000663804295104064,17.7689172271851
0.000753562191683805,17.7761946556824
0.000855477578644101,17.7829110592762
0.000971196745107221,17.7891111939578
0.00110258420273934,17.794836607213
0.00125175138005002,17.8001258733495
0.00142109027528747,17.8050148006528
0.00161331057858646,17.8095366380136
0.00183148592763295,17.8137222776502
0.00207910684754988,17.8176004459774
0.00236014602744376,17.8211978795278
0.00267913892562871,17.8245395069971
0.00304128519021976,17.8276486414576
0.00345258131405645,17.8305471774165
0.00391999476845895,17.8332558066129
0.00445170406967894,17.8357942750377
0.00505744065057875,17.8381817004704
0.00574899493213454,17.8404369977909
0.00651488693840265,17.8425148239232
0.00736200797697511,17.8444426903017
0.00830380856717938,17.8462551755817
0.0093608322573649,17.847988082199
0.0105680916850652,17.849685128219
0.0120125699539302,17.8514338623207
0.0140018280154546,17.8535018923325
0.0157106372811412,17.8550733027233
0.0175556037947107,17.8566447131141
0.0191944434493434,17.8579911863465
0.0206341897039988,17.859182633831
0.0219247238442078,17.8603033129615
0.0230742648861482,17.8614008743134
0.0240698660452135,17.8625135394523
0.0248812372598366,17.8636860798267
0.0254496739840373,17.8649935745755
0.025627412363248,17.8666404208697
0.0251897489631348,17.8683863767865
0.024210878084548,17.8701323327033
0.0230860516469586,17.871583680374
0.0218234359324419,17.8729776487447
0.0204207853209047,17.8743994693486
0.0188867495596679,17.8758912439859
0.0172279368965425,17.8774910616335
0.0154792019642102,17.8792480210119
0.0136191573424683,17.8812919377488
0.0114634689637004,17.8839656986475
0.00968695145752694,17.8865076194529
0.00822408989472364,17.8889211757575
0.00700649895595852,17.8912328213
0.00597840529075312,17.8934745105874
0.00509323141426213,17.8956895604383
0.00430781769905725,17.8979499753658
0.00356685729422889,17.9004249717407
0.00284416491272802,17.9032811951815
0.0024578283640209,17.9050508412792
0.00211238884014582,17.9068204873769
0.00182732832041731,17.9084459705022
0.00157889984131488,17.9100120393372
0.00134859725494156,17.9116151629975
0.00112191724237201,17.9133667128014
0.000878038312121867,17.9154910680762
0.000520883640742561,17.9192079551594
0.00023445414220248,17.9229572608413
3.33072478492741e-05,17.9262329694609
-0.000136542397074603,17.9296555910291
-0.000300254132008267,17.9339294312028
-0.000449038459055755,17.9397079907483
-0.000512287839877815,17.9446635728643
-0.000512039592604722,17.949176138179
-0.00045214355679337,17.9532387548102
-0.000333158946705808,17.9569021732269
-0.000153613137499722,17.9602088390218
9.00023844828772e-05,17.9632132579639
0.000402775938052867,17.965965385164
0.000792409491318206,17.9685175040548
0.00127143731742878,17.9709274338735
0.00186102294736646,17.9732616327395
0.00260491565399146,17.975622497687
0.00358272378400474,17.9781425598453
0.00494389809966994,17.9810142100271
0.00664726000837954,17.9839957342059
0.00799455977918935,17.9860291432823
0.00952293713040149,17.9880625523586
0.0110890258932383,17.989887500453
0.0127204817432929,17.9915489390271
0.0144614498743446,17.993093090881
0.016383309804603,17.9945714216913
0.0184936943824909,17.9959737355949
0.0208528361731462,17.997324554375
0.0234855401017971,17.9986209605487
0.0264390614187064,17.9998705371558
0.0297538560729499,18.0010748903415
0.033471597467553,18.0022349791721
0.0376495399951827,18.0033551086621
0.0423479666063583,18.0044379639371
0.0476354107241903,18.0054861544133
0.0535952339718366,18.0065030672215
0.0603274031783977,18.007492364724
0.0679501093252237,18.0084576341956
0.0766066798158673,18.009402740444
0.0864732620433034,18.0103319238502
0.0977684744689747,18.0112498487981
0.110772410966753,18.012162090607
0.125848855237984,18.0130752658856
0.14348506987589,18.0139976603973
0.164361709374054,18.014940354373
0.188853048549033,18.0158963985498
0.217231517915994,18.0168583412221
0.250254237374325,18.0178369883797
0.28897048478128,18.0188490782661
0.335121509569175,18.0199276270739
0.371153349410776,18.0207089567549
0.408434300465959,18.0214902864359
0.441526967516137,18.0221856152879
0.470493546682302,18.0228214179403
0.495809131824909,18.0234294646908
0.517421756831155,18.0240335875961
0.534818074516564,18.0246574285647
0.546834304275541,18.0253334301328
0.550785128822788,18.0261100786363
0.543456105158975,18.0269025401264
0.523692164808907,18.0277304819253
0.489757519254764,18.0286101788699
0.43946273668992,18.0295528125829
0.375916514265528,18.0304936761156
0.330904466006498,18.031073061467
0.282336733636526,18.0316524468183
0.239280421620982,18.0321443510959
0.202188509497,18.032563050102
0.169491033159308,18.0329362976899
0.14015373148266,18.0332812512459
0.11353136668346,18.0336089473684
0.0891632226674432,18.0339278197094
0.0666520640018668,18.0342459652996
0.0455397740876177,18.0345740368469
0.0249622068783073,18.0349342077042
0.00823972398231052,18.0352702997349
-0.00083151783359586,18.0354757484961
-0.00906548817022088,18.0356811972572
-0.0156360636311639,18.0358616087202
-0.021679742229014,18.036043882731
-0.0277631474589753,18.0362474213988
-0.0336356509225396,18.0364687076554
-0.0391371336000295,18.0367056063249
-0.0441785773110523,18.0369573627486
-0.0487136086544938,18.0372241413126
-0.0527215956242728,18.0375067676479
-0.0561976988385776,18.0378066056528
-0.0592567255645059,18.0381404397826
-0.0616222847426026,18.0384789046864
-0.0634796209002747,18.0388413971903
-0.0648451998720341,18.0392317543965
-0.0657331234670068,18.0396544655769
-0.0661552484511578,18.0401151388085
-0.066119468810516,18.0406208926226
-0.0656275096257916,18.0411809639561
-0.0646690680810061,18.0418091883784
-0.063217896848939,18.0425236760069
-0.0612202169558225,18.0433519656333
-0.058563214902928,18.0443420528866
-0.0549533898278687,18.0456048236871
-0.0508227263560755,18.0470095498794
-0.046819441460231,18.0483691350727
-0.0429948044342864,18.0496884390906
-0.0393742825288685,18.0509696892664
-0.0359711892538712,18.0522136598666
-0.0327917469773081,18.053420393531
-0.0298373390552763,18.054589584659
-0.0271057165252477,18.0557207814619
-0.0245917882871981,18.0568134903047
-0.0222882338310031,18.0578672251175
-0.0201860291965898,18.0588815241192
-0.0182749178031938,18.0598559458123
-0.0165438340734506,18.0607900508461
-0.0149485088746032,18.0617026913767
-0.0134110667581577,18.062638579885
-0.0119363171474577,18.0635990730894
-0.0105282289324797,18.0645862003976
-0.00919058870856451,18.0656023366027
-0.00792694570636745,18.0666502897685
-0.00674055978763079,18.0677334123334
-0.0056343469401306,18.0688557499821
-0.00461082219487111,18.0700222455633
-0.00367203943231014,18.0712390257872
-0.00281952683586217,18.0725138169294
-0.00205421550366087,18.0738565703544
-0.00137635640120138,18.0752804475012
-0.000785416081051038,18.0768034621087
-0.000287251285212114,18.0784242900787
0.000107016414569036,18.0800878821304
0.00041440856960569,18.0818125537851
0.000649833958284295,18.0836183727797
0.00082726211187606,18.085531896018
0.000960125436330501,18.0875902416188
0.00106191819555033,18.0898494315419
0.00114729476004499,18.0924039693233
0.00123493755771362,18.0954460376036
0.00134807614355097,18.09917944497
0.00148646109723905,18.1030821060616
0.00167179984723668,18.1075553985832
0.00189642158110228,18.1124189872444
0.00214321584761218,18.1174671146302
0.00235471771983518,18.1216931784888
0.00255222993199833,18.1256159979815
0.00274427871053779,18.1294199012093
0.00293561887650719,18.1331932282003
0.00312980786798356,18.1369914969854
0.00332995350640645,18.1408561862204
0.00353899852652535,18.1448218192947
0.00375988638617952,18.148919586268
0.00399570982876158,18.1531799066661
0.00424983767086314,18.15763385622
0.00452609646247791,18.1623144972896
0.00482907163439318,18.1672582808231
0.00516459965689765,18.1725062171378
0.00552351616364826,18.17785435031
0.00589417884570969,18.1830862207535
0.00628258973985137,18.1882512916173
0.00669036687856403,18.1933267272931
0.00712208830666133,18.1983243240253
0.00758228375459265,18.2032487905782
0.00807620289597135,18.2081069549728
0.00860943375067243,18.2129025350619
0.00918805928053899,18.2176372155004
0.00981872238728576,18.2223106758664
0.0105087626414749,18.2269213140963
0.0112833463198195,18.2315637601144
0.0121567430449386,18.2362303549358
0.0131505635271909,18.2409362133431
0.0142948183191774,18.2457108754605
0.0156381336692324,18.2506248042706
0.0172793981163077,18.2558626615584
0.0195465555057925,18.2621333607416
0.0212564739383958,18.2663881816342
0.0230540682855699,18.2706430025269
0.0245898608168727,18.2742762497378
0.0258759105700561,18.2774905590699
0.026952809849363,18.2805168105434
0.0278036787057575,18.2834442450549
0.0283859410403983,18.2862445027143
0.0286989094930126,18.289036804155
0.0287133487174524,18.2919734857613
0.0283233383345585,18.2953738784764
0.0275449607657366,18.2987205919463
0.0264367084998272,18.3020673054162
0.02534356042103,18.3047925209213
0.0242699494879361,18.3072065511286
0.0231973836893636,18.3094758740107
0.0221240054967907,18.3116677691199
0.0210526037130079,18.3138171373805
0.0199868494173852,18.3159460204015
0.0189304254651678,18.3180700371024
0.0178868416420558,18.320201141711
0.0168592790596108,18.3223490449129
0.0158506290086494,18.3245220288819
0.014863510033397,18.3267274644666
0.0139002796151382,18.3289721598022
0.012963047852267,18.3312626087611
0.0120536843380276,18.3336051971846
0.0111738307852718,18.3360063610746
0.0103249108641079,18.338472731627
0.00950813649995763,18.3410112833715
0.00872201037301248,18.3436381773116
0.00794731973339639,18.3464391140717
0.00718788448444514,18.34943369426
0.00644746724570742,18.3526455929662
0.00573005973242459,18.3561021529243
0.00503985169873344,18.3598350637522
0.0043811714676906,18.3638812331953
0.00375838826298815,18.3682839731802
0.00317574166775318,18.3730949649578
0.00263709666523468,18.3783777315937
0.00214563840637635,18.384214041092
0.00170369372949357,18.3907136195448
0.00132507823580373,18.3977669129088
0.00100868663608312,18.4053884892344
0.000758316486265262,18.4137000865378
0.000594307438003884,18.4213738021952
0.000446786670916855,18.430778736995
0.000337757445150977,18.4405792180283
0.000260053308337387,18.4505792180283
0.000206670275916349,18.4605792180283
0.000170571931710011,18.4705792180283
0.000146604621097428,18.4805792180283
0.000131089627051475,18.4905792180283
0.000121481113844328,18.5005792180283
0.000116050946741819,18.5105792180283
0.000113633097035486,18.5205792180283
0.000113440823173858,18.5305792180283
0.000114945504690292,18.5405792180283
0.000117798155692369,18.5505792180283
0.000121777798940199,18.5605792180283
0.000126756668444167,18.5705792180283
0.000132676600462327,18.5805792180283
0.000139533413606788,18.5905792180283
0.000147367279165326,18.6005792180283
0.000156257740372085,18.6105792180283
0.000166322517547162,18.6205792180283
0.000177719660044953,18.6305792180283
0.00019065301188011,18.6405792180283
0.000205381376749051,18.6505792180283
0.000222232254612393,18.6605792180283
0.000241621664001449,18.6705792180283
0.000264082499143116,18.6805792180283
0.000290305323734748,18.6905792180283
0.000321197863735905,18.7005792180283
0.000357973438928852,18.7105792180283
0.000402285509207242,18.7205792180283
0.000456295235579702,18.7305550133913
0.000517898146397174,18.7397876364371
0.000587890388159696,18.7483065443
0.000667367373720292,18.756166486775
0.000757607840764528,18.7634192793131
0.000860071199726419,18.7701130049187
0.000976412434562091,18.7762922788874
0.00110850586550704,18.7819985187001
0.00125847407140191,18.787270177678
0.00142872165201679,18.7921429518989
0.00162197269334121,18.7966499866771
0.00184131724906554,18.8008220790607
0.00209026484515117,18.8046878679038
0.00237281011305097,18.8082740096591
0.00269351434806374,18.8116053608481
0.00305760791165745,18.8147051706292
0.00347112435836448,18.8175952781281
0.00394107689927961,18.820296329591
0.00447570179326995,18.8228280375322
0.00508480563942001,18.82520950152
0.00578028059927183,18.8274596397681
0.00654946484896218,18.8295303791979
0.00740033268807353,18.8314525920616
0.00834658460714463,18.833260904364
0.00940918264452953,18.834991278554
0.0106240741547355,18.8366880442411
0.0120839479713085,18.8384440822958
0.0141130337299141,18.8405389628703
0.0158187385071902,18.8420983140273
0.0176555900615457,18.8436576651844
0.0192804953987481,18.8449917489194
0.0207109636694277,18.8461774334443
0.0219935627424186,18.8472957114529
0.0231348979252163,18.8483931120597
0.0241210715726637,18.8495078305901
0.0249206542964709,18.8506855183303
0.0254724669715153,18.8520044087471
0.0256176610446324,18.8536861162574
0.0251490853613644,18.8554116633471
0.0241588387235243,18.8571372104369
0.0230275067143272,18.8585822699997
0.0217579044105732,18.8599762975178
0.0203486207190684,18.8614006706941
0.0188083810064759,18.8628968057671
0.0171435317676819,18.8645030134693
0.015391450400771,18.8662693405731
0.0129175220289191,18.8690508908685
0.0108760161445163,18.8716962090907
0.00920438855651725,18.8741961851786
0.00782401847665277,18.876575272588
0.00667046914292432,18.8788615771684
0.00569125843846617,18.8810896163543
0.00484165314949977,18.8833087544109
0.00407744954533616,18.8856083693924
0.00332919417604816,18.8882380192095
0.00281361903997636,18.8903440875162
0.00236240908507337,18.892450155823
0.00202722922736557,18.8942188852177
0.00175465250666139,18.8958184445728
0.00151287717681162,18.8973855300967
0.00128510008154892,18.8990170320488
0.00105639725359657,18.9008408104014
0.000799837082980853,18.9031660326423
0.000441851360542394,18.907089492585
0.000178065242247359,18.910740533508
-1.28443292214619e-05,18.9140212343806
-0.000180395211765391,18.9176118085863
-0.000344921808286874,18.9223062986168
-0.000470041869150945,18.9278571215626
-0.000517676612203612,18.9327077317083
-0.000503073959784087,18.9371092252976
-0.000429206806596357,18.9410742266596
-0.000296074734113245,18.9446480065427
-0.000101696887440635,18.9478781976156
0.000157794587672755,18.9508180480057
0.000488036218688602,18.9535181537078
0.000897630591296929,18.956031551003
0.00140070113641184,18.9584174527372
0.00202285547987614,18.9607505106888
0.00281057273667935,18.9631273580379
0.00386757001460366,18.9657231482632
0.00530488962050005,18.9686227717755
0.00708584679765816,18.9716153766228
0.0084291590549251,18.9735653756462
0.00995017855856865,18.9755153746696
0.0115167383845446,18.9772754109761
0.0131926389080714,18.9789195095774
0.0149703010126115,18.9804358913106
0.0169389662650119,18.981891180933
0.0191111653465995,18.9832774139806
0.0215405788229653,18.984612660965
0.024258826898133,18.9858970323023
0.0273050585062095,18.987133412897
0.0307252183301427,18.9883255353152
0.0345627470822214,18.9894744370978
0.0388748951256764,18.9905838126007
0.043725749687448,18.9916567924981
0.049188785645546,18.9926963713157
0.055349783541809,18.9937056147954
0.0623115703630199,18.9946879380841
0.0702000443901442,18.9956472564152
0.0791666486776485,18.9965875293281
0.089398162780318,18.9975131185387
0.101128786565435,18.9984289579636
0.114657233553348,18.9993407550408
0.130376268718984,19.0002555269922
0.148817273923833,19.0011821932803
0.170733100707549,19.002132921722
0.196227322203283,19.0030897164806
0.225796079100936,19.0040550023831
0.26025943197135,19.005040773866
0.300793684603887,19.006066618854
0.34951752534729,19.0071747566566
0.384301886740516,19.0079165048719
0.419824257614437,19.0086582530871
0.451444195572548,19.00932911027
0.479188585901036,19.0099528402391
0.503318003509246,19.0105571344226
0.523629226749463,19.0111649152185
0.539434939842982,19.0118014738723
0.549230472525652,19.0125056133921
0.549751484384632,19.0132849714718
0.538693494522749,19.0140865089452
0.514719873362446,19.0149290616304
0.475927811476265,19.0158274740439
0.420055010333269,19.016791212929
0.370619409609855,19.017495077324
0.314853446430719,19.0181989417191
0.266015604637586,19.0187707735389
0.225151691282199,19.0192341413311
0.189806518334863,19.0196338098677
0.158428648155836,19.019995170885
0.130144489091442,19.0203327366185
0.104393089566809,19.0206562961139
0.0807489404898183,19.0209739123661
0.0588107372898726,19.021294163945
0.0380408339558106,19.0216301071028
0.0171162789826243,19.0220162784192
0.00821084395521111,19.022201225043
9.03426762858407e-06,19.0223861716668
-0.00838211859076679,19.0225936418236
-0.0150503378200472,19.0227751357919
-0.0210702878113602,19.0229549827278
-0.0271618865782043,19.0231565558068
-0.0330641260929086,19.0233761936999
-0.0386075518939933,19.0236115858636
-0.0436975475132458,19.0238618640252
-0.0482843932771756,19.0241271152624
-0.052345418370817,19.0244081064047
-0.0558745271618912,19.0247061505136
-0.0589125475713164,19.0250285494948
-0.0613440710199814,19.0253639785811
-0.0632663775934948,19.0257231311326
-0.0646950228364823,19.0261096344718
-0.0656442745246399,19.0265278520166
-0.0661263710688601,19.0269832275563
-0.0661498319377775,19.0274826549169
-0.0657173367478954,19.0280350499884
-0.0648205170799024,19.0286535460302
-0.0634355725101459,19.0293555462894
-0.0615134139231695,19.0301669751037
-0.0589522682664995,19.0311319925708
-0.0554990145801918,19.0323474254389
-0.0513564082523301,19.0337591894738
-0.0473327041853149,19.0351243241146
-0.0434829335894163,19.0364487140931
-0.0398348121388925,19.0377348639595
-0.0364028541199714,19.0389836867001
-0.0331940440137896,19.0401952931306
-0.0302103146215979,19.0413694086573
-0.0274498404432167,19.0425055929999
-0.0249078639859974,19.0436033542186
-0.0225773244553331,19.0446622037109
-0.0204493925119646,19.0456816763604
-0.0185139474212672,19.0466613287728
-0.0167600068246396,19.0476007227284
-0.0151573533284803,19.048510367027
-0.0136118850326728,19.0494431219171
-0.0121285705308209,19.0504002340886
-0.0107113989079678,19.0513836925495
-0.00936418453750974,19.0523958213454
-0.00809051114136237,19.0534393652185
-0.00689368012864028,19.0545175966313
-0.0057766564257231,19.0556344587903
-0.00474201175431501,19.0567947609356
-0.00379186490078352,19.058004451889
-0.00292781785556007,19.0592710149425
-0.00215088554777983,19.0606040588877
-0.0014614147563394,19.0620162425412
-0.000858983492233371,19.0635248032156
-0.000345899456729787,19.0651412487143
6.08619076834542e-05,19.0667981132951
0.000378716935293862,19.0685137898929
0.000622720292941062,19.0703076847501
0.000806944777662015,19.0722053366607
0.000944864424072585,19.0742421407805
0.00104991948919132,19.0764709080147
0.00113651352139635,19.0789791823469
0.00122248050851627,19.0819394345391
0.00133421684843488,19.0856779421416
0.00146825300417753,19.0895332715354
0.00164702816178686,19.0939198210166
0.00186911157043159,19.0987767776117
0.00211317352288805,19.1037910736802
0.00232736794188977,19.1080783853232
0.00252609891461658,19.11202749364
0.002718557986574,19.1158411591493
0.00290976711897764,19.1196149208698
0.00310338331701431,19.1234072055196
0.00330255314037687,19.1272608440922
0.00351022988088756,19.1312110346691
0.00372934722472985,19.1352892373953
0.00396297095571506,19.1395258881946
0.00421442390330507,19.1439518988937
0.00448745662506482,19.148599981364
0.00478652883765386,19.1535060550791
0.00511726897042204,19.1587104434659
0.00547534439014315,19.1640830142151
0.00584355320867584,19.169319204657
0.00622971523297779,19.1744974351938
0.00663460243698448,19.1795834870341
0.00706289446160642,19.1845914489427
0.00751898622977376,19.1895251734963
0.00800808869170945,19.1943919412344
0.00853572779685462,19.1991957303327
0.00910791950969714,19.2039385255384
0.00973122454337257,19.208620235518
0.0104128801350948,19.2132393783439
0.0111753070705984,19.2178768998799
0.0120345250459817,19.2225398188337
0.0130108958436193,19.2272392639288
0.014132970609119,19.2320020167914
0.0154458913283221,19.2368907139438
0.0170379662351108,19.2420658790867
0.019174702139691,19.2480933240378
0.020952718284646,19.252582517232
0.0228402842080747,19.2570717104261
0.0244194249678198,19.2607966935977
0.0257327661690272,19.2640477159647
0.0268342955729355,19.2670880038784
0.0277178137584331,19.2700390207161
0.0283313628470705,19.2728484824304
0.0286767502952105,19.2756349396941
0.0287293574003284,19.2785438869135
0.0283988336644638,19.2818569544153
0.0273905406926453,19.2861791293688
0.0264967798880115,19.2888364624615
0.0254410540135695,19.2914937955543
0.0243706056505353,19.2939183583461
0.0232984280873219,19.2961969986475
0.0222250623958208,19.2983943217592
0.0211533324833335,19.3005465728256
0.020086895376552,19.3026766063771
0.0190294455399978,19.3048004934194
0.0179845174783285,19.3069304585022
0.0169553229081938,19.3090763814957
0.0159447795768337,19.3112466526286
0.0149555310166552,19.3134487120296
0.0139899592426455,19.3156894077304
0.0130501969783092,19.3179752545002
0.012138135658774,19.3203126419214
0.0112554394812094,19.3227079910967
0.0104035507146576,19.3251679130467
0.00958370211799619,19.3276993403923
0.00879665454182848,19.3303106029149
0.00802068819248857,19.3330941854286
0.00725963101127579,19.3360693240039
0.00651722203748609,19.3392593786863
0.00579743305523475,19.3426913124702
0.0051044369193752,19.3463963676507
0.00444255236176803,19.3504109101863
0.00381615050989789,19.3547775766623
0.00322949501928387,19.3595471151438
0.0026864980595509,19.3647817080575
0.00219041850740268,19.3705610437394
0.00174366723441618,19.3769916788778
0.00135870632423833,19.3839953429157
0.00103662217699817,19.3915574685642
0.000779835562573644,19.3997963639871
0.000595555071164591,19.4082232319793
0.000453596907864289,19.4172015364708
0.00034164549370254,19.4270935243639
0.000262746577229788,19.4370935243639
0.000208509114892011,19.4470935243639
0.000171805638573321,19.4570935243639
0.000147414874749945,19.4670935243639
0.000131604674651085,19.4770935243639
0.000121788924151525,19.4870935243639
0.000116210985480904,19.4970935243639
0.000113685437987549,19.5070935243639
0.000113412451413922,19.5170935243639
0.000114854429303013,19.5270935243639
0.000117656076226906,19.5370935243639
0.000121591873118238,19.5470935243639
0.000126530708284142,19.5570935243639
0.000132411877576766,19.5670935243639
0.00013922917864699,19.5770935243639
0.000147021063044149,19.5870935243639
0.000155865482376309,19.5970935243639
0.000165878547339104,19.6070935243639
0.000177216543681316,19.6170935243639
0.000190081255192369,19.6270935243639
0.000204728961130066,19.6370935243639
0.000221483957633393,19.6470935243639
0.000240758085895395,19.6570935243639
0.000263078668945461,19.6670935243639
0.000289128683845282,19.6770935243639
0.000319805307714468,19.6870935243639
0.000356306865341951,19.6970935243639
0.000400264979027444,19.7070935243639
0.000453950944423195,19.7170935243639
0.000515231939206809,19.7263561739774
0.000584862578103601,19.7349030669725
0.00066392954189295,19.7427888103717
0.000753704396024496,19.7500653679423
0.000855639036677347,19.7567809698389
0.000971380061065172,19.7629803670743
0.00110279232599244,19.7687051025338
0.00125198765142772,19.7739937462445
0.00142135847843174,19.7788821025218
0.00161361500254874,19.7834034165913
0.00183183143842036,19.7875885773036
0.00207949897854506,19.7914663079752
0.00236059108250947,19.7950633423044
0.00267964411579994,19.7984046064314
0.00304185880431087,19.8015134111641
0.00345323294116543,19.804411649046
0.00392073560158387,19.8071200101999
0.0044525473252364,19.8096582394218
0.00505840217719495,19.812045453831
0.0057500941378769,19.8143005683998
0.00651610174377174,19.8163781435387
0.00736335425007604,19.8183058094286
0.00830531088065404,19.820118146306
0.00936252968630282,19.821850962017
0.0105700555565364,19.8235479955872
0.0120150687200267,19.8252969806614
0.0140056858832768,19.8273659203199
0.0157143836216341,19.8289369031739
0.0175590636520509,19.8305078860278
0.0191974149342396,19.8318539216077
0.0206368399178037,19.8330451662856
0.0219271014477462,19.8341657602917
0.0230763615919784,19.8352633139415
0.0240716407290244,19.8363760471237
0.0248826101710466,19.8375487603998
0.025450482770043,19.8388566373555
0.0256271354915651,19.8405046309763
0.0251884260851179,19.8422498521623
0.0242091993465478,19.8439950733483
0.0230841709715875,19.8454461985299
0.021821330607714,19.8468401647572
0.0204184655053672,19.8482620660297
0.0188842290611626,19.8497539798982
0.0172252213419917,19.8513540019289
0.0154763788067462,19.8531112607072
0.0136018992091511,19.8551722077207
0.0114490348175269,19.8578452514741
0.00967510735215238,19.8603861483574
0.00821428572859798,19.8627988557702
0.006998281311601,19.8651098635291
0.00597140345228359,19.8673511799084
0.00508712495583961,19.8695662465103
0.00430227757647832,19.8718274105604
0.00356132052599677,19.8743052972963
0.00283930339937886,19.8771625670896
0.00245393837952002,19.8789299996536
0.00210931841233769,19.8806974322176
0.00182474837651786,19.8823217636743
0.00157657471941623,19.8838877443223
0.00134637920001259,19.8854917077279
0.00111965644856828,19.8872454773477
0.000875427235257169,19.8893756904075
0.000514673397661953,19.8931409201423
0.000226407767495696,19.8969362582558
2.4135114474248e-05,19.9002596457945
-0.000146328093512104,19.9037381743973
-0.00031073685321454,19.9081139897386
-0.000454021440698171,19.9138391528429
-0.000513789790796009,19.9187717934432
-0.000510359763502066,19.9232595557944
-0.000447395438114106,19.9273000262344
-0.000325316237529271,19.9309433140218
-0.000142519560836893,19.9342330975645
0.000104572810502397,19.9372232068484
0.000421107253345021,19.939963305097
0.000815005745024648,19.9425063387481
0.00129915293776629,19.944910512442
0.001895063443432,19.9472419530517
0.0026477829377016,19.9496049671059
0.00364139549552195,19.9521394494966
0.00501838188773143,19.9550169123884
0.00673832182813229,19.9580015532915
0.00808211450406463,19.9600134494335
0.00960552104469918,19.9620253455755
0.0111736348943404,19.9638396525163
0.0128093206211285,19.9654933599071
0.0145579212744404,19.9670327807962
0.0164900187356915,19.9685076425856
0.01861193892493,19.9699066245637
0.0209845983190735,19.9712544560845
0.0236332691852381,19.972548345528
0.026604386188554,19.9737953215885
0.0299396445124231,19.974997425952
0.03367989561856,19.9761552306416
0.037883340373324,19.9772732460002
0.0426107585996241,19.9783541660003
0.0479325931330091,19.9794008544767
0.0539304667395054,19.9804162104708
0.0607063256272778,19.9814041304257
0.0683795737756395,19.9823682205395
0.0770950552323558,19.9833123618623
0.0870309062429752,19.9842408171076
0.0984090270554281,19.9851583298685
0.111512312562113,19.9860704443285
0.126710263336764,19.9869838797593
0.144498237365975,19.9879070357467
0.165570038660593,19.9888511888565
0.190251127123096,19.9898073297983
0.218854469033065,19.990769852389
0.252148587391528,19.9917497733653
0.291204934000132,19.99276431988
0.33782739342591,19.9938480299586
0.373618687480173,19.9946214527355
0.410559923914452,19.9953948755124
0.443371543271149,19.9960852956666
0.472111298743025,19.9967186481837
0.497211009064159,19.9973258265512
0.51859027278381,19.9979304295978
0.535705658445834,19.9985563305004
0.547338291424959,19.9992369511313
0.550718586716818,20
