ecg,time
0.00365138371472756,15.0016791297736
0.00308329304284131,15.0065567452899
0.00255930404952261,15.0119129629178
0.00208237419851344,15.0178317394177
0.00165465452312097,15.0244256067261
0.00128874038200081,15.0315990768869
0.000990283521678812,15.039362597492
0.000798186481783763,15.0463741398617
0.000628587394934468,15.0547242386549
0.000493118395160049,15.0639264102069
0.000390374349311553,15.0739264102069
0.000321545353556046,15.0839264102069
0.000277139652325332,15.0939264102069
0.000250250607444513,15.1039264102069
0.000235946618253649,15.1139264102069
0.000230850282761658,15.1239264102069
0.00023275139022034,15.1339264102069
0.000240279951314539,15.1439264102069
0.000252669348034969,15.1539264102069
0.00026960774395928,15.1639264102069
0.000291159741992762,15.1739264102069
0.000317741929075424,15.1839264102069
0.000350145502992148,15.1939264102069
0.000389610518738537,15.2039264102069
0.000437969249851667,15.2139264102069
0.000495985601487493,15.2236342366631
0.000562410601131005,15.2326031593367
0.000638142548748301,15.240873798294
0.000724390911734818,15.2485014570376
0.000822575400424561,15.2555377951606
0.000934320513946282,15.2620305389234
0.00106147161184949,15.2680238361817
0.00120612108498664,15.273558576066
0.00137064105821981,15.2786726600133
0.00155772113325723,15.2834012452367
0.00177041336567846,15.287776972678
0.00201218595627669,15.2918301829722
0.00228698928815952,15.2955891187343
0.0025993366735184,15.2990801226749
0.00295440848732161,15.3023278432323
0.00335818659350965,15.3053554533081
0.00381763435922867,15.3081848900616
0.0043409457411763,15.3108371393972
0.00493790252973943,15.3133325979306
0.00562041162634196,15.3156915679166
0.00638024736660404,15.3178744124844
0.00722322150867843,15.3199038875953
0.00816426950630215,15.3218181815401
0.00922716103428195,15.3236587391609
0.0104549392162216,15.3254803483506
0.01195900955191,15.3273999650311
0.0142213727984848,15.3298685006727
0.0157272905658894,15.3313396457244
0.0173124914944549,15.3328107907761
0.0187547734995756,15.3341304147888
0.0200403472802812,15.3353381015659
0.0211893044958755,15.3364949353163
0.0221983683496776,15.3376432696991
0.0230477336423427,15.3388232271036
0.023698592565188,15.3400888589955
0.0240718524426498,15.3415463404854
0.023899812161368,15.3436029868677
0.023251522897319,15.3451997524855
0.0222437991322183,15.3467965181033
0.0210990466775497,15.3482444812349
0.0198224457791282,15.3496752250138
0.0184217143956963,15.3511451922932
0.0169063308970191,15.3526918253702
0.0159792522122911,15.3536364814825
0.0150762916332662,15.3545811375949
0.0127927074124366,15.3571781735163
0.0105580667643718,15.3601026454694
0.0087845295026818,15.3628089266412
0.0073619591968371,15.3653291286787
0.00613721861244944,15.3678448898821
0.00506175220155859,15.3704173568
0.00411434338536238,15.3730715758014
0.00330177435391593,15.3757479471084
0.00264728306908598,15.378271498471
0.00211150492877689,15.3806658866205
0.00166392827811157,15.3829638391168
0.00128139078849067,15.3852040992472
0.000945455602137075,15.387436835203
0.000639109358475549,15.3897429529898
0.000338489136255702,15.392316890647
0.000103265284990714,15.3945936355331
-0.000107684944494359,15.3968703804193
-0.000265806615946752,15.3987453824825
-0.000395046600663778,15.4003981345327
-0.000511767998837485,15.4019922926842
-0.000624330856162388,15.4036277544835
-0.000740233187115456,15.4054189343748
-0.000872469415601673,15.4076031927737
-0.0010945928684555,15.4116289601332
-0.00128335145061826,15.4154232020097
-0.00143070100457753,15.4186370453139
-0.00157521155137851,15.4220182223154
-0.00174056473134791,15.426204425103
-0.00194558731642,15.4320722442598
-0.00208348516950414,15.4370840806121
-0.00215894310398833,15.4416389593137
-0.00216045119226178,15.445725667364
-0.00207984423901432,15.4493953064324
-0.00191142001828852,15.4527053966671
-0.00165115848591924,15.4557149109797
-0.00129451951869106,15.4584858937113
-0.000833291161928348,15.4610837523603
-0.000252433267472869,15.4635756782953
0.000477144703285814,15.4660435208309
0.00142527829359076,15.468633689091
0.00273142889338662,15.4715626227045
0.00438266694743134,15.4746732736231
0.00638638176801049,15.4779204694094
0.00775298856185692,15.4798867028564
0.00926501803272642,15.4818529363034
0.0108374090133164,15.4836798842931
0.0124355396630054,15.4853269489941
0.0141714192652419,15.4869041096514
0.016050103274674,15.4883982400952
0.0181311757026051,15.4898393708892
0.0204357698738918,15.4912228879076
0.0230064730850557,15.4925569308618
0.0258751577888487,15.4938412575708
0.0290803378543442,15.4950779606092
0.0326681818829781,15.4962704450995
0.0366880072618616,15.4974211524281
0.0411938542857288,15.4985321930188
0.0462562596514039,15.4996077362238
0.0519542023393232,15.5006511105381
0.0583814706288148,15.5016658442239
0.0656507313285287,15.5026557103453
0.073897821213952,15.5036246595474
0.0832920882143628,15.5045772780416
0.0940457878069142,15.5055187102444
0.106430563747173,15.5064549434904
0.120804394317339,15.5073933254174
0.137656299788637,15.5083433707268
0.157689094472344,15.5093183247032
0.181059514459757,15.5103020408334
0.208184607842297,15.5112948154169
0.239838537754462,15.5123095027052
0.277117575196457,15.5133659610905
0.321626258767432,15.5144968160259
0.356295359726288,15.515316518688
0.392083353761801,15.51613622135
0.423922219157644,15.5168685583053
0.451800223996318,15.5175391869816
0.476077475512495,15.5181789548462
0.49666603188902,15.5188112522087
0.51306122987616,15.5194585833878
0.524181029076531,15.5201496503267
0.527711926142719,15.5209343087457
0.52052178498236,15.521745152466
0.501352746004166,15.5225842031322
0.468652952967946,15.523465982756
0.420537839208684,15.5244004801542
0.372969162773549,15.5251438453685
0.318084504103838,15.5258872105829
0.269556732882684,15.5264875403146
0.228951825536317,15.526969245518
0.193846931449502,15.5273817195454
0.162677254640623,15.5277527213544
0.134571408948785,15.5280977984648
0.108978769056049,15.5284271728511
0.0854909123621326,15.5287489558824
0.0637388178090983,15.5290712754286
0.0432694341196686,15.5294053819659
0.0231502427051848,15.5297763763428
0.0082297711767899,15.5300915296849
-0.000261929747433466,15.5302922929761
-0.00799668106700306,15.5304930562674
-0.0144561516282702,15.5306772509557
-0.0204335780529186,15.530864630977
-0.0264269028153261,15.5310733063121
-0.0321958385184257,15.5312997880756
-0.0375884880110093,15.5315420047261
-0.0425210075489471,15.5317992598126
-0.0469501839787703,15.5320717709219
-0.0508566886551016,15.5323604149818
-0.0544711742873048,15.532691896745
-0.0572423448002389,15.5330166321634
-0.0594971798250101,15.5333628632639
-0.061252831904072,15.5337339804056
-0.0625237256476764,15.5341337205465
-0.0633234211602642,15.534566701168
-0.0636631091382566,15.5350386919831
-0.0635498968388639,15.5355570174279
-0.062984313165019,15.5361314085442
-0.0619546694481885,15.5367760156621
-0.0604332382348403,15.5375095841987
-0.0583638127834936,15.5383608422272
-0.0556279620643357,15.5393805210451
-0.0519089014352443,15.540689659943
-0.0478633247867133,15.5420808427844
-0.0439582431285324,15.5434271089945
-0.0402390556223358,15.5447327070901
-0.0367277993141857,15.5459997615009
-0.0334355826751358,15.5472290328303
-0.0303669552565245,15.5484205920341
-0.0275219292299702,15.549574180166
-0.0248971111706352,15.5506893975372
-0.0224864690929413,15.5517658005447
-0.0202819366319832,15.5528029462183
-0.0182739315508742,15.5538004054345
-0.0164518154624533,15.5547577561119
-0.0148043025918385,15.5556745626058
-0.0132429028521708,15.5565971902406
-0.0117417646049823,15.5575435313759
-0.0103052075683633,15.5585153033357
-0.00893714207314842,15.5595146758461
-0.00764127311560613,15.5605441995454
-0.00642104849780491,15.5616069021215
-0.00527960657593765,15.5627064140373
-0.00421972174536081,15.5638471384951
-0.00324374752703414,15.5650344867337
-0.00235355665323726,15.566275213022
-0.00155047679798428,15.5675779077526
-0.000835219238188376,15.5689537531328
-0.000207795136722302,15.5704177406512
0.000332591308394836,15.5719907614743
0.000770188102760047,15.5736278955315
0.00111153606883479,15.57531568156
0.00137243238180566,15.5770725312551
0.00156723930855329,15.5789209606706
0.00170950762123808,15.5808913918392
0.00181242909403281,15.5830276422849
0.00188954325850078,15.5853986860738
0.00195620133666021,15.5881288976987
0.00203420358986774,15.591506579744
0.00213591312227201,15.5952629564866
0.00227342531042561,15.5993640187247
0.00243822059225385,15.6035222768942
0.00260973232458188,15.6074250185238
0.00278635602877397,15.6112183523278
0.00296763882763502,15.6149863092731
0.00315403601291555,15.6187829597984
0.00334682089492285,15.6226489260158
0.00354793271583327,15.6266183654632
0.00375984318292136,15.6307225098389
0.00398546995519912,15.6349918912283
0.00422814602139038,15.6394578552873
0.00449168699696638,15.6441539195507
0.00478061802693366,15.6491172217024
0.00510062408626285,15.6543897367559
0.00544391425860937,15.6597806285774
0.00579802979825306,15.6650496271762
0.00616900151001732,15.6702517170606
0.00655816452430367,15.6753615478946
0.00696989235496653,15.6803922411471
0.00740848489270022,15.6853496802539
0.00787884861099431,15.690241257514
0.00838620422825392,15.6950714493212
0.00893622994649451,15.6998427072116
0.00953513039649721,15.7045554280601
0.0101897694144873,15.7092085666836
0.0109152586615116,15.7138455983835
0.0117322283537756,15.7185153442306
0.0126578404642811,15.7232187454128
0.0137173964025444,15.727977917385
0.0149486487852755,15.7328403297713
0.0164195047662554,15.7379223455825
0.0182991601524516,15.7435755893746
0.0207176414434751,15.7499395433018
0.0222618745800231,15.7537003438798
0.0238331414790406,15.7574611444578
0.0252006324675772,15.7608390720236
0.0263536711956433,15.7639530734257
0.0273013019630671,15.7669664319233
0.0279890954018824,15.7698372507249
0.0284108010112114,15.7726465579614
0.0285516614314969,15.7755276592152
0.0283504556072721,15.778697044411
0.0275294381114427,15.7829211164295
0.0266668527601992,15.7857650448184
0.0256054794091906,15.7886089732074
0.0245302760111904,15.7911449678752
0.0234566410126737,15.7934932934243
0.0223820648021242,15.7957408686567
0.0213084090299415,15.7979327390479
0.0202391326693144,15.8000958078773
0.0191779424003556,15.8022483723708
0.0181283991889574,15.804404041254
0.0170938103383673,15.8065736288128
0.0160772043262213,15.8087662033859
0.01508133307237,15.8109897238997
0.0141086834408206,15.8132514554871
0.0131614861279993,15.8155582717377
0.0122417289053953,15.8179168747221
0.0113511666135004,15.8203339785287
0.0104913263221389,15.8228164823713
0.00966352470259985,15.8253715991072
0.00886886894521854,15.8280070298742
0.00809866635034508,15.8307669383691
0.00734274521506718,15.8337145312901
0.00660494575813115,15.8368716677272
0.00588913795186426,15.8402642991715
0.0051993832665977,15.8439224513249
0.00453988948403037,15.8478809856459
0.00391491990551388,15.8521806873872
0.00332865010161248,15.856869931397
0.00278496087085327,15.8620075008948
0.00228713875855641,15.8676680687203
0.00183768745666166,15.8739504298262
0.00144292665587937,15.8808973309883
0.00111235222216447,15.8883891685819
0.000907985822152039,15.8947067743789
0.000712030838145427,15.9029232526172
0.000559872200571424,15.9117202981708
0.000442383723642454,15.9212381448166
0.000357769438097738,15.9312381448166
0.000302191271532783,15.9412381448166
0.000267525180709967,15.9512381448166
0.000247879316938151,15.9612381448166
0.000239132644214293,15.9712381448166
0.000238535928123019,15.9812381448166
0.000244348516287138,15.9912381448166
0.000255554008372379,16.0012381448166
0.000271670418904324,16.0112381448166
0.000292642849118421,16.0212381448166
0.000318800385932693,16.0312381448166
0.000350866345735484,16.0412381448166
0.000390023030114326,16.0512381448166
0.000438046130590776,16.0612381448166
0.00049610045059361,16.071015717956
0.000562636284022618,16.0800498635771
0.000638520715090526,16.0883791015044
0.000724953872188585,16.0960594144756
0.000823353442025512,16.1031431439789
0.000935345350060238,16.1096786115455
0.00106277818514981,16.115710487813
0.00120774894747752,16.1212801260923
0.00137263572312837,16.1264258437741
0.0015601357582721,16.1311831728688
0.00177331055184268,16.1355850941432
0.00201564019062946,16.1396622588088
0.0022910898771578,16.1434431960593
0.00260419166397553,16.1469545153936
0.00296014993362177,16.150221116805
0.00336497774912596,16.1532664152502
0.00382568018073877,16.1561125871942
0.00435050835501464,16.1587808640594
0.00494932523591667,16.1612919079157
0.00563415826260933,16.1636663285252
0.00639625641226034,16.1658627988484
0.00724230894432849,16.1679067391365
0.00818783706675098,16.1698371953376
0.00925780024887326,16.1716971200456
0.0104982849839159,16.1735448522334
0.0120343240536078,16.1755124608489
0.0143686541584788,16.1780689108743
0.0158406438983408,16.1795185898054
0.0173796227213442,16.1809682687364
0.0187780228289881,16.1822756299996
0.0200269019011549,16.1834823457837
0.0211409383303827,16.1846449274758
0.0221139257131922,16.185804598134
0.0229236902950535,16.1870025913653
0.0235277084836228,16.1882973798783
0.0238362348869315,16.1898116718906
0.0234981720846727,16.1920760600315
0.0227723009721724,16.1936280298971
0.0217352011314253,16.1951799997628
0.0205659769316027,16.1966237327521
0.0192683254359369,16.1980656924509
0.01785123450665,16.1995548315499
0.0163237005944259,16.2011275999047
0.0157477646334133,16.2017214190321
0.0151830729636336,16.2023152381595
0.0129376137474614,16.2048562080164
0.0106765950295846,16.2077932972133
0.00887946340318041,16.2105142797993
0.00743991486696847,16.2130445655366
0.00620531208011689,16.2155599221128
0.005121262034559,16.2181302858384
0.00416612412984427,16.2207811467672
0.00335315272250051,16.2234303207184
0.00269561607631311,16.2259341266641
0.00215492894139752,16.2283175261947
0.00170106418267852,16.2306146396846
0.0013108505144401,16.2328676736997
0.000964827488775835,16.2351378069492
0.000642627774751529,16.2375400418469
0.000302747431758724,16.2404530098005
9.96883961208077e-05,16.2424213181363
-8.51973150219365e-05,16.244389626472
-0.000237471514992199,16.2461541136925
-0.00036836345391971,16.2477860977289
-0.000489568151253589,16.2494011366208
-0.000608961111425458,16.251097387945
-0.000735520635761735,16.2530177471035
-0.00089037894417771,16.2555503168415
-0.00112587929407248,16.259813669012
-0.00130784240897466,16.2634744805992
-0.00145744593832244,16.2667411371418
-0.00161198782007381,16.2703824158712
-0.0017949891194623,16.2751204046981
-0.00197873472097175,16.2806680097535
-0.00209703727200993,16.2855083041247
-0.00214808070505318,16.2898925012657
-0.00212147367800216,16.2938336590108
-0.00200990521700992,16.2973795280047
-0.00180840049705667,16.3005885433728
-0.00151324920472949,16.3035177004568
-0.00111922127309163,16.3062295544181
-0.000616177824734303,16.3087907508106
1.48475475118252e-05,16.3112728788507
0.000813422629430353,16.3137750052727
0.00188208383062107,16.3164961336526
0.00330531155926959,16.3194962582695
0.00508718215319273,16.3226835103206
0.00652830620931677,16.3249572080004
0.00813165594059153,16.3272309056802
0.00964924565319749,16.3291543704248
0.011215843955699,16.3309244465454
0.0128417452877226,16.3325513430763
0.0146038385107832,16.334102665671
0.0165359810595352,16.3355893038705
0.0186684199589814,16.3370158246649
0.0210410330545356,16.3383905374937
0.0236813591357062,16.3397120865192
0.0266316379822884,16.3409857485916
0.0299283472327617,16.3422121574183
0.0336173928055767,16.3433943155117
0.0377520982010086,16.3445355828424
0.042391991595141,16.3456388740639
0.0476055211207101,16.3467071215839
0.0534754390818365,16.347743885123
0.0601011240722743,16.348753000475
0.0676010407474977,16.3497383267561
0.0761197082505332,16.350704053873
0.0858362023101737,16.3516548414411
0.0969756598036525,16.3525959535466
0.109830904771089,16.3535338206274
0.124790826868366,16.3544763651609
0.142394322270084,16.3554340655891
0.163368786253058,16.3564191555935
0.187652431354558,16.3574065651251
0.215878391275212,16.3584065299201
0.248894796283278,16.3594335781691
0.287950459404769,16.3605113921855
0.333492505438978,16.3616462448588
0.374529604190993,16.362605622731
0.408639839870412,16.3633905268967
0.438149780744687,16.3640877315995
0.463942688954271,16.3647408418716
0.486139765708359,16.3653762072637
0.504427323551304,16.3660158937342
0.518024781015473,16.3666845616079
0.52533023302694,16.3674189417024
0.523254389672396,16.3682243865412
0.509791391868159,16.3690495386897
0.48360919379607,16.3699106695227
0.442966919653093,16.3708196895642
0.385927215345602,16.3717851480463
0.341471373108139,16.3724177391827
0.292317873904975,16.373050330319
0.248541078488456,16.3735801701166
0.211015504437637,16.3740233818882
0.178045525803721,16.3744135489013
0.148511038810462,16.3747708092586
0.121736167151399,16.3751075195684
0.0972579259481427,16.3754325782429
0.0747011660937646,16.3757538266229
0.0536800314655588,16.3760803194964
0.0336074892853246,16.3764273972809
0.0126914140841263,16.3768441267652
0.00163563543435064,16.3770978353487
-0.0057329499616351,16.3772848520052
-0.012467481094558,16.3774718686616
-0.0183473707923563,16.3776508772314
-0.0243561029175193,16.377852952283
-0.0302156099051591,16.3780740199998
-0.0357414569198817,16.3783113664656
-0.0408304511264289,16.3785638853241
-0.0454278891565266,16.3788315195488
-0.0495080461293081,16.3791149406394
-0.0531120330060277,16.3794208697704
-0.0560874382326559,16.3797376130064
-0.0585444864070407,16.3800750695805
-0.0604971147194965,16.380436128685
-0.0619595847965681,16.3808242213328
-0.0629459432610724,16.3812435798791
-0.0634685021213418,16.3816994668755
-0.0635362310369963,16.3821985142151
-0.063152804908329,16.3827492442378
-0.0623120249902001,16.383364041892
-0.0609935692409476,16.3840593224181
-0.0591552210210492,16.3848589122574
-0.0567110525508747,16.3858020677626
-0.053459962853487,16.3869689161253
-0.0493795883398835,16.3883818055623
-0.0454144636509325,16.3897451032316
-0.0416215250007306,16.3910661223499
-0.0380294998008688,16.3923478944296
-0.0346530716777097,16.3935916391341
-0.0314990423658197,16.3947976581179
-0.0285690235692041,16.3959658027456
-0.025860834114313,16.397095720227
-0.0233693794200165,16.3981869816235
-0.0210873085737788,16.3992391443318
-0.0190055625410863,16.4002517762238
-0.017113855914285,16.4012244559413
-0.015401105352692,16.4021567572885
-0.013818069862169,16.4030706755104
-0.0122933271158798,16.4040078838699
-0.0108316362534365,16.404969782145
-0.0094369705441946,16.4059584171991
-0.0081131192010756,16.4069761850327
-0.00686363328915626,16.4080259196173
-0.00569177436625579,16.4091110056474
-0.00460046079905702,16.4102355297524
-0.00359221176257964,16.4114044878554
-0.00266908852021674,16.4126240771095
-0.00183263195450018,16.4139021199081
-0.00108379422654562,16.4152487032163
-0.000422860423793278,16.4166771878766
0.000150648038388074,16.4182058968984
0.000629713404054573,16.4198286234114
0.00100583101751513,16.4214950083552
0.00129578393170369,16.4232233602742
0.00151433623053015,16.4250340149678
0.0016753086280794,16.4269539432954
0.00179197475029419,16.4290209667358
0.00187764575495938,16.4312924298786
0.00194674245446527,16.4338657505061
0.00201762101684889,16.4369416440335
0.00211227322171522,16.4406749183899
0.00223492548047331,16.4445975343595
0.00239065439986751,16.4487274134109
0.00255697540533095,16.4526206736958
0.00273108494010268,16.4564114963782
0.00291155092802927,16.4601810358036
0.00309807920776587,16.4639821929799
0.00329140796398351,16.4678550337364
0.00349311932667141,16.4718334629131
0.00370546583176771,16.4759486442894
0.00393124291695517,16.4802311508888
0.00417372161679409,16.4847124542775
0.00443668742206413,16.4894263004503
0.00472464671028974,16.4944101507492
0.00504326858145893,16.4997064156898
0.00538408892732791,16.5051119755288
0.00573538991151326,16.5103962921463
0.00610298848978776,16.5156113756522
0.0064883050073424,16.5207331727067
0.00689566781007581,16.5257749679236
0.00732933503483798,16.530743072231
0.00779412654759979,16.5356450142881
0.00829516311010035,16.5404854377943
0.00883800574469683,16.545266933601
0.0094287282420778,16.5499900259001
0.0100740484690526,16.5546537567659
0.0107860272447941,16.5592845569879
0.0115873539563693,16.5639503457012
0.0124938277650369,16.5686471039038
0.0135294809632563,16.5733949923982
0.0147292394397047,16.5782352170245
0.0161537544296871,16.5832674265791
0.0179435998649231,16.5887766360014
0.0203601210113999,16.5952549509609
0.0219335698754659,16.5991220978649
0.0235493505640055,16.6029892447689
0.0249618440076211,16.6064433881446
0.0261533101782948,16.6095927707408
0.0271398232561525,16.612614429543
0.0278780762325878,16.6155095999156
0.0283503899799816,16.6183212487467
0.0285470172316033,16.6211765949562
0.0284194969635937,16.6242649550599
0.0277750553133503,16.6281299640397
0.026941393759724,16.6311368690243
0.0258703206471347,16.6341437740089
0.0247903892496154,16.6367563257603
0.0237164655512405,16.6391407757179
0.0226420195418407,16.6414078235201
0.0215678166023407,16.6436104379356
0.0204970969326667,16.645778736061
0.0194335610359447,16.6479326302029
0.0183808201008656,16.6500866512228
0.0173422466023199,16.6522521790868
0.0163209362318106,16.654438643084
0.0153197067247583,16.6566542339011
0.0143411076787945,16.6589063626802
0.013387429873429,16.6612019864288
0.0124607193242332,16.6635478408834
0.0115627854530895,16.6659506376634
0.0106952088899252,16.6684172357033
0.00985935745769638,16.6709547758038
0.00905638714234936,16.6735708550935
0.00828327308626637,16.6762882373713
0.00752350264698374,16.6791885779615
0.00678094437922639,16.6822927111335
0.00605941467863996,16.6856257091564
0.0053629312156684,16.6892165486309
0.00469567234681448,16.6930988352291
0.00406189770496193,16.6973117990291
0.00346582092038448,16.7019017677334
0.00291141593006158,16.7069246439767
0.00240213786992093,16.712450590816
0.00194068890431245,16.7185716001192
0.00152944963738572,16.7254030684215
0.00118405215266753,16.732756652637
0.000911450462468451,16.7407366589024
0.000738678173554261,16.7478308504966
0.000579033788441457,16.7566391385157
0.000459458547214707,16.7658283551875
0.000369162540423838,16.7758283551875
0.000309431256777886,16.7858283551875
0.000271723642831467,16.7958283551875
0.000249818952438415,16.8058283551875
0.000239332021031033,16.8158283551875
0.000237312010711851,16.8258283551875
0.000241869331493544,16.8358283551875
0.00025187515085832,16.8458283551875
0.000266755363757308,16.8558283551875
0.000286369744975327,16.8658283551875
0.000310957321648313,16.8758283551875
0.000341134850417542,16.8858283551875
0.000377946712127582,16.8958283551875
0.000422977559873028,16.9058283551875
0.000478411856580526,16.9158045700112
0.000542038124910534,16.9250309044051
0.000614624375504964,16.9335386065951
0.000697299850131279,16.9413842317713
0.000791414295989981,16.9486209327032
0.000898521437881618,16.9552977882229
0.00102038897523833,16.9614601699644
0.00115902220421498,16.9671500829926
0.0013166946554843,16.9724064535831
0.00149598447304313,16.9772653798406
0.00169981613478875,16.981760365154
0.00193151168707475,16.9859225387842
0.00219485164722328,16.9897808630062
0.0024941506655417,16.9933623311486
0.00283435304649721,16.9966921702296
0.00322115548145107,16.999794055426
0.00366117058379878,17.0026903414236
0.00416214925211372,17.0054023295038
0.0047332963101544,17.0079506002036
0.00538573787951839,17.0103554564739
0.00611998707438716,17.0126005818274
0.00693375291602505,17.0146798461714
0.00783991646811066,17.0166309648176
0.00885869291652151,17.0184937991374
0.0100248258083889,17.0203170019753
0.0114110792086122,17.0221802249039
0.0133250813350075,17.0243875741152
0.0149673104601115,17.0260635076301
0.016736592191885,17.0277394411451
0.0182584054105041,17.0291360127954
0.0195935063528982,17.0303763695167
0.0207871489077132,17.031546705959
0.0218441853719534,17.0326948509136
0.0227502573184495,17.0338601067703
0.0234741815891458,17.035089386105
0.0239557155934129,17.0364627290523
0.0240390519454933,17.0382047811018
0.0235434082403078,17.0399860686668
0.0225554359831406,17.0417673562317
0.0214432431726021,17.0432569868479
0.0202069403260289,17.0446874434757
0.0188448780551127,17.0461417481284
0.0173658908400777,17.047661277565
0.0162621117811396,17.0487859696505
0.0151802982969727,17.049910661736
0.0141580573974583,17.0510274528374
0.0118438893559251,17.0538084660243
0.00981144135842272,17.0566381276488
0.00819338407446466,17.059260134456
0.00686409099811503,17.0617580853806
0.00570197409165527,17.0642929997918
0.00467973965859872,17.0668953677989
0.00377866054833738,17.0695887225528
0.00303025431238753,17.0722182082177
0.00242397852844795,17.0747043519897
0.00192375661190064,17.077075814175
0.00150199239990687,17.0793688325553
0.00113728287982906,17.0816287644599
0.000811524534366823,17.0839213265445
0.000504835189380638,17.0863749244256
0.000169069977204976,17.089473726926
-1.40696352938996e-05,17.0913864974659
-0.000181669007699178,17.0932992680058
-0.000321789134331409,17.0950322725183
-0.000444466301051782,17.0966599503158
-0.0005595968581691,17.0982891817454
-0.000674558469286096,17.1000213486478
-0.000798905682918183,17.1020210682788
-0.000960011425531412,17.1048188242203
-0.0011590036597494,17.1086159929451
-0.00131072547635547,17.1117804125125
-0.00144579840664127,17.1148052870261
-0.00158911734938416,17.118247213975
-0.00175663234061902,17.1226308381454
-0.00194643318122452,17.1283442389935
-0.00206956920770779,17.1332538153338
-0.00212792855319181,17.137711330989
-0.00211050925155195,17.1417133765201
-0.0020095233032664,17.1453139178737
-0.0018197029096811,17.148566485422
-0.00153679991723626,17.1515336907644
-0.00115564728097085,17.1542766285786
-0.000667321333943108,17.1568579022182
-5.51614407692521e-05,17.1593452824233
0.000719033947717227,17.1618408318241
0.00172824754133226,17.1644785733377
0.00310283714591231,17.1674401346098
0.00482554414219412,17.1705683436053
0.00632284772339345,17.1729505063817
0.00799951612067835,17.1753326691581
0.00959334246654522,17.1773477446636
0.0111628184592665,17.179113187098
0.0128209459763437,17.1807652785205
0.0145919596495042,17.1823176485477
0.016532697482171,17.1838053742084
0.0186729476283665,17.1852326552695
0.0210508068392359,17.1866068332581
0.0236974440864965,17.1879286897061
0.0266536601374809,17.1892025595693
0.029954753423921,17.1904286467067
0.0336501322104364,17.1916111852517
0.0377917455659232,17.1927529012284
0.0424392663185864,17.193856681648
0.0476603919144897,17.1949252668108
0.0535405884355511,17.1959627085526
0.0601786849331612,17.1969726251774
0.0676937375178783,17.1979588868012
0.0762311531101182,17.1989257121426
0.0859704219000453,17.1998777213967
0.0971399233579953,17.2008203761476
0.110035111242867,17.2017601567253
0.125050034579852,17.2027051432407
0.142732874141975,17.2036660856369
0.163769216920975,17.2046531048299
0.188130557321128,17.2056430215153
0.216458365574923,17.206646353388
0.249615808363055,17.2076781039577
0.288886147277436,17.208763002187
0.334391964541113,17.2098999509446
0.374818804799484,17.2108499800053
0.408547878669973,17.2116319770361
0.43777937579515,17.2123292170785
0.463321419642965,17.2129836392349
0.485265238529473,17.2136211125563
0.503277235318701,17.2142636042635
0.516553657172734,17.2149358824692
0.523451967350335,17.2156750579648
0.520876998137621,17.2164826625539
0.506898901347936,17.2173102612516
0.480174752754119,17.2181738332614
0.438968178154581,17.2190849854267
0.381360275688713,17.220052315976
0.337419182147802,17.2206747657561
0.289003919210808,17.2212972155362
0.245826139078048,17.2218205747699
0.208708821525682,17.2222602943708
0.176036477384987,17.2226485280205
0.146736553596324,17.2230047132533
0.120155479438811,17.2233409051439
0.0958410852351154,17.2236658797855
0.073422753935478,17.2239874698148
0.0525127993969911,17.2243148741539
0.0325053583459744,17.2246640531101
0.0114508784465623,17.2250885990397
0.00120198250397415,17.2253263955796
-0.00610710862793888,17.2255133070802
-0.0127871011861582,17.2257002185809
-0.0186784617207209,17.2258810265638
-0.0246780608852967,17.2260846172673
-0.030514901227934,17.2263070128297
-0.0360106146855722,17.226545607162
-0.0410656452086036,17.2267993640787
-0.0456274501120131,17.2270682743304
-0.0496716061796377,17.2273530456914
-0.053359127581286,17.2276722264574
-0.05627994380532,17.2279914847024
-0.0586824283832194,17.2283315651727
-0.0605822936076719,17.2286955717851
-0.0619938308316719,17.2290870094169
-0.0629309479350625,17.2295102006287
-0.0634056704140344,17.2299705249863
-0.063426517243956,17.2304747716179
-0.0629965015061116,17.2310316830336
-0.0621081005833504,17.2316541405864
-0.0607394177262905,17.2323590005754
-0.0588453894457166,17.2331711009732
-0.0563338387608597,17.2341319456237
-0.0529836503173224,17.2353288515649
-0.0489155105326247,17.2367356991651
-0.0449690389451,17.2380942667412
-0.041198592535023,17.2394108703449
-0.0376310588918747,17.2406883328497
-0.0342801278905161,17.2419277730275
-0.0311519613476671,17.24312944536
-0.028247704229661,17.2442931819087
-0.0255648129947666,17.2454186248246
-0.0230979071575489,17.2465053469098
-0.0208394139044873,17.2475529098042
-0.0187801092550551,17.2485608854801
-0.01690959436739,17.2495288547835
-0.0152167186840925,17.2504563905595
-0.0136398920943786,17.2513730216499
-0.0121219678692555,17.2523130698198
-0.0106675663432222,17.2532780337265
-0.00928064156316944,17.2542699977565
-0.00796495663237552,17.2552914050291
-0.00672403032434958,17.2563451483861
-0.00556108541246589,17.2574346870163
-0.00447899467295629,17.2585642032427
-0.00348022452597298,17.2597388181487
-0.00256677584064147,17.2609648961916
-0.00174012075878975,17.2622504894303
-0.00100113320634131,17.2636060106598
-0.00035000855034912,17.2650453026372
0.000213836682618018,17.2665874407441
0.000680505353794254,17.2682144239475
0.00104635216144,17.2698872068595
0.00132784348080508,17.2716240870104
0.00153962390626805,17.2734460400351
0.00169543676551785,17.2753810372819
0.00180853889223387,17.2774686174765
0.00189232238379353,17.2797693945134
0.0019614990147745,17.2823881262848
0.00203539567283833,17.2855478102217
0.00213343785413784,17.289283172979
0.00226200073452398,17.2932549326283
0.0024194819817465,17.2973249710258
0.00258757976031641,17.3011910593247
0.00276357981516801,17.3049731356907
0.00294611025307578,17.3087451398429
0.00313496129328854,17.3125568267712
0.00333095660063287,17.3164467579199
0.00353576193904657,17.3204481229434
0.00375171380762254,17.3245918327887
0.00398169587998825,17.3289085146767
0.00422908111519073,17.3334299343214
0.00449779263048375,17.3381903921927
0.00479254490894561,17.3432281404422
0.00511934071169502,17.348586600461
0.00546257471699986,17.3539495319848
0.00581868521568777,17.3592223210797
0.00619086686155735,17.364413172738
0.0065817910615272,17.3695156260671
0.00699560874096574,17.3745388814562
0.0074367845279734,17.3794904425751
0.00791020507658334,17.3843769994625
0.00842110989262066,17.3892027966245
0.0089751869917841,17.393969922359
0.00957866651761794,17.3986785253178
0.0102384533593021,17.4033274045713
0.0109710511407825,17.4079675958689
0.0117961839764042,17.4126395618745
0.0127316537317907,17.4173464793329
0.0138034183427717,17.4221115717284
0.0150507166803741,17.4269856417449
0.016545424326056,17.4320942177871
0.0184736695536746,17.4378283243848
0.0208929576779757,17.4441378872019
0.0224219406875057,17.4478465567984
0.0239704461936616,17.4515552263949
0.0253160870470786,17.4548983347488
0.0264499193991129,17.4579966109272
0.0273776601954815,17.4610075151405
0.0280398167255374,17.4638676686904
0.0284354899525448,17.4666776260915
0.0285471117724715,17.4695746699523
0.0283056105289888,17.4727929236671
0.0273881874670378,17.4771954911665
0.0265110630801925,17.4799684938947
0.0254519785218498,17.4827414966228
0.0243782166964392,17.4852411787515
0.0233045543061289,17.4875713457002
0.0222299416593804,17.4898089988941
0.0211566763285188,17.4919955103877
0.0200883027406097,17.4941561909582
0.0190285208104867,17.4963085122261
0.0179808594131722,17.4984656053334
0.0169485871150158,17.5006379913739
0.0159346931103861,17.5028345537249
0.0149418909969635,17.5050631363411
0.0139726310541179,17.5073309372236
0.0130291089576932,17.5096447987923
0.0121132785809536,17.5120114216788
0.0112268629250451,17.5144375417235
0.0103713580454393,17.516930104415
0.00954805100223715,17.5194963916018
0.0087580211302195,17.5221441963339
0.00798958139703914,17.5249294282702
0.00723596647675617,17.5279051838711
0.00650100194713986,17.5310939276159
0.00578858716582517,17.5345221406231
0.00510280671830656,17.5382204803197
0.00444788194473132,17.5422245668276
0.00382807314286405,17.546576130657
0.00324752625791197,17.551324806763
0.00271005951062986,17.5565311629641
0.00221885293212532,17.562272678792
0.00177629258792956,17.5686523086836
0.00139081433835383,17.5756696073599
0.00114949168360478,17.5811475646811
0.000960073987088539,17.5866255220023
0.000764094907410037,17.5941642758926
0.000602263571496493,17.6026196644902
0.000473374544312854,17.6119393899413
0.000377446979345515,17.6219393899413
0.00031358929568073,17.6319393899413
0.000272805791728215,17.6419393899413
0.000248553953209976,17.6519393899413
0.000236200973196419,17.6619393899413
0.000232604959623348,17.6719393899413
0.000235730274616339,17.6819393899413
0.000244333519832895,17.6919393899413
0.000257743431533152,17.7019393899413
0.000275727111604493,17.7119393899413
0.000298423362430061,17.7219393899413
0.000326328237590836,17.7319393899413
0.000360328343677593,17.7419393899413
0.00040178915530884,17.7519393899413
0.000452719579518937,17.7619393899413
0.000512716341160087,17.7714564418074
0.000581301733224568,17.780242628222
0.000659461081967103,17.788345173845
0.000748455249106283,17.7958184609546
0.000849751403985922,17.8027130576073
0.000965023867247688,17.8090756998616
0.00109617336280403,17.8149496391598
0.00124535479936974,17.820374947422
0.00141501135809283,17.825388777321
0.00160791329378704,17.8300256005337
0.00182720527538791,17.8343174315981
0.00207646205854172,17.8382940396643
0.0023597580258693,17.8419831473646
0.00268175240067388,17.8454106292387
0.00304779936518389,17.848600719339
0.00346409187758409,17.8515762326255
0.00393785458396875,17.854358811771
0.0044776136683448,17.8569692251643
0.00509358759576068,17.8594277516596
0.00579672739771795,17.861750040103
0.00657525054283605,17.8638905359461
0.00743974809807429,17.8658864575282
0.00840676189159168,17.8677763616059
0.00950308553730936,17.8696032951555
0.0107793045724016,17.8714278764865
0.0123930865329687,17.8734120604113
0.014207441441609,17.8753571070403
0.0157428766620409,17.8768541021175
0.0173610785640927,17.8783510971946
0.0188058353219735,17.8796688908765
0.0200919229042636,17.8808739610144
0.0212412456075866,17.8820288869358
0.022250361944052,17.8831759249771
0.0230992309585695,17.8843552442536
0.0237486541625284,17.8856212467687
0.0241184703721963,17.8870815235368
0.0239328119635992,17.8891564692757
0.0232768817981887,17.8907451849485
0.0222661312321303,17.8923339006214
0.0211179288556058,17.8937791952712
0.0198374695132509,17.895209307593
0.0184326950560591,17.8966797192182
0.0169130486943705,17.8982277528814
0.0159731219974517,17.899184170813
0.01505929446411,17.9001405887446
0.0127705964745673,17.9027461664325
0.0105410270751892,17.9056682041668
0.00877184564477809,17.9083718884568
0.00735242823014172,17.9108903258635
0.00612957268933265,17.9134062031966
0.00505576934329995,17.9159790894918
0.00410988066138488,17.9186339536419
0.00329458453107438,17.9213258449642
0.00263861448981073,17.9238638222513
0.00210222394950584,17.9262714283524
0.00165453835002967,17.9285819132615
0.00127219598143338,17.9308344262859
0.000936635897838029,17.933079642977
0.00063085928308769,17.9353985328877
0.000331241100094477,17.937984507346
9.60389091434804e-05,17.9402809856021
-0.000114719957444352,17.9425774638581
-0.00027230524090876,17.9444650851392
-0.000400947492389506,17.9461273963674
-0.000517061486801347,17.9477301311985
-0.000628990871856605,17.9493738884527
-0.000744191954600847,17.9511735201074
-0.000875541098780951,17.9533666733917
-0.00109523773810853,17.9573905707676
-0.00128163295727018,17.961175067979
-0.00142707497130402,17.9643782174176
-0.00156970406890738,17.9677476372085
-0.00173231900298617,17.9719050300512
-0.00193524207106668,17.9777775442155
-0.00207088671506625,17.9827841125591
-0.00214421601959508,17.9873361484974
-0.00214368774867583,17.9914212762857
-0.00206111347786838,17.995089970945
-0.00189071584985166,17.9984005516557
-0.00162839284417685,18.0014115758039
-0.00126944222251768,18.0041854313124
-0.000805550247665172,18.0067870286325
-0.000221734054767599,18.0092825869669
0.000510604581295785,18.0117520417716
0.00145927373107892,18.0143368039339
0.00276937101206106,18.017266138202
0.00442140811563447,18.0203657113467
0.00642220179986298,18.0235897492489
0.00779531898600483,18.0255513484616
0.00931616106392111,18.0275129476744
0.0109009397961568,18.0293379875034
0.0125117927239331,18.0309827883271
0.0142610134915336,18.0325571020575
0.0161549663483209,18.0340491762764
0.0182518503497059,18.0354876507812
0.0205739445716532,18.036868773085
0.0231632847241132,18.0382002222236
0.0260530972096686,18.0394823617274
0.0292811218854676,18.0407168066837
0.0328945280224194,18.0419072405403
0.0369432260593935,18.0430561417514
0.0414818317374821,18.0441656208704
0.0465817085963995,18.0452398608747
0.0523228042524872,18.0462822023052
0.0588001340189806,18.047296191378
0.0661279567166072,18.0482856282351
0.0744444039840105,18.0492545241945
0.0839213938116132,18.0502074847456
0.0947754439221806,18.0511497610883
0.107284246963892,18.0520874738022
0.121815121423253,18.0530281791896
0.138872520210833,18.0539817415024
0.159186901110301,18.0549620313189
0.182804722094233,18.0559480146946
0.210231503219387,18.0569442958143
0.242265220347512,18.0579643423812
0.280050481235086,18.0590293103251
0.32475588743322,18.0601617293691
0.367576742323349,18.0611704021375
0.402807725545588,18.0619799781309
0.433095365025731,18.0626890855669
0.459574669166937,18.0633478343645
0.482471435603302,18.063984485495
0.501548738375109,18.0646213491813
0.516127930787717,18.065282084014
0.524813229366187,18.0660000385314
0.524703951711676,18.0668036222253
0.513394234927226,18.0676236949277
0.489636282165086,18.0684771727863
0.451749107324454,18.0693768124633
0.397810624617024,18.0703314189656
0.352283580171295,18.0709994707085
0.301260125165328,18.0716675224513
0.255929979092369,18.0722203706099
0.217377545483664,18.0726764802906
0.183680122065379,18.0730742996202
0.153581201778076,18.0734363339264
0.126343873983693,18.0737759520296
0.101477739409125,18.074102466055
0.0785985581109132,18.0744237601155
0.0573308388193494,18.0747484506486
0.0371500791470261,18.0750900224616
0.0166985020593074,18.0754855101004
0.00814703940019684,18.0756717570095
0.000267937933376471,18.0758580039185
-0.00755652343168163,18.0760603775645
-0.0140747518796704,18.0762456388616
-0.0200334867445771,18.076431745444
-0.0260270362100879,18.0766394560369
-0.0318091314783358,18.0768651881438
-0.0372223972176991,18.0771067559482
-0.042179738354482,18.0773633903573
-0.0466360055711929,18.0776352603067
-0.0505707309840035,18.0779232062961
-0.0542173253841201,18.0782539572874
-0.0570165580193427,18.0785777922652
-0.0592990202493075,18.0789229694044
-0.0610817998073311,18.0792928435596
-0.0623792924280495,18.07969110445
-0.063205123763004,18.0801223085898
-0.0635706510462795,18.0805921442351
-0.0634832714530763,18.0811078228778
-0.0629440859605362,18.0816788311949
-0.0619422255964393,18.0823191145611
-0.0604512630860201,18.0830469681081
-0.0584175241507769,18.0838902428842
-0.0557287780537962,18.0848975106084
-0.0520925952234956,18.0861812812496
-0.0480437422286998,18.0875753162185
-0.0441316186674885,18.0889238597982
-0.0404035801533563,18.0902314532742
-0.0368825632445297,18.0915003630512
-0.0335801519249953,18.0927314245481
-0.0305011887149739,18.0939247482204
-0.027645887817237,18.0950800957294
-0.0250110046861312,18.0961970777996
-0.0225906196535432,18.0972752558216
-0.0203767502232152,18.098314189144
-0.0183598741821389,18.0993134499459
-0.0165293925768578,18.1002726174958
-0.0148740412042947,18.1011912582772
-0.0133098339464217,18.1021128734527
-0.0118056566903338,18.1030581503908
-0.0103658793099298,18.1040287694615
-0.00899441959347384,18.1050268857419
-0.0076949923268935,18.1060550313744
-0.00647105717556784,18.1071162107965
-0.00532576651350133,18.1082140248729
-0.00426191097616626,18.1093528385473
-0.00328186260665261,18.1105380126726
-0.00238751501704693,18.1117762336296
-0.00158021923592362,18.1130759977317
-0.000860712580446328,18.1144483521523
-0.000229035351208939,18.1159080856871
0.000315575162229586,18.1174757668289
0.000758302077310492,18.1191111127946
0.00110402103364076,18.1207962780939
0.0013686402296928,18.1225496415221
0.00156657238417966,18.1243934456696
0.00171140427011547,18.1263576733773
0.00181634340180572,18.128485367817
0.0018949106973342,18.1308439673961
0.00196235519490378,18.1335541509188
0.00204003319469433,18.136891246699
0.00214161531201946,18.1406424157427
0.00227816012186613,18.1447192921579
0.00244102479551887,18.1488294891386
0.00261189676129789,18.1527115370983
0.00278880074482817,18.1564980780127
0.0029709964274628,18.1602675235752
0.00315875302736018,18.1640715517708
0.00335322994308243,18.1679496476557
0.00355630745241133,18.1719354268431
0.00377044083050909,18.1760599289801
0.00399856293043532,18.1803537184504
0.00424404763412202,18.1848483450319
0.00451078142424438,18.1895777191643
0.00480340471603203,18.1945795473692
0.00512779187266568,18.1998965393413
0.00547171887211692,18.2052671540438
0.00582778125621031,18.2105344883678
0.0062003780079691,18.2157264611857
0.00659162246283332,18.2208286797616
0.00700577189562873,18.225851929821
0.0074472379000189,18.2308029631311
0.00792094027000394,18.2356887289238
0.00843213822329958,18.2405135175144
0.00898654806817728,18.2452795275753
0.00959042521920748,18.249986971887
0.0102506978674349,18.2546346895797
0.0109841618057796,18.2592753093256
0.0118103376411351,18.2639475148247
0.0127471519986984,18.2686549318407
0.0138206752916146,18.2734209601366
0.0150704013256457,18.2782969685284
0.0165688916975025,18.2834100704613
0.0185053011609149,18.2891583539662
0.0204125458147251,18.2941821456879
0.022001933910001,18.298081924065
0.0236315287703332,18.301981702442
0.0250326922285241,18.3054172986793
0.0262130708538639,18.3085560280728
0.0271883515236755,18.3115748194442
0.0279119636482429,18.3144624490697
0.0283696798433059,18.317272909266
0.0285503624200464,18.320134965604
0.0284021627204445,18.3232449265799
0.0277123544830639,18.3271984385622
0.0268707409386872,18.3301574145793
0.0258030889022872,18.3331163905964
0.0247247225877756,18.33570735055
0.0236509262413733,18.3380819006432
0.0225764407907642,18.3403436302675
0.0215023640998065,18.342543257537
0.0204320025527786,18.3447100162348
0.0193690608107213,18.3468633809895
0.0183171385042178,18.3490176327934
0.0172795916520264,18.3511839985124
0.0162594997614421,18.3533718064576
0.0152596639398693,18.3555891813956
0.0142826180286759,18.3578434900402
0.0133306386734493,18.3601416579045
0.0124057559992429,18.3624904060413
0.0115097670163303,18.364896432629
0.0106442393356828,18.3673665923328
0.00981052697776919,18.3699080308914
0.00900977394300897,18.372528351429
0.00823735911785966,18.3752562226474
0.00747852500778406,18.3781682054459
0.00673713153821521,18.3812853909963
0.00601700794692128,18.3846330701869
0.00532218549132739,18.388240464524
0.00465684992802844,18.3921414857169
0.00402526287331994,18.3963757364352
0.00343162988692922,18.4009900306528
0.00287990283975025,18.4060409547815
0.00237349606513471,18.4115997373572
0.00191506210795578,18.4177599858589
0.00150797669602752,18.4246195266537
0.00116632079977006,18.4320067627608
0.000896901523189689,18.4400278195349
0.000726858947536658,18.4471353657522
0.000569121174313775,18.4560051009151
0.000451590194212414,18.4652328743739
0.000363344209009103,18.4752328743739
0.000305037524337214,18.4852328743739
0.000268312924076278,18.4952328743739
0.000247084821115256,18.5052328743739
0.000237065854928611,18.5152328743739
0.00023537389585982,18.5252328743739
0.000240166788916427,18.5352328743739
0.000250348576343117,18.5452328743739
0.000265368499820221,18.5552328743739
0.000285103628365274,18.5652328743739
0.000309806614284678,18.5752328743739
0.000340105929980374,18.5852328743739
0.000377057256824092,18.5952328743739
0.000422257645777493,18.6052328743739
0.000477922793002185,18.615211809965
0.000541821868300308,18.624439880978
0.000614729637380952,18.6329484114946
0.000697783304607911,18.6407941501005
0.000792341099479982,18.6480304166373
0.000899966135951694,18.6547064304301
0.0010224367006037,18.6608676818274
0.00116177011523268,18.6665562769641
0.00132025362805401,18.6718112288566
0.00150048111841288,18.6766687107242
0.00170539521487954,18.681162291873
0.00193833908230397,18.6853231605481
0.00220311803835105,18.6891803331967
0.0025040762041668,18.692760854601
0.00284619341759316,18.6960900029168
0.00323520997340865,18.6991915070975
0.00367779316908584,18.702087782056
0.0041817643138112,18.7048002011944
0.00475642189183329,18.7073494374426
0.00541302175136879,18.7097559201376
0.00615089004102072,18.7119998983593
0.00696896422674857,18.7140796907741
0.00788054930866855,18.7160333813798
0.00890662048152443,18.7179014979973
0.0100836843415126,18.7197344136695
0.0114899845539257,18.7216172469328
0.0134744771028292,18.7238949265915
0.0149965767228271,18.7254481214568
0.0166242775354455,18.727001316322
0.0181323467769366,18.7283975652623
0.0194649989442197,18.7296452134966
0.0206567018086206,18.7308211798999
0.0217123944901189,18.7319734464252
0.0226182232026602,18.7331413918027
0.0233437185511419,18.7343714632515
0.0238302411381872,18.7357418299411
0.0239290892361194,18.7374664289317
0.0234490488758991,18.739265504342
0.0224675096862132,18.7410645797522
0.0213605033888951,18.7425619560526
0.0201308126736005,18.7439954714037
0.0187761974171665,18.7454507743562
0.0173054307620857,18.7469697089629
0.0161757184694025,18.7481260550547
0.0150692815180075,18.7492824011465
0.0140289415841406,18.7504266502558
0.0117220884863095,18.7532209664699
0.00971441749801912,18.7560392544544
0.00811451688727053,18.7586520914605
0.00679428349394779,18.7611518751055
0.00563938678835314,18.7636904444992
0.00462317826503954,18.7662977366239
0.00372717548603852,18.7689972448994
0.00299535894564702,18.7715855563983
0.00240031678169118,18.7740352881702
0.00190731127364842,18.7763762511544
0.00148992029850234,18.7786445741945
0.0011273340918436,18.7808868561747
0.000801378299265395,18.7831738096535
0.000490370846633776,18.7856545961369
0.000203239468639282,18.7882662306096
1.37377212922504e-05,18.7901940114702
-0.000159466682641865,18.7921217923308
-0.000301820647361581,18.7938397780432
-0.00042652331455756,18.795454148962
-0.00054370219754706,18.7970722023838
-0.000660856295119048,18.798795015109
-0.000787822343811516,18.8007886251159
-0.000953418906974991,18.8035990743365
-0.00115301387770346,18.8073222521748
-0.00130578603473957,18.8104351686572
-0.00144281526499445,18.8134323355309
-0.00158859672782196,18.8168504570842
-0.00175946481495978,18.8212090013233
-0.00195658249495129,18.8269633229881
-0.00208606983422545,18.8318959549243
-0.00215099194441066,18.8363759686049
-0.00214025557754131,18.8403975883403
-0.00204599909267456,18.8440159323792
-0.00186297491146004,18.847282227278
-0.00158723409779951,18.8502577600922
-0.0012137348462859,18.8530057461503
-0.00073365690762731,18.8555899020431
-0.000129731962427801,18.8580815357571
0.000633798600694366,18.8605755488909
0.00163431455212693,18.8632217693474
0.00299305436242402,18.8661833343805
0.0047039545285692,18.8693306066945
0.00620912400238007,18.8717605692457
0.00789269227484449,18.8741905317969
0.00946907387665603,18.8762175306226
0.0110167368084787,18.877990265889
0.0126433523119855,18.8796421129006
0.0143867844613708,18.8812006465221
0.0162938621302771,18.8826919203308
0.0184012471103742,18.8841256076358
0.0207407122026073,18.8855047189979
0.0233475599673675,18.8868326582156
0.0262596043793236,18.8881122461763
0.0295109388056991,18.889343437185
0.0331508465087933,18.8905307793443
0.0372296829372686,18.8916767939126
0.0418045139207323,18.8927840619609
0.0469437017842272,18.893855867306
0.0527296106311251,18.8948959796704
0.0592583967905876,18.8959079736394
0.0666456946993926,18.8968956654265
0.0750323705688098,18.897863194059
0.0845912971705537,18.8988150219913
0.0955426867847891,18.8997565016854
0.10816878102648,18.9006938182885
0.122843543253186,18.9016346250466
0.140081852593094,18.9025889513849
0.160631729838432,18.9035709588604
0.184476141861174,18.9045568831113
0.212172778843261,18.905553738602
0.244534496681947,18.9065752732584
0.282735616618075,18.9076433150232
0.327752944676338,18.9087760051467
0.370044634416775,18.909768192005
0.40494794799139,18.9105692012596
0.435014773086399,18.9112738736398
0.461301873946637,18.9119302127856
0.484003145672415,18.912565860612
0.502858510437385,18.9132030428823
0.517158534703303,18.9138657301739
0.525445117682666,18.9145883362945
0.524744713666942,18.9153920411053
0.512781744237862,18.9162133287607
0.488280808083645,18.9170689532882
0.449538170557848,18.9179714382673
0.394621589166119,18.9189294763806
0.34935548328834,18.9195870104125
0.298833252456704,18.9202445444444
0.253923633407895,18.9207905644722
0.215645395875324,18.9212428311783
0.182139536991986,18.9216383467103
0.152188102720395,18.9219989155054
0.125071136166647,18.9223376081641
0.10030567270068,18.9226636140242
0.0775098110082778,18.9229848003569
0.0563050826379247,18.9233098988564
0.0361501980786744,18.923652882402
0.0155797377385802,18.9240537429766
0.0013999026790816,18.9243748029196
-0.005936335360464,18.9245613109718
-0.0126418881633316,18.924747819024
-0.0185337396372583,18.9249275109019
-0.0245442054878783,18.9251300994473
-0.0303984615141304,18.9253515623489
-0.0359150362364897,18.9255892461134
-0.040992495555969,18.9258420824251
-0.0455771760638976,18.9261100391563
-0.0496439811426408,18.9263938057792
-0.0532411608731774,18.9267008035118
-0.056201991928425,18.9270180341415
-0.0586445797024131,18.9273560409136
-0.0605830301683205,18.9277177397647
-0.0620316339641439,18.9281065837468
-0.0630044174629169,18.9285268330376
-0.0635136240011964,18.9289837867857
-0.0635680986828557,18.9294841267794
-0.0631713178706225,18.9300364462382
-0.0623166758866405,18.9306532837846
-0.0609833286470956,18.9313512036221
-0.0591280969842082,18.9321543655131
-0.0566629266916878,18.9331027675117
-0.0533800058935151,18.9342788901044
-0.0493006804727828,18.9356902283411
-0.0453383094561387,18.9370524509005
-0.0415491373467172,18.9383725429987
-0.0379613878041292,18.9396534603995
-0.034589490121335,18.94089638375
-0.0314400954200852,18.9421015942775
-0.0285147138159299,18.9432689327884
-0.025811089868144,18.9443980412272
-0.0233240727720815,18.9454884882061
-0.0210462691158878,18.9465398300856
-0.0189685887455679,18.9475516342795
-0.0170807249695403,18.9485234790234
-0.01537158176852,18.9494549374118
-0.0137897427433865,18.9503693249775
-0.0122663064897945,18.9513070251853
-0.0108060075112104,18.9522694550998
-0.00941281579013538,18.9532586680303
-0.00809051612284755,18.9542770681006
-0.00684265415272056,18.9553274994497
-0.00567248496560501,18.9564133596506
-0.00458291936342233,18.9575387518819
-0.00357646782323461,18.9587086937078
-0.00265518172668175,18.9599294111911
-0.00182059081667426,18.9612087663684
-0.00107363473569533,18.9625569023605
-0.000414584455129054,18.9639872628906
0.000157054744712962,18.9655182999869
0.000633750651686714,18.967141750613
0.00100786948840512,18.9688092334356
0.00129613484644965,18.9705390518174
0.0015132866515149,18.9723516511288
0.00167312777188562,18.9742741728943
0.00178892281748555,18.9763447304138
0.00187398761397325,18.9786212204936
0.00194277667768205,18.9812022879914
0.00201377481291878,18.9842922960542
0.00210852407882146,18.9880255965025
0.0022316568959943,18.9919564503621
0.00238966606223716,18.9961389085516
0.00255718536456773,19.0000551705169
0.00273167345017335,19.0038538382058
0.00291193685333436,19.0076223194332
0.00309784200079722,19.0114161451189
0.00329023112397788,19.0152766256827
0.0034907453560547,19.01923825588
0.00370166080947694,19.0233324161072
0.0039257697101718,19.0275896500107
0.00416631856177463,19.0320412162233
0.00442704294607385,19.0367204478151
0.00471236035175779,19.0416642001431
0.00502778437080902,19.0469140964051
0.00536897615626077,19.0523344169288
0.00571949097545739,19.0576162383036
0.00608671607055882,19.0628376969978
0.00647131485648331,19.0679637756022
0.00687774153204692,19.0730099480302
0.00731016328379287,19.0779815655631
0.0077734112978865,19.0828865243108
0.00827259758318305,19.087729595323
0.00881327881625551,19.0925135740636
0.00940151559295365,19.0972391301566
0.0100440037307618,19.1019054020313
0.0107520186563932,19.1065343239264
0.011548778330687,19.1111988802819
0.012449723090291,19.1158937245487
0.0134785501814452,19.1206385128971
0.0146694461137683,19.1254728141252
0.0160812168917421,19.1304920285049
0.0178476121051707,19.1359652984066
0.0202631688039478,19.142476200325
0.0218455538004297,19.146376335462
0.0234745693066328,19.150276470599
0.0248993368071789,19.153752665943
0.0261009018611931,19.1569122984684
0.0270974268785377,19.1599368657676
0.0278487544249499,19.1628390498482
0.0283340582085254,19.1656520030354
0.0285447988822133,19.1685016967202
0.0284353710726622,19.1715716849146
0.0278285939493744,19.1753651139396
0.0270018084024574,19.1784155787274
0.025927211732299,19.1814660435152
0.0248457288170745,19.1840974899143
0.0237716628468192,19.1864903050826
0.0226972629909756,19.1887617376013
0.021622985986135,19.1909667443358
0.0205520115208847,19.193136199865
0.0194880356105305,19.1952903850384
0.018434679361757,19.1974440368016
0.0173953290822246,19.199608659045
0.0163730949182691,19.2017937582889
0.0153708089450692,19.2040075727069
0.0143910343429622,19.2062575413827
0.0134360749848811,19.2085506343541
0.0125079896671001,19.2108935880805
0.0116085995263672,19.2132931061951
0.010739496905098,19.2157560290228
0.00990206053526895,19.2182894703255
0.00909745687599089,19.2209009902008
0.00832374568985124,19.2236093297477
0.00756318206229152,19.2264996182516
0.00681963890639465,19.229592479837
0.00609692131093495,19.2329128001035
0.00539903766942575,19.2364893326914
0.0047301599094086,19.2403554169496
0.00409454628600047,19.2445499558402
0.00349641736356885,19.2491188527458
0.00293976564333383,19.2541174199795
0.00242808090781532,19.2596149091809
0.00196410830453958,19.2657019331657
0.00154980540952994,19.2725005641341
0.00120117297590427,19.2798243860034
0.000924265383932903,19.2877684134079
0.000736579696542108,19.295386067035
0.000581708649880821,19.3039268594396
0.000460023280194491,19.3132297335811
0.000369502731607924,19.3232297335811
0.000309608869974756,19.3332297335811
0.000271790376176447,19.3432297335811
0.000249821027527914,19.3532297335811
0.00023930845053856,19.3632297335811
0.000237294588730315,19.3732297335811
0.000241884743483075,19.3832297335811
0.000251947751545819,19.3932297335811
0.000266909733254626,19.4032297335811
0.000286632933586995,19.4132297335811
0.000311361097752262,19.4232297335811
0.000341718390101624,19.4332297335811
0.000378760246305241,19.4432297335811
0.000424087689712209,19.4532297335811
0.000479836993330468,19.4631941836048
0.000543824909063174,19.4724086394042
0.000616827881149952,19.4809048769388
0.000699983346449935,19.4887395209766
0.000794649798148214,19.4959657626841
0.000902390695746127,19.5026327078378
0.00102498481485855,19.508785746648
0.00116445009994753,19.5144668963369
0.00132307455877801,19.519715090366
0.00150345292907341,19.5245664305246
0.00170852882566361,19.5290544217818
0.00194164649213414,19.533210194213
0.00220661246194602,19.5370627113252
0.00250777215537535,19.5406389694816
0.00285010683154601,19.5439642023455
0.00323935829586615,19.5470620976394
0.00368219539058157,19.549955031552
0.00418644094937284,19.5526643405043
0.00476139477119131,19.5552106611741
0.00541831345449143,19.5576143858659
0.00615643477869272,19.5598555448532
0.0069747374873971,19.5619326675796
0.00788650283502153,19.5638837524535
0.00891265219627672,19.5657492019699
0.0100895574915337,19.5675791625459
0.0114950113164187,19.5694581456387
0.0134748808499716,19.5717274719217
0.0149987581686989,19.5732801525065
0.0166290622799502,19.5748328330912
0.0181416668761564,19.5762298927045
0.0194780181814977,19.5774773677327
0.0206730714233328,19.578652596157
0.0217320661195457,19.579803732779
0.0226413214760488,19.5809701370965
0.0233705616055225,19.5821980662417
0.0238615607114029,19.5835650715004
0.0239674681601872,19.5852819438577
0.0234930697486997,19.5870838112012
0.0225130625454963,19.5888856785446
0.0214065359312922,19.5903832881251
0.0201771461620659,19.5918160225149
0.0188224745495332,19.5932702443855
0.0173512716710419,19.594787934855
0.0161922346757741,19.5959727940943
0.0150582070678969,19.5971576533336
0.0139867588394641,19.5983377469411
0.0116735052535317,19.6011478752201
0.00967584346825586,19.6039619639687
0.00808427435250712,19.6065703429274
0.0067685769598171,19.6090704397125
0.00561748696748035,19.6116101447672
0.00460462447603284,19.6142191440266
0.0037116105281124,19.6169209049284
0.00298006708110989,19.6195203338896
0.00238563267579203,19.6219807792063
0.00189340195895452,19.6243322807895
0.00147677732478389,19.6266117054534
0.00111485417000638,19.6288664912787
0.000789354685345266,19.6311688893794
0.000478318802776841,19.63367250709
0.00019705642400572,19.636253348459
7.98598754125312e-06,19.638192523197
-0.000164749029666815,19.6401316979351
-0.000306506660605267,19.6418578261648
-0.00043072143488939,19.643480665214
-0.000547474110941036,19.6451080121062
-0.000664244308450573,19.6468417394903
-0.0007908924119508,19.6488500679283
-0.000956616924879703,19.6516919190363
-0.0011538545176292,19.6554096520357
-0.00130487409350608,19.6585181037866
-0.00144079108146846,19.6615213013434
-0.00158540246241517,19.6649483028105
-0.00175447092925245,19.6693123807188
-0.00194790975672801,19.675044688766
-0.00207407750078096,19.679964157094
-0.00213552563360927,19.6844321815108
-0.00212122610201041,19.6884437721506
-0.00202333313279186,19.6920543308116
-0.00183659438927152,19.6953148730303
-0.00155692850295224,19.6982872837661
-0.00117914516908124,19.7010343320093
-0.00069425665454554,19.7036193201329
-8.48224053308782e-05,19.7061130560331
0.000684754826172859,19.7086087692402
0.0016910918174415,19.7112534570752
0.00305925863612973,19.7142171446537
0.0047768998733804,19.7173550317055
0.00627367393836368,19.7197526541254
0.00794873812359931,19.7221502765452
0.00953640607585301,19.7241735060364
0.0110946559493163,19.725940966353
0.0127391565066168,19.7275937754808
0.0144977423927612,19.729149026268
0.0164235371681928,19.7306385905556
0.0185492057932849,19.7320689329103
0.020909986879332,19.7334454803614
0.0235389094144299,19.7347701953543
0.0264754044355643,19.7360467376734
0.0297541284238237,19.7372751734888
0.0334246597303213,19.7384599649819
0.0375381292033606,19.7396037072546
0.0421531131743604,19.7407091685282
0.0473375017044516,19.7417793036994
0.0531754342939246,19.7428180546307
0.059764560990943,19.7438290221958
0.0672224293139635,19.7448160544016
0.0756924481146893,19.7457833369115
0.0853511302189692,19.7467354165497
0.0964234103792207,19.7476777232656
0.109198917189016,19.7486166070191
0.124062950303835,19.7495599680435
0.141549208428686,19.7505182516017
0.162396931853832,19.7515044895792
0.186532979525269,19.7524928868991
0.214586035686778,19.753493661384
0.247397802205373,19.7545212927484
0.28620424054848,19.7555992612831
0.33148080298181,19.7567343518045
0.372643613817641,19.7577014673374
0.406849792172843,19.758491520716
0.436427964588247,19.7591921276035
0.462282348785123,19.7598475858277
0.484545977044606,19.7604844666334
0.502916809768627,19.7611248198967
0.516633069768729,19.761793028389
0.524136491998815,19.7625249280544
0.522378164760657,19.7633309802495
0.509283087931057,19.7641559364425
0.483538191850624,19.7650161047984
0.443422135042618,19.7659234739838
0.38701258525487,19.766886638013
0.342520426051227,19.7675239302262
0.293227531215928,19.7681612224395
0.249324307027492,19.7686942531781
0.211717603053474,19.7691393913622
0.17869188534875,19.7695308066361
0.149114786295914,19.7698889261466
0.122305311751672,19.770226232318
0.0977986404429987,19.7705516734061
0.0752198546025785,19.7708730878727
0.0541862701435595,19.7711994490297
0.034123539328307,19.7715457625752
0.0133275111648379,19.771958751824
0.0017438323192438,19.7722239769042
-0.00563741678615816,19.772411359056
-0.0123832371200626,19.7725987412078
-0.018253924917126,19.7727775018658
-0.0242587117884344,19.7729794323371
-0.0301179080163262,19.7732004273944
-0.0356456105827357,19.7734377392024
-0.0407377664556344,19.7736902406832
-0.0453391672893103,19.7739578617661
-0.0494237808574256,19.7742412648976
-0.0530510973555037,19.7745489431453
-0.0560282832162778,19.7748657770308
-0.0584870302661604,19.7752032902154
-0.0604414894564009,19.7755643912448
-0.06190590070689,19.7759525061499
-0.0628942989564929,19.7763718603331
-0.0634189983563451,19.7768277068083
-0.0634889881851658,19.7773266639159
-0.0631079876822209,19.7778772339697
-0.0622698984912464,19.7784917626977
-0.0609545534715578,19.7791866178293
-0.0591200401539723,19.7799855246479
-0.0566811218010024,19.7809275108632
-0.0534388705406668,19.7820919736016
-0.0493599998063854,19.7835050075101
-0.0453961726724696,19.7848682912034
-0.0416044312361565,19.7861892217485
-0.0380135728707906,19.7874708577442
-0.0346383029385722,19.7887144343183
-0.0314854247224753,19.7899202625316
-0.0285565429201984,19.791088199791
-0.0258494663046901,19.792217897382
-0.0233590898785492,19.7933089292197
-0.0210780533949294,19.7943608547346
-0.0189972902364996,19.795373243234
-0.0171065094722854,19.796345674317
-0.0153946243473048,19.797277722328
-0.0138117073795786,19.7981917958076
-0.012287112909894,19.7991291658845
-0.0108255924600636,19.8000912378471
-0.00943111810253056,19.8010800606883
-0.00810747737456825,19.8020980330512
-0.00685821921534083,19.8031479921819
-0.00568660257646963,19.8042333268943
-0.00459554269778211,19.8053581290854
-0.00358755505507278,19.8065274015437
-0.00266469656585625,19.8077473505708
-0.00182850300901866,19.8090258110833
-0.00107992051084072,19.810372887761
-0.000419226908718847,19.8118019675624
0.000154065345039976,19.8133314141085
0.000632774546582658,19.8149543770305
0.00100865734161859,19.8166211156933
0.00129848258475288,19.8183499374215
0.00151701155374925,19.8201612127849
0.00167806552380822,19.82208196665
0.0017949238093596,19.8241501126635
0.00188091187326585,19.8264231695385
0.00195048290236752,19.8289989412202
0.00202207837017443,19.8320792873145
0.00211758310678507,19.8358125748965
0.00224125590256091,19.8397378022548
0.00239750022169406,19.8438565026889
0.00256443164517565,19.8477447624878
0.00273924761555741,19.8515338980558
0.00292050764315041,19.8553037290691
0.00310791592666092,19.8591065823587
0.00330221460354792,19.8629822480609
0.00350499521611044,19.8669644973809
0.00371852507624929,19.8710844415614
0.00394561981899876,19.8753726539424
0.00418957700381452,19.879860645334
0.00445421831881289,19.8845822424613
0.00474410202274508,19.8895750245186
0.0050649748738446,19.894881551368
0.00540691174934437,19.9002756951707
0.00575986106907618,19.9055553784261
0.00612910362164486,19.9107633463058
0.00651632276462258,19.9158792282977
0.0069258183778328,19.9209153975935
0.00736190355358028,19.9258783937548
0.00782942614270891,19.9307755381438
0.00833354778997338,19.935611363443
0.00887987410194506,19.9403883295764
0.00947453134725478,19.945106858563
0.0101242981875087,19.9497659231117
0.0108425921155616,19.9543995915115
0.011651190098041,19.9590672014518
0.0125664997674631,19.9637669641317
0.0136131157538127,19.9685198891739
0.0148272095153759,19.9733699341169
0.0162725861763178,19.9784240028181
0.0181018981240686,19.9839952000244
0.0205196387473581,19.9904212966381
0.0224851090431563,19.995210648319
0.023487148697328,19.9976053241595
0.0244759622102528,20
