ecg,time
0.00747761965298207,15.0004401541017
0.00843152376492074,15.0022432695088
0.00950363829357501,15.0039710754754
0.0107315375965216,15.005669027356
0.0122174867187019,15.007438882015
0.014317769955873,15.0095841391674
0.0159408418139054,15.0110573746897
0.0176782957545807,15.0125306102121
0.0192930570326614,15.0138574000323
0.0207226890466395,15.0150433589569
0.022004986013889,15.0161622387558
0.0231460968492385,15.0172602039852
0.0241321411451786,15.0183754510612
0.0249317387675578,15.0195536314387
0.0254838132012189,15.0208729487416
0.025629885484776,15.0225547697183
0.0251626306197277,15.0242812555358
0.0241738021258967,15.0260077413532
0.0230438584720914,15.0274533991648
0.0217758216021228,15.0288478377791
0.0203683309461808,15.0302725119935
0.0188301558002381,15.031768847659
0.0171677041358568,15.0333751371902
0.0154184807844519,15.0351413764459
0.0132162661033303,15.0376019932389
0.0113549979934331,15.0399590728109
0.00978369605395515,15.0422193861687
0.00844174798865069,15.0444139738335
0.00727518470111057,15.0465859152663
0.00623098677910536,15.0488078495175
0.00523578669983925,15.0512545477468
0.00431851629580516,15.0539006185377
0.00379261327188836,15.0556461226477
0.00332221038571382,15.0573916267578
0.00293489412637832,15.0589917186525
0.00259780056303421,15.0605323015021
0.00228574974859763,15.062108946123
0.00197921284026769,15.0638313388068
0.00165044740311466,15.0659197840191
0.00119750642448662,15.06935394843
0.000827858795860681,15.0728677546982
0.000563271146597002,15.0760036734419
0.000339551783722543,15.0793046153046
0.000126877598778062,15.0833943900902
-5.69414544830527e-05,15.0885458425766
-0.000158568687849167,15.0937351462185
-0.000177909363793924,15.0983663637629
-0.000128558362278658,15.1025472627085
-1.55794720490469e-05,15.1063115009604
0.000159800747340725,15.1097076528315
0.000398496391617312,15.1127802399104
0.000703766116105401,15.1155810257705
0.00108170036666087,15.118163718836
0.00154222270486664,15.1205824295072
0.00210214268524099,15.1228975858202
0.00279024102851033,15.1251807942834
0.00366209654202191,15.1275369589809
0.00485134410547899,15.1301758591028
0.00641778107847695,15.1330555573387
0.00787131479383117,15.1353396555029
0.00954012001155918,15.1376237536672
0.0111350376218557,15.1395246791171
0.0127788656913962,15.1412363940312
0.0144948288836237,15.1427936135161
0.0163809036577816,15.1442797818471
0.0184462926799102,15.1456865502202
0.0207535150987438,15.1470408177631
0.0233275762125721,15.1483396923867
0.0262167087504777,15.1495914072243
0.029461272158895,15.1507975291563
0.0331030100764703,15.1519590929167
0.0371988611213943,15.1530804638413
0.0418080374540645,15.1541642145854
0.0469960423717837,15.1552125595435
0.052846596653491,15.1562293118532
0.0594559860471984,15.1572178436704
0.0669386517278865,15.1581816291267
0.0754328737353986,15.1591244007992
0.0851065248072352,15.1600501065915
0.0961700140939072,15.1609633490931
0.108888403324152,15.1618693152553
0.123602593800137,15.1627740770667
0.140763246764433,15.1636850962454
0.160987635161094,15.1646120635722
0.184929162100304,15.1655598479738
0.21263909327891,15.1665105269191
0.244821817431832,15.1674735322124
0.282426586939295,15.1684629792993
0.326932358396106,15.169504964461
0.364422604534254,15.1703120320765
0.403664887190336,15.1711190996919
0.438387373377776,15.1718270708087
0.468650310226497,15.1724645635033
0.495177917191198,15.1730680798652
0.51805835519873,15.1736628489097
0.536900940537399,15.1742720352858
0.5507351554078,15.1749253976166
0.557345749445049,15.1756780003695
0.553037598662503,15.1764586254962
0.536534921483556,15.1772717261327
0.506205389838167,15.1781352475534
0.459863210247431,15.1790624204974
0.398831662188593,15.1800090219822
0.351125472657861,15.1806404913693
0.298762131510922,15.1812719607563
0.252692378289812,15.1817973638902
0.213581171045311,15.1822345133923
0.179426946294027,15.1826183226847
0.148949372876545,15.1829694280444
0.1213906868218,15.1833003461248
0.0962382767002413,15.1836200675721
0.0730785900672013,15.1839365933781
0.0514815638137552,15.1842594169669
0.0307640820740489,15.1846055011739
0.00854724890184762,15.1850368253355
-0.00096142598126576,15.1852494521272
-0.00956030724563265,15.1854620789189
-0.0161401300623128,15.1856414868043
-0.0222099655080766,15.1858232968191
-0.0283144674619865,15.1860261927182
-0.0342042495715978,15.1862467113165
-0.0397202477252832,15.1864827624389
-0.0447740026929753,15.186733616033
-0.0493194584656783,15.1869994498484
-0.0533361906945895,15.1872810970095
-0.0568195169040501,15.1875799259481
-0.0597674312137714,15.1878978020349
-0.062186875587536,15.1882378189064
-0.0640682706787065,15.1885983107994
-0.0654559640233931,15.1889864624527
-0.0663644367969008,15.1894067768158
-0.0668057048954259,15.1898648304584
-0.0667878388696219,15.190367702206
-0.0663127550871684,15.1909245779967
-0.0653705032810606,15.1915491522653
-0.0639350729570872,15.1922594635321
-0.0619530438664458,15.1930828516015
-0.0593123633111161,15.1940668738574
-0.0557226288546907,15.1953208906945
-0.0515725140601358,15.1967287094317
-0.0475465520503309,15.1980913602306
-0.0436972753724944,15.1994138672622
-0.0400509777406398,15.200698466044
-0.0366215145443887,15.2019459248756
-0.0334155281175148,15.2031562742075
-0.0304347531884006,15.2043291938684
-0.0276772395879181,15.2054642172653
-0.0251381463032562,15.2065608370206
-0.0228103553882863,15.2076185552704
-0.0206849989639485,15.2086369010758
-0.0187519322706674,15.2096154269998
-0.0170001605801232,15.2105536915062
-0.0153965239258966,15.2114639193386
-0.0138501460706388,15.21239728807
-0.0123659604627641,15.2133550666962
-0.0109479486835622,15.214339252021
-0.00959991557425145,15.2153521780428
-0.00832543328580514,15.2163966020442
-0.00712778930210724,15.2174758124271
-0.00600993189079041,15.2185937729033
-0.00497441291163067,15.2197553195092
-0.0040233274547865,15.2209664367804
-0.00315824907399794,15.2222346567959
-0.00238015815504803,15.2235696570773
-0.00168935866792338,15.224984197121
-0.00108537389318973,15.22649566937
-0.000571251671596411,15.2281129564776
-0.000162923278134039,15.2297711424899
0.000156976287291086,15.2314885983209
0.000403501638805683,15.2332848614471
0.000590742499521662,15.2351856720973
0.000732215475844926,15.2372267653992
0.000841445853063317,15.2394615824525
0.000933007970534622,15.2419790199944
0.0010251387921466,15.2449553072936
0.00114395475889521,15.2486922460932
0.00128525688026385,15.2525567614772
0.0014717918038164,15.2569600538321
0.00170491948671982,15.2619102078353
0.00194873149929232,15.2668103544043
0.00219997664849825,15.2717666056662
0.00242577184158329,15.276203780068
0.00262972277950726,15.2802134762335
0.00282510470788485,15.2840490008151
0.00301851394509144,15.2878238104431
0.00321424251366612,15.2916032270445
0.00341569877261909,15.2954331381666
0.00362594472544765,15.2993502598525
0.00384795974265107,15.3033866460525
0.00408484410044435,15.3075727268935
0.00433997336087597,15.3119390155883
0.00461717134999484,15.3165174137904
0.00492097309599278,15.3213425657982
0.00525705976399062,15.3264531628341
0.00562571563864544,15.3317896269273
0.00600450281815419,15.3369782543515
0.00640313235693988,15.3421220365103
0.00682153500536064,15.3471756452392
0.00726459785893824,15.3521536586921
0.00773681501985645,15.3570585227197
0.00824365013014937,15.3618970533829
0.00879095093080617,15.3666730004485
0.00938509489461227,15.3713881021744
0.0100330495963314,15.3760421443343
0.0107472063261992,15.3806626466166
0.0115502196529228,15.3853161382143
0.0124579312641821,15.389998445782
0.0134942138099934,15.3947286595741
0.0146935431962687,15.3995460785635
0.016115226685085,15.4045457905452
0.0178943974438953,15.4099967636672
0.0203272478606108,15.4164778938526
0.0219181020921588,15.4203523103538
0.0235561325119754,15.424226726855
0.0249899539714024,15.4276817174561
0.0261999651992579,15.4308226482671
0.0272042826396751,15.4338296070007
0.0279616032445813,15.4367114297678
0.0284525313276251,15.4395047405916
0.0286687379170586,15.4423345304411
0.0285649024334186,15.4453825810481
0.0279651109552915,15.449145999884
0.0271420838255767,15.4521773736641
0.0260698882879565,15.4552087474443
0.0249899938747823,15.4578222604002
0.0239172146054201,15.4601973849506
0.0228438235935629,15.4624510925759
0.0217702909924958,15.4646381122921
0.0206998153078882,15.4667891140762
0.0196361077123032,15.4689241950833
0.0185827993689141,15.4710579204369
0.0175432833205429,15.4732016234005
0.0165206739169839,15.475364634247
0.0155178352112476,15.4775550027346
0.0145373653126971,15.4797799612165
0.0135815619426008,15.4820462489372
0.0126524765305645,15.4843603421065
0.0117519242355624,15.4867286448526
0.0108814915944025,15.4891576524425
0.0100425517945524,15.4916540771175
0.0092362652637234,15.4942250094667
0.00845591190188188,15.496905474205
0.00768820222296207,15.4997654441852
0.00693694274714659,15.5028255253295
0.00620594886970629,15.5061103088891
0.00549925079594876,15.5096482138717
0.00482105626535644,15.513472198035
0.00417568154890735,15.5176206850682
0.00356743325070932,15.52213891735
0.00300041284653318,15.5270812853748
0.00247825681637834,15.5325154487896
0.00200385038820835,15.5385296611215
0.00157924409223295,15.5452428719969
0.00122081961292285,15.5524714626754
0.000922536885126352,15.5603029733052
0.000687727476243264,15.568870892534
0.000538244735174069,15.5766088513334
0.000401430612459493,15.5863063959019
0.000302474160531436,15.5962964931429
0.000233591593599636,15.6062964931429
0.000186298556513164,15.6162964931429
0.000154368860392388,15.6262964931429
0.000133231555669003,15.6362964931429
0.000119619978276925,15.6462964931429
0.000111272782542003,15.6562964931429
0.000106655066218773,15.6662964931429
0.000104731210808117,15.6762964931429
0.000104802288848491,15.6862964931429
0.000106398385291811,15.6962964931429
0.000109208900124434,15.7062964931429
0.000113036689224776,15.7162964931429
0.000117767096446233,15.7262964931429
0.000123346864589716,15.7362964931429
0.000129770085075936,15.7462964931429
0.000137069401375774,15.7562964931429
0.000145311250738456,15.7662964931429
0.000154594337465087,15.7762964931429
0.000165050887272854,15.7862964931429
0.000176850562935194,15.7962964931429
0.0001902072464758,15.8062964931429
0.000205389249842924,15.8162964931429
0.000222733962913369,15.8262964931429
0.000242668572489886,15.8362964931429
0.000265739425592259,15.8462964931429
0.000292654093354214,15.8562964931429
0.000324342620008453,15.8662964931429
0.000362048550171769,15.8762964931429
0.000407467513849033,15.8862964931429
0.000462559882699642,15.8962296153816
0.000525318943655282,15.9054206770488
0.000596554653301659,15.9139007881954
0.000677372195969991,15.9217246556017
0.000769059842122903,15.9289439749876
0.000873087155241178,15.9356067003549
0.000991120566247442,15.9417573162418
0.00112504742827656,15.9474371112172
0.00127700535071741,15.9526844114401
0.00144941621949451,15.9575347875547
0.00164502417659981,15.9620212634407
0.0018669426796404,15.9661745218015
0.00211870897408975,15.9700230950997
0.00240435030373047,15.9735935404796
0.0027284670811771,15.9769106237491
0.00309633692550246,15.9799975145352
0.00351405134466426,15.982875984254
0.00398869593062797,15.9855666253508
0.00452859932806897,15.9880891151287
0.00514368967808576,15.9904625424032
0.00584546997869416,15.9927042332927
0.00662044683777597,15.9947652199902
0.00747784517733258,15.9966799060942
0.00843177567232303,15.998482997866
0.00950392344755547,16.0002107899387
0.0107318687833646,16.0019087416328
0.0122179128229796,16.0036786429879
0.0143184635314735,16.0058240854471
0.0159415517979352,16.007297283001
0.0176789980287557,16.0087704805548
0.0192936696696934,16.0100971906875
0.02072323663707,16.0112831097424
0.0220054771102335,16.0124019728413
0.0231465292816299,16.0134999372786
0.0241325060066164,16.014615199458
0.0249320189061509,16.015793417358
0.0254839732799555,16.0171128179886
0.0256298062679779,16.0187948990413
0.0251623272368104,16.020521245727
0.0241734102339999,16.0222475924127
0.0230434155994955,16.0236932065439
0.021775325568748,16.0250876464021
0.0203677846745474,16.0265123402875
0.0188295625340987,16.0280087093018
0.0171670650792572,16.0296150476688
0.0154178161704082,16.0313813586081
0.0132156979143721,16.0338419524796
0.0113545129096706,16.0361990112757
0.00978327908095639,16.0384593094505
0.00844138589886339,16.0406538891598
0.00727486552804994,16.0428258334647
0.00623069793850961,16.0450477913512
0.00523550628045744,16.047494575768
0.00431826981078651,16.0501406754402
0.00379241021727223,16.0518861179401
0.00332204440311645,16.05363156044
0.00293475140616933,16.055231621198
0.00259767153936302,16.0567722023997
0.00228562856087855,16.0583488709088
0.00197909385291176,16.0600713252404
0.00165031961583613,16.0621599307814
0.00119739599565659,16.0655941604745
0.000827801097584034,16.069107640161
0.00056324016957388,16.0722433420494
0.000339531391612268,16.0755441995345
0.000126863468518032,16.0796339252133
-5.69532854304769e-05,16.0847854053968
-0.000158577585145801,16.0899746950922
-0.000177916329380775,16.0946059048433
-0.000128563833743157,16.0987867963849
-1.55836800857877e-05,16.1025510280011
0.00015979767250932,16.1059471735762
0.000398494565629032,16.1090197570222
0.000703765496724172,16.111820538685
0.00108170100295728,16.1144032280142
0.00154222479235797,16.1168219359616
0.00210214623759503,16.1191370894115
0.00279024422747141,16.1214202893668
0.00366209980726371,16.1237764482605
0.00485134877183668,16.1264153454882
0.00641778884404115,16.1292950424683
0.00787131822232391,16.1315791282718
0.0095401177505042,16.1338632140753
0.0111350347107056,16.1357641352525
0.0127788672042948,16.1374758517896
0.01449482473402,16.1390330639863
0.016380892475229,16.140519225685
0.0184462818827268,16.1419259939277
0.0207535032503098,16.14328026068
0.0233275659015541,16.1445791360599
0.0262166985575978,16.1458308509893
0.0294612630166927,16.1470369734199
0.0331030010548923,16.1481985373715
0.0371988520411497,16.1493199084832
0.0418080281638116,16.1504036594195
0.0469960331081473,16.1514520046495
0.0528465870377653,16.1524687571804
0.0594559759710998,16.1534572892251
0.0669386411124106,16.1544210749179
0.0754328625348472,16.1553638468384
0.0851065133198065,16.1562895529202
0.0961700022188214,16.1572027957096
0.108888391377559,16.1581087621906
0.123602582447783,16.1590135243664
0.140763237300151,16.1599245439778
0.160987630073705,16.1608515118426
0.184929157315198,16.1617992966194
0.212639089702328,16.1627499760132
0.244821816911516,16.1637129818635
0.282426593103615,16.164702429674
0.326932379249233,16.1657444158559
0.364422590280174,16.1665514833755
0.403664827914673,16.1673585508952
0.438387275998589,16.1680665221022
0.468650182481883,16.1687040150556
0.495177761212751,16.1693075317535
0.518058170363578,16.1699023011836
0.536900724273866,16.1705114879948
0.550734902671918,16.1711648508257
0.557345450319669,16.1719174541821
0.55303724920236,16.1726980796718
0.536534521216675,16.1735111806696
0.506204937680592,16.1743747024068
0.459862707303547,16.1753018755689
0.398831095293045,16.1762484774556
0.351124982779077,16.1768799456193
0.298761745003712,16.177511413783
0.252692070860614,16.1780368161693
0.213580915507758,16.1784739652873
0.17942672766188,16.1788577743774
0.1489491828947,16.1792088796308
0.121390520279391,16.1795397976658
0.0962381298450148,16.1798595191141
0.0730784597809966,16.1801760449669
0.0514814468246544,16.1804988686647
0.0307639728203491,16.1808449531162
0.00854711903712643,16.1812762782852
-0.000961494020760108,16.181488904008
-0.00956032348564999,16.1817015297307
-0.0161401401808051,16.1818809375784
-0.022209975357072,16.1820627477191
-0.0283144759267665,16.1822656437336
-0.0342042558898934,16.1824861624396
-0.039720251490515,16.1827222136673
-0.0447740037164123,16.1829730673682
-0.049319456690007,16.1832389012946
-0.0533361861421759,16.1835205485732
-0.0568195096451437,16.183819377638
-0.0597674211267188,16.1841372538617
-0.0621868571649154,16.1844772699769
-0.0640682509276582,16.1848377619601
-0.0654559430850275,16.1852259137223
-0.066364414743796,16.1856462282048
-0.066805681791056,16.1861042819788
-0.0667878147671822,16.1866071538725
-0.0663127300277988,16.1871640298269
-0.0653704772835906,16.1877886042852
-0.0639350460211896,16.1884989157728
-0.0619530159600227,16.1893223041075
-0.0593123343322244,16.1903063267037
-0.0557225984345396,16.1915603440653
-0.0515724844273746,16.1929681626455
-0.0475465233752694,16.1943308132926
-0.0436972477589058,16.1956533201675
-0.0400509512492655,16.1969379187864
-0.0366214892086508,16.198185377449
-0.0334155039501624,16.199395726606
-0.0304347301851058,16.2005686460869
-0.0276772177299251,16.2017036692991
-0.0251381255597535,16.2028002888658
-0.0228103357186949,16.2038580069235
-0.0206849803201519,16.2048763525338
-0.0187519145991313,16.2058548782599
-0.0170001438238697,16.2067931425659
-0.0153965074873699,16.2077033705144
-0.0138501299783516,16.2086367393671
-0.0123659447391535,16.2095945181239
-0.0109479333503576,16.2105787035902
-0.00959990065219083,16.2115916297664
-0.00832541879438012,16.2126360539374
-0.00712777525929883,16.2137152645083
-0.00600991831280744,16.2148332251948
-0.00497439981262784,16.2159947720383
-0.00402331484658013,16.2172058895811
-0.00315823696576666,16.2184741099117
-0.00238014655300309,16.2198091105644
-0.00168934757493606,16.2212236510549
-0.00108536330831248,16.2227351238552
-0.000571241733231869,16.2243524111296
-0.000162913893176019,16.2260105973983
0.00015698519612743,16.2277280535718
0.000403510142852845,16.2295243171519
0.000590750665681774,16.2314251284053
0.000732223368807481,16.2334662225249
0.000841453538709017,16.23570104073
0.000933015522899413,16.2382184800162
0.00102514631447388,16.2411947703722
0.00114396222407421,16.2449317089164
0.00128526441919767,16.2487962260658
0.00147179951053287,16.2531995216362
0.0017049272491442,16.2581496762753
0.00194873912351749,16.2630498197658
0.0021999846639151,16.268006078342
0.00242577859967822,16.2724432268054
0.00262972907859788,16.2764529125452
0.00282511088832407,16.2802884330133
0.00301852019141779,16.284063241765
0.00321424895562046,16.287842659592
0.0034157055195985,16.2916725735367
0.00362595188093254,16.2955896993867
0.00384796741281106,16.2996260909776
0.00408485240034917,16.3038121784117
0.00433998241968663,16.3081784749335
0.0046171813181578,16.3127568822786
0.00492098415761736,16.3175820448853
0.00525707215723633,16.3226926541579
0.00562572826015131,16.3280291121566
0.00600451610938525,16.3332177390099
0.00640314623114026,16.338361517922
0.00682154962783674,16.3434151240153
0.00726461336903044,16.3483931348303
0.00773683159898484,16.3532979964953
0.00824366797297843,16.3581365249752
0.00879097024876993,16.3629124699672
0.00938511591631399,16.3676275696472
0.0100330725720368,16.3722816097323
0.0107472321018713,16.3769021132794
0.0115502486667007,16.3815556056624
0.0124579642187113,16.3862379145049
0.0134942516493858,16.3909681304148
0.0146935873953358,16.3957855535237
0.0161152800363241,16.4007852746262
0.0178944675599634,16.4062362729516
0.0203273186344516,16.4127173794306
0.0219181644068314,16.4165917673884
0.0235561832167172,16.4204661553462
0.0249899962339479,16.4239211306869
0.0262000007204639,16.427062054597
0.0272043115034002,16.4300690113161
0.0279616234120421,16.4329508293674
0.0284525428804587,16.435744139225
0.0286687401474716,16.4385739326333
0.0285648928027348,16.4416219949462
0.027965077320532,16.4453854583692
0.0271420456407892,16.448416803211
0.0260698525315265,16.4514481480528
0.0249899591813584,16.4540616486292
0.0239171800085244,16.4564367677585
0.0228437889612228,16.4586904725371
0.0217702564008314,16.4608774906766
0.0206997808733427,16.4630284916639
0.0196360735545006,16.4651635724168
0.0185827656012876,16.4672972979257
0.0175432500478256,16.4694410013738
0.0165206412348613,16.4716040129827
0.0155178032091653,16.4737943824782
0.0145373340692516,16.4760193421927
0.0135815315274077,16.4782856313594
0.0126524470053347,16.4805997261832
0.0117518956547695,16.4829680307927
0.0108814640053144,16.4853970404605
0.0100425252374466,16.4878934674381
0.00923623977238977,16.4904644023292
0.00845588676149541,16.4931448725897
0.00768817755646669,16.4960048487047
0.00693691867444584,16.4990649367272
0.00620592551818596,16.5023497280221
0.0054992282995484,16.5058876417319
0.00482103476270254,16.5097116357761
0.0041756611806654,16.5138601340397
0.00356741415462529,16.5183783791525
0.00300039514975453,16.52332076196
0.00247824062578226,16.5287549426417
0.00200383578354076,16.5347691755439
0.0015792311283719,16.5414824114664
0.00122080874782122,16.5487110205004
0.000922527901422308,16.5565425531691
0.000687720617459452,16.5651104994635
0.000538243456523603,16.5728482389982
0.00040142811840258,16.5825459151169
0.000302472705896281,16.5925359821797
0.000233590605595136,16.6025359821797
0.000186297898092077,16.6125359821797
0.000154368434601649,16.6225359821797
0.000133231293361511,16.6325359821797
0.00011961983086876,16.6425359821797
0.000111272716536186,16.6525359821797
0.0001066550588214,16.6625359821797
0.000104731246623403,16.6725359821797
0.000104802357555308,16.6825359821797
0.000106398480083556,16.6925359821797
0.000109209016675678,16.7025359821797
0.000113036825002912,16.7125359821797
0.000117767250250151,16.7225359821797
0.000123347036244567,16.7325359821797
0.000129770275240945,16.7425359821797
0.000137069611437779,16.7525359821797
0.000145311482773793,16.7625359821797
0.000154594594259995,16.7725359821797
0.000165051172399195,16.7825359821797
0.000176850880884763,16.7925359821797
0.00019020760286354,16.8025359821797
0.000205389651698022,16.8125359821797
0.000222734419089102,16.8225359821797
0.000242669094240554,16.8325359821797
0.000265740027392806,16.8425359821798
0.000292654794081956,16.8525359821798
0.000324343444679453,16.8625359821798
0.000362049532549954,16.8725359821798
0.000407468700469424,16.8825359821798
0.000462561230393242,16.8924690867421
0.000525320469129801,16.9016601314221
0.000596556379581796,16.910140226892
0.000677374150112354,16.9179640798602
0.000769062055074817,16.9251833859554
0.000873089662096476,16.9318460990947
0.000991123406760228,16.937996703739
0.00112505064747132,16.9436764883857
0.00127700899962304,16.9489237791272
0.00144942035591104,16.9537741465463
0.0016450288660918,16.9582606144661
0.00186694799660315,16.9624138655379
0.00211871500315967,16.9662624321766
0.00240435714137041,16.969832871483
0.00272847483777914,16.9731499492253
0.00309634572805012,16.9762368349961
0.00351406134015745,16.9791153001811
0.00398870729081521,16.9818059372009
0.00452861225601042,16.9843284233405
0.00514370441767835,16.9867018474054
0.00584548624205496,16.9889435338125
0.00662046479395837,16.9910045168198
0.00747786508165066,16.9929192000141
0.00843179789837204,16.9947222896397
0.00950394859556903,16.9964500804206
0.0107318979701875,16.9981480320203
0.0122179503302365,16.9999179373829
0.0143185244146832,17.0020633959129
0.0159416141631818,17.0035365901051
0.0176790597789918,17.0050097842972
0.0192937236748615,17.0063364874475
0.0207232850336962,17.0075224029932
0.022005520639245,17.0086412646038
0.0231465677506881,17.0097392289401
0.0241325386364161,17.0108544924043
0.0249320441984131,17.0120327135428
0.0254839881501899,17.0133521214033
0.0256298003128061,17.0150342250949
0.0251623017544014,17.0167605596223
0.0241733770266843,17.0184868941497
0.0230433779294534,17.0199325044461
0.0217752832373203,17.0213269443901
0.0203677379271393,17.022751639972
0.0188295116436547,17.0242480118798
0.0171670101400896,17.0258543544959
0.015417758927,17.027620671684
0.0132156480978751,17.0300812646007
0.0113544696858933,17.0324383224869
0.00978324144185773,17.0346986200265
0.00844135294347179,17.0368931994619
0.00727483645656515,17.0390651440413
0.00623067197278447,17.041287103262
0.0052354822626197,17.0437338922161
0.00431824870782359,17.0463799942692
0.00379239220930536,17.0481254336283
0.00332202907500537,17.0498708729874
0.0029347379048634,17.0514709322016
0.00259765928708159,17.0530115133975
0.0022856172125825,17.0545881832363
0.00197908310644833,17.0563106408721
0.0016503089349144,17.0583992548648
0.00119738673460077,17.061833489844
0.000827795012077645,17.0653469547701
0.000563235830102251,17.0684826471977
0.000339527951196047,17.0717835019096
0.000126860703957561,17.0758732274688
-5.69555797554379e-05,17.081024713562
-0.000158579254329416,17.0862140001767
-0.000177917577591175,17.090845208197
-0.000128564748615763,17.0950260980625
-1.55843069856074e-05,17.0987903282017
0.000159797314039736,17.1021864724728
0.00039849447930395,17.1052590548714
0.000703765693933892,17.1080598356368
0.0010817015105788,17.1106425242429
0.00154222565811781,17.1130612316577
0.00210214752625512,17.1153763847278
0.00279024596320939,17.1176595842324
0.00366210217359484,17.1200157429766
0.00485135212222672,17.1226546403858
0.00641779334588192,17.12553433729
0.00787132214117127,17.1278184205056
0.00954012087068891,17.1301025037211
0.0111350380260292,17.1320034239496
0.0127788713298908,17.1337151402631
0.0144948292267249,17.1352723518351
0.0163808973759933,17.1367585129856
0.0184462876674624,17.1381652810423
0.0207535099369799,17.1395195475823
0.0233275737685471,17.1408184228623
0.0262167076105227,17.1420701376472
0.0294612735039895,17.1432762599888
0.0331030130180068,17.1444378238225
0.0371988656459769,17.1455591948269
0.0418080436096475,17.1466429456677
0.0469960506918315,17.1476912908265
0.052846606995395,17.148708043288
0.0594559986445385,17.1496965752762
0.0669386669206322,17.1506603609264
0.0754328919945963,17.1516031328195
0.0851065471342893,17.1525288388962
0.0961700411714007,17.1534420816959
0.108888436543357,17.1543480482111
0.123602635266803,17.1552528104511
0.140763299766461,17.156163830166
0.160987705082136,17.1570907981893
0.18492924417817,17.158038583021
0.212639190672341,17.1589892625084
0.244821935014406,17.1599522685073
0.282426732764567,17.1609417165537
0.32693254843269,17.1619837031466
0.364422738636905,17.1627907701128
0.403664947237686,17.163597837079
0.438387371159249,17.1643058079568
0.468650259322689,17.1649433007803
0.495177821383248,17.1655468174608
0.51805821321964,17.1661415869593
0.536900747250753,17.166750773931
0.550734900227804,17.1674041370598
0.557345409141026,17.1681567410147
0.55303715728708,17.1689373666434
0.536534373603579,17.1697504678533
0.506204727022934,17.1706139898544
0.45986242496987,17.171541163303
0.398830759386297,17.172487765164
0.351124684644939,17.1731192324555
0.298761503699795,17.173750699747
0.25269187424546,17.1742761015793
0.213580748027192,17.1747132503929
0.179426580699949,17.1750970593067
0.148949051772116,17.1754481644537
0.121390402064343,17.1757790824276
0.0962380223921667,17.1760988038508
0.0730783611999127,17.1764153297144
0.0514813548776568,17.1767381534733
0.0307638830863074,17.1770842380983
0.00854700707658021,17.1775155640835
-0.000961555174331503,17.1777281888728
-0.00956034217274157,17.1779408136621
-0.0161401543444266,17.1781202214423
-0.0222099898744103,17.1783020316515
-0.0283144900142001,17.1785049277249
-0.034204268987925,17.1787254464823
-0.0397202632855959,17.1789614977581
-0.0447740140439995,17.1792123515069
-0.0493194654750328,17.179478185483
-0.0533361933641293,17.1797598328147
-0.0568195153169125,17.1800586619374
-0.0597674252210535,17.1803765382251
-0.06218685818619,17.1807165541641
-0.0640682508178985,17.1810770462073
-0.0654559419006859,17.1814651980409
-0.0663644125206977,17.1818855126055
-0.0668056785580186,17.182343566475
-0.0667878105423841,17.182846438481
-0.0663127248137507,17.1834033145699
-0.0653704710513864,17.1840278891959
-0.0639350387033525,17.1847382008958
-0.0619530074152068,17.185561589513
-0.0593123242434137,17.1865456125236
-0.0557225858197675,17.1877996306648
-0.0515724721069231,17.1892074491219
-0.0475465114976963,17.1905700996666
-0.0436972364072488,17.1918926064446
-0.0400509404681791,17.1931772049683
-0.036621479021548,17.1944246635352
-0.0334154943664008,17.1956350125953
-0.0304347212035293,17.1968079319777
-0.0276772093410592,17.1979429550898
-0.0251381177474381,17.1990395745547
-0.0228103284614975,17.2000972925092
-0.0206849735926493,17.201115638015
-0.0187519083730834,17.2020941636355
-0.0170001380692703,17.2030324278344
-0.0153965018873858,17.203942655844
-0.0138501245474848,17.2048760247605
-0.0123659394886532,17.2058338035861
-0.0109479282910812,17.2068179891269
-0.00959989579444312,17.2078309153845
-0.00832541414777725,17.2088753396451
-0.0071277708326328,17.2099545503153
-0.00600991411389083,17.2110725111129
-0.00497439584813946,17.2122340580819
-0.00402331112190642,17.2134451757684
-0.00315823348482129,17.2147133962655
-0.00238014331803546,17.2160483971146
-0.00168934458629369,17.2174629378414
-0.00108536056414241,17.2189744109334
-0.0005712393055589,17.2205916982957
-0.000162911732476317,17.2222498846996
0.000156987131131452,17.2239673410541
0.000403511890405722,17.2257636048738
0.00059075226183991,17.2276644164462
0.000732224848666374,17.2297055109981
0.000841454938297171,17.2319403298125
0.000933016883046347,17.2344577700215
0.00102514769241721,17.2374340619949
0.00114396360896318,17.2411710004028
0.0012852658750577,17.2450355184853
0.00147180108296141,17.2494388157561
0.00170492887052584,17.2543889707303
0.00194874073134061,17.2592891136639
0.00219998634439344,17.2642453735815
0.00242578004533654,17.2686825172668
0.00262973043601211,17.2726922010833
0.00282511222090174,17.2765277207899
0.00301852153423529,17.2803025293757
0.00321425033375038,17.2840819474233
0.00341570695435769,17.2879118618823
0.00362595339252234,17.2918289884932
0.00384796902192875,17.2958653810701
0.00408485412938568,17.3000514697111
0.00433998429375063,17.304417767666
0.00461718336647784,17.3089961766857
0.00492098641591542,17.3138213412338
0.00525707467159751,17.3189319527477
0.00562573082603897,17.3242684095554
0.00600451881115742,17.329457036257
0.00640314905442094,17.3346008145197
0.00682155260542466,17.3396544200813
0.00726461652895499,17.344632430366
0.00773683497736819,17.3495372915536
0.00824367160869592,17.3543758195901
0.00879097418419748,17.3591517641593
0.00938512019744659,17.3638668634212
0.0100330772493866,17.3685209030821
0.0107472373473072,17.3731414068849
0.0115502545690383,17.3777948994258
0.0124579709206088,17.3824772085261
0.0134942593425698,17.3872074248651
0.0146935963793394,17.3920248488099
0.0161152908782911,17.3970245717641
0.0178944818059434,17.4024755752075
0.0203273330132432,17.4089566768716
0.0219181770673945,17.4128310590327
0.0235561935191987,17.4167054411937
0.0249900048216527,17.4201604134351
0.0262000079388106,17.4233013359436
0.0272043173694032,17.4263082922536
0.0279616275115752,17.4291901093469
0.0284525452301139,17.4319834190082
0.0286687406034943,17.4348132131391
0.0285648908494878,17.4378612778295
0.0279650704915513,17.4416247503085
0.0271420378875472,17.4446560892724
0.0260698452714035,17.4476874282363
0.0249899521370849,17.4503009262981
0.0239171729838373,17.452676044326
0.0228437819293462,17.4549297485261
0.0217702493772527,17.457116766345
0.0206997738817383,17.45926776717
0.0196360666191944,17.4614028478708
0.0185827587453477,17.4635365734108
0.0175432432925547,17.4656802769567
0.0165206345997257,17.4678432887198
0.0155177967122233,17.4700336584192
0.0145373277264863,17.4722586183831
0.0135815253530232,17.4745249078423
0.0126524410119293,17.4768390030009
0.0117518898534697,17.4792073079873
0.0108814584057826,17.4816363180752
0.0100425198479245,17.4841327455182
0.00923623459980012,17.4867036809228
0.00845588166008635,17.4893841523039
0.0076881725512164,17.4922441296637
0.00693691378970488,17.4953042190818
0.0062059207798243,17.4985890119463
0.0054992237347667,17.5021269274268
0.00482103039965226,17.505950923476
0.00417565704791159,17.5100994240182
0.00356741028013951,17.5146176717345
0.00300039155935488,17.5195600575415
0.00247823734116976,17.5249942417267
0.00200383282090679,17.5310084788031
0.0015792284988588,17.5377217198086
0.00122080654440227,17.5449503325673
0.000922526080000047,17.5527818697082
0.000687719223731796,17.561349821495
0.000538243165816763,17.5690875181487
0.000401427597037612,17.5787852202915
0.000302472395411264,17.5887752816071
0.000233590393027835,17.5987752816071
0.000186297754629193,17.6087752816071
0.000154368339868594,17.6187752816071
0.000133231232854285,17.6287752816072
0.000119619794412701,17.6387752816072
0.000111272697120695,17.6487752816072
0.000106655051674803,17.6587752816072
0.000104731248520022,17.6687752816072
0.00010480236632976,17.6787752816072
0.000106398494304554,17.6887752816072
0.000109209035429552,17.6987752816072
0.000113036847749045,17.7087752816072
0.00011776727672385,17.7187752816072
0.000123347066392584,17.7287752816072
0.000129770309180598,17.7387752816072
0.000137069649433876,17.7487752816072
0.000145311525229655,17.7587752816072
0.000154594641720425,17.7687752816072
0.000165051225564604,17.7787752816072
0.000176850940636993,17.7887752816072
0.000190207670305313,17.7987752816072
0.000205389728209657,17.8087752816072
0.000222734506408478,17.8187752816072
0.000242669194575706,17.8287752816072
0.000265740143581841,17.8387752816072
0.000292654929823512,17.8487752816072
0.000324343604871107,17.8587752816072
0.000362049723796401,17.8687752816072
0.000407468931865555,17.8787752816072
0.000462561493840265,17.888708382773
0.000525320767982091,17.8978994241865
0.000596556718421712,17.9063795166396
0.000677374534316921,17.9142033668276
0.000769062490791624,17.921422670362
0.000873090156295781,17.9280853811441
0.000991123967337065,17.93423598362
0.00112505128336665,17.9399157662738
0.00127700972096921,17.9451630551853
0.00144942117418491,17.9500134209256
0.00164502979431183,17.954499887307
0.00186694904954246,17.9586531369711
0.00211871619762695,17.9625017023237
0.00240435849652665,17.9660721404572
0.00272847637555762,17.9693892171326
0.0030963474736881,17.9724761019357
0.00351406332288167,17.9753545662466
0.00398870954478793,17.9780452024813
0.00452861482164461,17.9805676879214
0.00514370734354688,17.982941111371
0.00584548947101273,17.9851827969087
0.0066204683599264,17.987243779203
0.00747786903593902,17.9891584618392
0.00843180231622493,17.990961551059
0.00950395359814211,17.9926893416057
0.0107319037833864,17.9943872932133
0.012217957816111,17.9961571994112
0.0143185366253677,17.9983026612326
0.0159416266540322,17.9997758547582
0.0176790721221981,18.0012490482837
0.0192937344229618,18.00257575003
0.0207232946226493,18.0037616648756
0.0220055292208667,18.0048805261956
0.0231465752870029,18.0059784905225
0.0241325449702539,18.0070937542586
0.0249320490267912,18.0082719760655
0.0254839908484991,18.0095913854051
0.0256297987720573,18.011273493704
0.0251622962460713,18.0129998257766
0.0241733699523906,18.0147261578493
0.0230433699549419,18.0161717673773
0.0217752743255692,18.0175662073468
0.0203677281312644,18.0189909032797
0.0188295010224617,18.0204872757798
0.0171669987163742,18.0220936192616
0.0154177470615975,18.0238599377187
0.0132156380387159,18.0263205301285
0.0113544611644254,18.0286775875602
0.00978323416258511,18.0309378847658
0.00844134664678938,18.0331324640226
0.00727483090593781,18.0353044086557
0.00623066691287016,18.0375263683751
0.00523547722828342,18.0399731591678
0.00431824428165599,18.0426192617492
0.00379238862421026,18.0443646997922
0.00332202620409927,18.0461101378353
0.00293473546747674,18.0477101963816
0.00259765708746163,18.0492507775378
0.00228561512989569,18.0508274478806
0.00197908102148671,18.052549906825
0.00165030660950847,18.0546385242304
0.00119738472785029,18.0580727604147
0.000827794086302741,18.0615862181591
0.000563235438411485,18.0647219057858
0.000339527750404832,18.0680227585412
0.000126860601886735,18.0721124828125
-5.69556676815743e-05,18.0772639690549
-0.000158579326506647,18.0824532556008
-0.000177917640375,18.087084463583
-0.000128564804897024,18.091265353416
-1.55843583340299e-05,18.0950295835239
0.000159797266182345,18.0984257277563
0.000398494437717715,18.1014983101618
0.000703765656508155,18.1042990909051
0.00108170147612388,18.1068817794846
0.00154222562730239,18.1093004868812
0.00210214749331491,18.1116156399149
0.00279024587812893,18.1138988392414
0.00366210202982341,18.1162549978497
0.00485135192019556,18.1188938951661
0.00641779311427152,18.1217735920455
0.00787132184759856,18.1240576751795
0.00954012049969905,18.1263417583136
0.0111350376187159,18.1282426785211
0.012778870959899,18.1299543948981
0.0144948286724975,18.1315116063389
0.0163808965974884,18.132997767368
0.0184462868144333,18.1344045354398
0.0207535089696484,18.1357588019799
0.0233275727282188,18.1370576772899
0.0262167064590989,18.1383093920914
0.0294612722419458,18.1395155144551
0.033103011616684,18.1406770783055
0.0371988640844833,18.1417984493255
0.0418080418646121,18.1428822001809
0.0469960487406711,18.143930545354
0.0528466048052087,18.1449472978284
0.0594559961793349,18.1459358298283
0.0669386641377847,18.1468996154892
0.0754328888429425,18.1478423873918
0.0851065435537966,18.1487680934769
0.0961700370839782,18.1496813362837
0.108888431853971,18.1505873028043
0.123602629854869,18.1514920650483
0.14076329347534,18.1524030847651
0.160987697701285,18.1533300527881
0.184929235661018,18.1542778376248
0.21263918082652,18.1552285171156
0.244821923598865,18.1561915231156
0.282426719452499,18.1571809711592
0.326932532676901,18.1582229577407
0.364422723919893,18.1590300247577
0.403664934077379,18.1598370917747
0.43838735927679,18.1605450626868
0.468650248368166,18.16118255553
0.495177811256451,18.1617860722215
0.518058203965564,18.1623808417241
0.536900739045768,18.1629900286923
0.550734893467311,18.1636433918062
0.557345404835956,18.1643959957201
0.553037156487106,18.1651766213454
0.536534376774741,18.1659897225447
0.506204734844676,18.1668532445292
0.459862438306261,18.1677804179561
0.398830776124511,18.1687270198307
0.351124699868797,18.1693584871726
0.298761516298875,18.1699899545144
0.252691884719445,18.1705153563795
0.213580757125105,18.1709525052119
0.179426588838721,18.1713363141371
0.148949059174907,18.1716874192914
0.121390408869792,18.1720183372699
0.0962380287035747,18.1723380586956
0.0730783671135805,18.1726545845595
0.0514813605190529,18.1729774083155
0.0307638887283778,18.1733234929305
0.00854701429402522,18.1737548188648
-0.000961551150511318,18.1739674437146
-0.00956034081472197,18.1741800685644
-0.0161401532536878,18.1743594763501
-0.0222099887420231,18.1745412865562
-0.0283144888850076,18.1747441826271
-0.034204267894854,18.1749647013825
-0.0397202622476374,18.1752007526566
-0.0447740130718485,18.1754516064037
-0.0493194645743306,18.1757174403781
-0.0533361925374736,18.175999087708
-0.0568195145650043,18.1762979168285
-0.0597674245431464,18.1766157931138
-0.0621868575741073,18.1769558090489
-0.0640682502782726,18.1773163010888
-0.0654559414319796,18.1777044529185
-0.0663644121214571,18.1781247674785
-0.0668056782272206,18.1785828213424
-0.066787810279744,18.1790856933416
-0.0663127246201654,18.179642569422
-0.0653704709301716,18.1802671440371
-0.0639350386610214,18.1809774557226
-0.0619530074645231,18.1818008443198
-0.0593123244121756,18.1827848672999
-0.0557225861926212,18.1840388853803
-0.0515724724731701,18.1854467038449
-0.0475465118476904,18.1868093543953
-0.0436972367358446,18.1881318611783
-0.0400509407727523,18.1894164597067
-0.0366214793007642,18.1906639182781
-0.033415494619702,18.1918742673428
-0.0304347214309119,18.1930471867297
-0.0276772095429144,18.1941822098463
-0.0251381179244767,18.1952788293159
-0.0228103286146674,18.1963365472751
-0.020684973723075,18.1973548927856
-0.0187519084820076,18.1983334184107
-0.0170001381580135,18.1992716826145
-0.0153965019700016,18.2001819106213
-0.0138501246233631,18.201115279535
-0.0123659395573295,18.2020730583576
-0.0109479283521098,18.2030572438952
-0.00959989584740391,18.2040701701492
-0.00832541419228283,18.2051145944058
-0.00712777086833093,18.2061938050716
-0.00600991414047683,18.2073117658643
-0.00497439586536289,18.2084733128277
-0.00402331112957309,18.2096844305079
-0.00315823348280984,18.2109526509977
-0.00238014330630188,18.2122876518381
-0.0016893445648866,18.2137021925544
-0.00108536053321724,18.2152136656335
-0.000571239261994787,18.2168309529919
-0.000162911678479675,18.2184891393899
0.000156987193711976,18.2202065957364
0.00040351195984955,18.2220028595455
0.000590752336514523,18.2239036711039
0.000732224926969718,18.2259447656366
0.000841455018569221,18.2281795844241
0.00093301696338715,18.2306970245922
0.00102514777014728,18.2336733164941
0.00114396368436263,18.237410254908
0.00128526594556446,18.2412747729493
0.00147180114676454,18.245678070145
0.00170492893104311,18.2506282251044
0.00194874078912501,18.2555283680041
0.00219998640621665,18.2604846280009
0.00242578009387693,18.2649217714081
0.00262973047987374,18.2689314551132
0.00282511226365393,18.2727669747761
0.00301852157773634,18.2765417833531
0.00321425037925895,18.2803212014144
0.00341570700291164,18.2841511159045
0.00362595344509489,18.2880682425608
0.0038479690795172,18.2921046351964
0.00408485419307157,18.296290723909
0.00433998436474762,18.300657021949
0.0046171834461989,18.3052354310679
0.00492098650609377,18.3100605957311
0.00525707477449033,18.3151712073779
0.00562573093000366,18.3205076641295
0.00600451892052792,18.3256962908312
0.0064031491680606,18.3308400690661
0.00682155272479661,18.3358936746058
0.00726461665524176,18.3408716848681
0.00773683511215635,18.3457765460361
0.00824367175367147,18.3506150740548
0.00879097434117092,18.3553910186072
0.00938512036834926,18.3601061178527
0.0100330774363109,18.364760157497
0.0107472375571665,18.3693806613103
0.011550254805441,18.3740341538579
0.0124579711893102,18.3787164629688
0.0134942596512941,18.3834466793253
0.0146935967401478,18.3882641033038
0.0161152913140225,18.3932638263327
0.0178944823788637,18.3987148299823
0.0203273335916137,18.4051959314526
0.0219181775766011,18.4090703133802
0.0235561939334706,18.4129446953078
0.0249900051668982,18.4163996674245
0.0262000082289423,18.4195405898765
0.0272043176051096,18.42254754617
0.0279616276761922,18.4254293632248
0.0284525453243081,18.4282226728782
0.0286687406214779,18.4310524670382
0.0285648907705027,18.4341005318243
0.0279650702163077,18.4378640046679
0.0271420375751065,18.4408953433953
0.0260698449788204,18.4439266821227
0.0249899518531941,18.4465401800832
0.0239171727007336,18.4489152980668
0.0228437816459473,18.4511690022437
0.0217702490941784,18.4533560200498
0.0206997735999373,18.4555070208684
0.0196360663396423,18.4576421015671
0.0185827584689676,18.4597758271085
0.0175432430201991,18.4619195306584
0.0165206343321733,18.4640825424278
0.0155177964502204,18.4662729121355
0.0145373274706725,18.4684978721097
0.0135815251039593,18.4707641615809
0.0126524407701116,18.4730782567531
0.0117518896193348,18.475446561755
0.0108814581797092,18.4778755718601
0.0100425196302346,18.4803719993222
0.00923623439076124,18.482942934748
0.00845588145392847,18.4856234061744
0.00768817234894314,18.4884833835846
0.00693691359229739,18.4915434730591
0.00620592058832474,18.494828265987
0.00549922355027095,18.4983661815392
0.0048210302232942,18.5021901776694
0.00417565688084188,18.5063386783038
0.00356741012348565,18.5108569261253
0.00300039141415716,18.5157993120536
0.00247823720830279,18.5212334963805
0.00200383270102314,18.5272477336256
0.00157922839240753,18.5339609748365
0.00122080645513298,18.5411895877457
0.000922526006128552,18.5490211250674
0.000687719167747449,18.5575890770762
0.000538243159465255,18.5653267717186
0.000401427578603948,18.575024475029
0.000302472385504651,18.5850145360473
0.000233590386518522,18.5950145360473
0.00018629775052561,18.6050145360473
0.000154368337468071,18.6150145360474
0.000133231231652075,18.6250145360474
0.000119619794052001,18.6350145360474
0.000111272697354866,18.6450145360474
0.000106655052336099,18.6550145360474
0.000104731249495425,18.6650145360474
0.000104802367543792,18.6750145360474
0.000106398495707745,18.6850145360474
0.000109209036990856,18.6950145360474
0.000113036849450827,18.7050145360474
0.000117767278558558,18.7150145360474
0.00012334706836057,18.7250145360474
0.000129770311288767,18.7350145360474
0.00013706965169499,18.7450145360474
0.000145311527662156,18.7550145360474
0.000154594644348719,18.7650145360474
0.000165051228419802,18.7750145360474
0.000176850943758137,18.7850145360474
0.000190207673741199,18.7950145360474
0.000205389732021425,18.8050145360474
0.000222734510673244,18.8150145360474
0.000242669199391685,18.8250145360474
0.000265740149075623,18.8350145360474
0.000292654936160576,18.8450145360474
0.000324343612271305,18.8550145360474
0.00036204973255726,18.8650145360474
0.000407468942398302,18.8750145360474
0.000462561505714724,18.8849476370487
0.000525320781333055,18.8941386783043
0.000596556733440748,18.9026187706121
0.000677374551230272,18.9104426206665
0.000769062509858415,18.9176619240782
0.000873090177810018,18.9243246347475
0.000991123991631869,18.93047523712
0.00112505131081946,18.9361550196788
0.0012770097520079,18.9414023085031
0.00144942120929412,18.9462526741636
0.00164502983404131,18.950739140472
0.00186694909451573,18.9548923900693
0.00211871624855321,18.9587409553608
0.00240435855421373,18.9623113934386
0.00272847644092883,18.9656284700632
0.00309634754780472,18.9687153548201
0.00351406340697063,18.9715938190892
0.00398870964028061,18.9742844552863
0.00452861493022949,18.9768069406925
0.00514370746724797,18.979180364112
0.00584548960741428,18.9814220496092
0.00662046851039492,18.9834830318697
0.00747786920252574,18.9853977144787
0.00843180250190874,18.9872008036776
0.0095039538076697,18.9889285942102
0.0107319040255218,18.9906265458131
0.0122179581250305,18.9923964520389
0.0143185371182377,18.9945419139805
0.0159416271613443,18.9960151074777
0.0176790726280183,18.997488300975
0.01929373487214,18.9988150026652
0.020723295031401,19.0000009174819
0.0220055295947204,19.0011197787887
0.0231465756243136,19.0022177431133
0.024132545264842,19.0033330068577
0.024932049266889,19.004511228688
0.0254839910100044,19.005830638082
0.0256297987740068,19.0075127465545
0.0251622960973734,19.0092390785311
0.0241733697435647,19.0109654105077
0.0230433697107362,19.0124110200046
0.0217752740439723,19.0138054599736
0.0203677278136992,19.0152301559186
0.0188295006705489,19.0167265284404
0.0171669983303172,19.0183328719547
0.0154177466539325,19.0200991904601
0.0132156376471195,19.0225597829057
0.0113544607961835,19.0249168403676
0.00978323382248862,19.0271771375965
0.00844134633850245,19.029371716868
0.00727483063356181,19.0315436615032
0.00623066668390408,19.033765621201
0.00523547706573394,19.0362124119009
0.00431824413924697,19.0388585144944
0.00379238847613508,19.0406039526072
0.00332202605306811,19.04234939072
0.00293473532183157,19.0439494493035
0.00259765695363912,19.0454900304648
0.00228561501228527,19.0470667007852
0.00197908092579229,19.0487891596664
0.00165030654954639,19.0508777769011
0.0011973846745871,19.0543120131076
0.000827793996920315,19.0578254713191
0.000563235337536042,19.0609611592726
0.000339527655288176,19.0642620122001
0.0001268605173168,19.068351736646
-5.69557373104245e-05,19.0735032230794
-0.000158579375867236,19.0786925095246
-0.000177917675900827,19.0833237174502
-0.000128564829330204,19.0875046072276
-1.5584373087436e-05,19.091268837287
0.000159797260605713,19.094664981478
0.000398494441062488,19.0977375638451
0.000703765669470212,19.1005383445594
0.00108170149982025,19.1031210331166
0.00154222566333422,19.1055397404965
0.00210214754480955,19.1078548935216
0.00279024595285562,19.1101380928566
0.0036621021352529,19.1124942514782
0.00485135206889282,19.1151331488138
0.00641779330828738,19.1180128456939
0.0078713220295396,19.1202969287469
0.00954012066401014,19.1225810118
0.011135037795065,19.1244819319765
0.0127788711600433,19.1261936483367
0.0144948289112551,19.1277508597733
0.0163808968818678,19.1292370207996
0.0184462871406965,19.1306437888626
0.0207535093439477,19.1319980553951
0.0233275731547832,19.1332969306974
0.0262167069434081,19.1345486454914
0.0294612727928128,19.1357547678488
0.0331030122395668,19.1369163316927
0.0371988647882026,19.1380377027067
0.0418080426595282,19.1391214535567
0.0469960496405248,19.1401697987252
0.0528466058229855,19.1411865511953
0.0594559973322423,19.1421750831916
0.066938665446699,19.1431388688494
0.0754328903334147,19.1440816407497
0.0851065452592387,19.1450073468335
0.0961700390431934,19.1459205896396
0.108888434118494,19.1468265561607
0.123602632492783,19.1477313184064
0.140763296579435,19.1486423381267
0.160987701403966,19.1495693061553
0.184929239944489,19.1505170909932
0.212639185797782,19.1514677704869
0.244821929399299,19.152430776492
0.282426726285143,19.1534202245444
0.326932540901474,19.1544622111421
0.364422731259218,19.1552692781322
0.403664940167333,19.1560763451224
0.43838736432937,19.156784316018
0.468650252639971,19.1574218088539
0.495177814820202,19.1580253255432
0.518058206791967,19.1586200950476
0.536900741018997,19.1592292820221
0.550734894335016,19.1598826451486
0.557345403983208,19.1606352490895
0.553037153340126,19.1614158747202
0.536534371091765,19.1622289759286
0.506204726269256,19.1630924979247
0.45986242641028,19.1640196713649
0.3988307618482,19.1649662732367
0.35112468714611,19.1655977405405
0.298761505962522,19.1662292078443
0.252691876268227,19.1667546096851
0.213580749901514,19.167191758504
0.179426582478307,19.1675755674214
0.14894905348022,19.1679266725709
0.121390403717404,19.1682575905466
0.0962380240026842,19.168577311971
0.0730783627835144,19.1688938378353
0.0514813564627185,19.1692166615938
0.0307638847503865,19.1695627462164
0.00854700930539269,19.1699940721868
-0.000961553886275798,19.170206696995
-0.00956034166793187,19.1704193218031
-0.0161401539087248,19.1705987295856
-0.0222099894154465,19.1707805397946
-0.0283144895427204,19.170983435868
-0.0342042685123969,19.1712039546255
-0.0397202628111752,19.1714400059015
-0.0447740135740159,19.1716908596506
-0.0493194650117238,19.171956693627
-0.0533361929089614,19.172238340959
-0.0568195148709519,19.1725371700818
-0.0597674247827042,19.1728550463698
-0.0621868576953781,19.1731950622992
-0.0640682503492037,19.1735555543416
-0.0654559414547858,19.1739437061745
-0.0663644120976154,19.174364020738
-0.0668056781578967,19.1748220746061
-0.066787810165626,19.1753249466102
-0.0663127244612144,19.1758818226966
-0.0653704707248949,19.1765063973192
-0.0639350384061038,19.1772167090142
-0.0619530071531562,19.1780400976243
-0.0593123240291915,19.1790241206234
-0.0557225856912504,19.18027813874
-0.0515724719831718,19.1816859571992
-0.0475465113757006,19.1830486077452
-0.0436972362855379,19.1843711145241
-0.0400509403460807,19.1856557130484
-0.0366214788987456,19.1869031716158
-0.0334154942427513,19.1881135206764
-0.0304347210789862,19.1892864400591
-0.0276772092156276,19.1904214631716
-0.0251381176211483,19.1915180826369
-0.0228103283344064,19.1925758005917
-0.0206849734648188,19.1935941460979
-0.01875190824458,19.1945726717186
-0.0170001379401661,19.1955109359179
-0.0153965017585093,19.1964211639273
-0.0138501244188282,19.1973545328437
-0.0123659393602141,19.1983123116691
-0.0109479281628637,19.1992964972098
-0.00959989566645274,19.2003094234672
-0.00832541402002404,19.2013538477276
-0.00712777070512662,19.2024330583975
-0.00600991398664802,19.2035510191948
-0.00497439572118139,19.2047125661635
-0.0040233109952587,19.2059236838496
-0.00315823335851899,19.2071919043464
-0.00238014319212202,19.208526905195
-0.00168934446082262,19.2099414459212
-0.00108536043918298,19.2114529190124
-0.000571239180986582,19.2130702063745
-0.000162911608430109,19.2147283927781
0.000156987254527695,19.2164458491321
0.000403512013029994,19.2182421129513
0.00059075238356813,19.2201429245229
0.000732224969366299,19.2221840190737
0.000841455057819336,19.2244188378866
0.000933017001204808,19.2269362780932
0.00102514780893701,19.2299125700626
0.00114396372369316,19.2336495084708
0.00128526598806798,19.2375140265511
0.0014718011943101,19.2419173238176
0.00170492898074575,19.246867478791
0.00194874083869608,19.2517676216758
0.00219998645774075,19.2567238817088
0.00242578013895733,19.2611610249866
0.00262973052247205,19.2651707086396
0.00282511230550674,19.2690062282819
0.00301852161982138,19.2727810368542
0.00321425042228524,19.2765604549214
0.00341570704748678,19.2803903694252
0.00362595349179626,19.2843074961019
0.00384796912893625,19.288343888764
0.0040848542458479,19.2925299775091
0.00433998442159821,19.2968962755876
0.00461718350795845,19.3014746847516
0.00492098657378156,19.306299849467
0.00525707484941812,19.3114104611741
0.00562573100659571,19.3167469178914
0.00600451900115748,19.3219355445878
0.00640314925238526,19.3270793228036
0.00682155281377162,19.3321329283274
0.00726461674969627,19.3371109385742
0.00773683521314767,19.342015799728
0.00824367186233946,19.3468543277334
0.00879097445876284,19.3516302722733
0.00938512049622426,19.3563453715063
0.0100330775759654,19.3609994111378
0.0107472377137211,19.3656199149587
0.0115502549815358,19.3702734075109
0.012457971389192,19.3749557166295
0.0134942598806732,19.3796859329987
0.014693597007945,19.3845033570021
0.0161152916371285,19.3895030800861
0.0178944828033213,19.3949540838882
0.020327334020003,19.4014351852151
0.0219181779538114,19.4053095669701
0.0235561942404472,19.409183948725
0.0249900054228001,19.4126389207494
0.0262000084440557,19.4157798431597
0.0272043177799415,19.418786799441
0.0279616277984083,19.4216686164672
0.0284525453944023,19.4244619261148
0.0286687406351687,19.4272917202963
0.0285648907124327,19.4303397851532
0.0279650700130168,19.4341032582666
0.0271420373442842,19.4371345968189
0.0260698447626806,19.4401659353712
0.0249899516434807,19.4427794332568
0.0239171724916022,19.4451545512076
0.0228437814366009,19.4474082553673
0.0217702488850794,19.4495952731638
0.0206997733917911,19.4517462739775
0.0196360661331735,19.4538813546747
0.0185827582648645,19.456015080217
0.0175432428190971,19.4581587837698
0.0165206341346529,19.4603217955438
0.0155177962568164,19.4625121652575
0.0145373272818627,19.4647371252391
0.0135815249201682,19.467003414719
0.0126524405917156,19.4693175099012
0.0117518894466671,19.4716858149142
0.0108814580130596,19.4741148250318
0.0100425194698491,19.4766112525077
0.00923623423684827,19.4791821879488
0.0084558813021321,19.4818626594085
0.00768817220000802,19.4847226368557
0.0069369134469478,19.4877827263717
0.00620592044733128,19.4910675193463
0.00549922341444345,19.4946054349512
0.00482103009347149,19.498429431141
0.0041756567578746,19.5025779318432
0.00356741000820635,19.5070961797423
0.00300039130733492,19.5120385657598
0.00247823711058366,19.517472750191
0.00200383261288938,19.5234869875603
0.00157922831419087,19.5302002289225
0.00122080638960148,19.5374288419425
0.000922525951970216,19.5452603793973
0.000687719126225364,19.5538283315696
0.000538243150004638,19.5615660249779
0.000401427562695074,19.5712637290452
0.000302472375870201,19.5812537899023
0.000233590379882058,19.5912537899023
0.000186297746003663,19.6012537899023
0.000154368334436162,19.6112537899023
0.000133231229666354,19.6212537899023
0.00011961979280153,19.6312537899023
0.00011127269662553,19.6412537899023
0.000106655051982156,19.6512537899023
0.000104731249418306,19.6612537899023
0.000104802367677279,19.6712537899023
0.000106398496008016,19.6812537899023
0.000109209037429869,19.6912537899023
0.00011303685001189,19.7012537899023
0.000117767279233354,19.7112537899024
0.00012334706914717,19.7212537899024
0.000129770312190372,19.7312537899024
0.000137069652719209,19.7412537899024
0.000145311528820712,19.7512537899024
0.000154594645657514,19.7612537899024
0.000165051229899314,19.7712537899024
0.000176850945434164,19.7812537899024
0.000190207675646,19.7912537899024
0.000205389734195369,19.8012537899024
0.000222734513167134,19.8112537899024
0.000242669202270028,19.8212537899024
0.000265740152421281,19.8312537899024
0.000292654940081457,19.8412537899024
0.000324343616910181,19.8512537899024
0.000362049738106511,19.8612537899024
0.000407468949122605,19.8712537899024
0.00046256151338817,19.8811868908065
0.000525320790055829,19.8903779319686
0.000596556743348599,19.8988580241899
0.000677374562482246,19.9066818741647
0.000769062522636311,19.9139011775029
0.000873090192319935,19.9205638881045
0.000991124008107203,19.9267144904147
0.00112505132952453,19.9323942729163
0.00127700977324219,19.9376415616881
0.0014494212333969,19.9424919273003
0.00164502986139734,19.9469783935644
0.00186694912556175,19.9511316431212
0.00211871628378627,19.9549802083758
0.00240435859420023,19.9585506464198
0.00272847648631756,19.9618677230138
0.00309634759934248,19.9649546077429
0.0035140634655223,19.9678330719869
0.0039887097068576,19.9705237081615
0.00452861500602922,19.9730461935477
0.00514370755371037,19.9754196169497
0.0058454897028511,19.9776613024217
0.00662046861581812,19.9797222846617
0.0074778693194707,19.9816369672547
0.00843180263262916,19.9834400564422
0.00950395395580378,19.9851678469685
0.0107319041978653,19.9868657985724
0.0122179583474057,19.9886357048241
0.0143185374826565,19.9907811668658
0.0159416275336438,19.9922543603434
0.0176790729952277,19.993727553821
0.0192937351905607,19.9950542554692
0.0207232953142533,19.9962401702651
0.0220055298466302,19.9973590315634
0.0231465758441623,19.998456995888
0.0238502685572516,19.999228497944
0.0244539318108569,20
