ecg,time
0.000823123670321096,15.0051813139092
0.000650879510079651,15.0136497962067
0.000519033009838246,15.0225617922516
0.000415637715419114,15.0325617922516
0.000347194057986023,15.0425617922516
0.000303952364147497,15.0525617922516
0.00027881611360479,15.0625617922516
0.000266788031534464,15.0725617922516
0.000264519854855829,15.0825617922516
0.000269892974813216,15.0925617922516
0.000281681116104602,15.1025617922516
0.000299323163275444,15.1125617922516
0.000322798750228481,15.1225617922516
0.000352588625137012,15.1325617922516
0.000389710568567154,15.1425617922516
0.000435839435728745,15.1525617922516
0.000489774724325395,15.1619617561811
0.000551523726126409,15.1706544316053
0.000621934604630561,15.1786878050552
0.000702105489093025,15.1861120912265
0.00079333071609415,15.1929740848898
0.000897096354526496,15.1993172649123
0.00101509426419894,15.2051820670763
0.00114924463251216,15.2106061204274
0.00130172409995111,15.2156244509566
0.001474997874326,15.220269669675
0.00167185869116233,15.2245721502712
0.00189547202307785,15.2285601975639
0.00214943153527602,15.2322602062951
0.00243782571717788,15.2356968181109
0.00276532144310046,15.2388930826561
0.00313726985001628,15.241870624221
0.00355984305705994,15.2446498190953
0.00404021707221579,15.2472499963089
0.00458682294791606,15.249689676565
0.00520970470945648,15.2519868741071
0.00591875799338501,15.2541531166279
0.00670142992692446,15.2561455958413
0.00756684260537427,15.2579970591496
0.0085288251939555,15.2597403387904
0.00960843913079119,15.2614095113066
0.0108416545967862,15.2630465720825
0.0123339444806283,15.2647534132985
0.0143989691086865,15.2667806578225
0.0161390881407869,15.2682928094601
0.0180150950110563,15.2698049610976
0.0196976276880612,15.2711139994912
0.0211795555083379,15.2722753997578
0.0225097155561132,15.2733692593638
0.0236962878454572,15.2744419292229
0.0247259738384534,15.2755310544974
0.0255676371466202,15.2766812722744
0.0261605568335399,15.2779685368758
0.0263488527431729,15.2796052956256
0.0259046654970113,15.2813111748131
0.0249149310442864,15.2830170540007
0.023773238133378,15.2844425337295
0.0224858933546343,15.2858182743198
0.0210510233646181,15.2872264081957
0.0194770417433533,15.2887086648999
0.0177698087497922,15.290303853581
0.0159588329422829,15.2920629948245
0.0143333900954987,15.2937733051616
0.0118121883098694,15.2967608207465
0.00976669708702467,15.2995999450734
0.00815978284251291,15.302206945159
0.00684319930449317,15.3046908328484
0.00569461090497999,15.3072126342102
0.00468662627143927,15.309802371136
0.00380047917198195,15.3124832897462
0.00302111093244994,15.3152786589454
0.0023718577370222,15.3180455137557
0.00185216971597146,15.3206581938839
0.00142515828895633,15.3231643566343
0.00106488367694694,15.3256130198006
0.000755144102617576,15.3280358920598
0.000486388596749733,15.330441930558
0.000250516410931517,15.3328452219406
3.63971897705623e-05,15.3353180026732
-0.000176663678043339,15.3381137924353
-0.000326413342677634,15.3403164609091
-0.000462800636884427,15.342519129383
-0.00057032587314412,15.3444021865264
-0.000660747591272686,15.3460938843731
-0.000743851990217854,15.3477409809047
-0.000825330662175802,15.3494455207858
-0.000910940399310802,15.3513354623042
-0.00101215718052066,15.3537043719529
-0.00118692029576741,15.3581440261816
-0.00133147347086064,15.3621633613689
-0.00144646074164924,15.3656013027599
-0.00156200954607271,15.3693005325853
-0.00169700500023791,15.3740323810363
-0.00182971114829331,15.3795280305107
-0.0019090867547926,15.3843006978455
-0.00193123777961299,15.3885834123568
-0.00188719576040102,15.3924119811226
-0.00176890182860256,15.3958762957677
-0.00156758169185338,15.3990576107458
-0.00127432924387067,15.4020116063582
-0.000881826463706538,15.4047696784889
-0.000381076568661208,15.4073720692276
0.00024601004902654,15.4098833753803
0.00103469489345258,15.4123906924417
0.00207039477337469,15.4150584681492
0.00348455997757606,15.418052439569
0.00524507896932057,15.4211768555385
0.00667272180982692,15.4233867120703
0.00827469083557608,15.4255965686021
0.00983335126806746,15.427504913477
0.011457565151234,15.429267748594
0.0131461169488355,15.4308843426999
0.0149795176519251,15.432424863871
0.0169990719409182,15.433905444808
0.0192184369741816,15.4353186843931
0.0216891296076972,15.4366810225113
0.0244381184660488,15.4379904682728
0.0275103000284301,15.4392528735416
0.0309476714094513,15.4404702600381
0.0347937258019052,15.4416438503063
0.0391077356195455,15.4427780068339
0.0439536111325662,15.4438757586586
0.0494064764994778,15.4449403984572
0.0555535751191032,15.4459751471775
0.0625041586859827,15.4469842249251
0.0703887868794348,15.4479717893052
0.0793684760840808,15.4489424351469
0.0896457242719366,15.4499014145358
0.101480838092344,15.4508549283433
0.115219163301489,15.4518106996694
0.13133819309866,15.4527789571984
0.150534547831061,15.453774208363
0.172902682778776,15.4547772149154
0.198890891397518,15.4557908470568
0.22927219556884,15.456829365789
0.26515969920461,15.4579149044356
0.307243201914588,15.4590586268234
0.349199878648644,15.4601158849246
0.384118223076636,15.4609697560254
0.414207886648085,15.4617152123437
0.440530041205959,15.4624035992096
0.463318089068508,15.4630638949173
0.482378693888111,15.4637181553135
0.497129799059085,15.4643882240866
0.506413331548053,15.465101886676
0.507857261374597,15.4659055237922
0.498667229278896,15.4667330881995
0.477619625004079,15.4675863000994
0.443226925716127,15.4684778279013
0.393772446013834,15.4694168956113
0.349695244199224,15.4701019738709
0.29975106939853,15.4707870521306
0.255101287734102,15.4713531223043
0.217063558823792,15.4718185091124
0.183775292137187,15.4722234001755
0.154010371472854,15.4725911491332
0.127053206404998,15.4729355008431
0.102430300271663,15.4732659173109
0.0797741886108255,15.4735902576227
0.058733511911211,15.4739168345866
0.0388404368330491,15.4742579798913
0.0190044342259972,15.4746442722582
0.0104463440421534,15.4748309265053
0.00254237523089356,15.4750175807524
-0.00629027716441299,15.4752466135935
-0.0130112809176101,15.4754392611339
-0.0188577770527202,15.4756233013717
-0.0247955371425051,15.4758301048386
-0.0305630317208226,15.4760557912208
-0.0359868046217456,15.4762977761964
-0.0409703433883356,15.4765550473693
-0.0454629469147973,15.4768276204792
-0.0494375601531037,15.4771162291321
-0.0530356434128954,15.4774380154791
-0.0558950472610832,15.477761394806
-0.0582407269745775,15.4781058739151
-0.0600879212408431,15.4784745690113
-0.0614506534501325,15.4788710229859
-0.0623425019896048,15.4792996021466
-0.0627751225199805,15.4797657363567
-0.0627566456080552,15.4802762729976
-0.0622897005237537,15.480840022765
-0.0613661150105292,15.4814700984909
-0.0599636909203787,15.4821833933554
-0.0580371139486014,15.4830049304129
-0.0554940273177204,15.4839765428147
-0.0521128788250306,15.4851863838081
-0.0480801503243274,15.4865862935873
-0.0441754777844751,15.4879379110826
-0.0404508666407565,15.4892471499361
-0.0369314781869683,15.4905168504668
-0.0336298726598987,15.4917481680489
-0.0305513386576184,15.4929413996978
-0.0276962942457196,15.4940964202794
-0.0250615825827058,15.4952129118467
-0.0226413156032286,15.4962904822491
-0.0204275165193273,15.497328721904
-0.0184106584736582,15.4983272241088
-0.0165801357856894,15.4992855824997
-0.014924679570182,15.5002033730936
-0.0133576328981626,15.5011256723458
-0.011850663078582,15.5020716531221
-0.0104081119596531,15.503043017758
-0.00903388963421277,15.5040419310857
-0.00773169981938304,15.505070936959
-0.0065049876859517,15.5061330540456
-0.00535688731186696,15.5072319008954
-0.00429016668961592,15.5083718649281
-0.00330717008450994,15.5095583362472
-0.00240975703825832,15.5107980403143
-0.00159923646968795,15.5120995272732
-0.000876292809350217,15.513473921216
-0.00024089820102762,15.5149361259948
0.000307801332939392,15.5165068927248
0.00075428436855981,15.5181433816341
0.0011042811250827,15.5198301553624
0.00137371046333773,15.5215856182698
0.00157704114728314,15.5234321722301
0.00172795046172435,15.5254000538373
0.00183979377375718,15.527532751284
0.00192634668883672,15.5298985819935
0.00200335357504103,15.532620331263
0.00209342834327149,15.5359806718746
0.00220861121418914,15.5397350457699
0.00236039621558649,15.5438260065564
0.00252959626882037,15.5477516714662
0.00271018972220552,15.5515632152169
0.00289976343516437,15.5553456565049
0.00309708292815907,15.5591545015083
0.00330215457764251,15.5630311192398
0.00351607847089651,15.5670101273805
0.00374085479479969,15.5711230741817
0.00397921880315983,15.5754006906338
0.00423453229356434,15.5798744462674
0.00451078164345972,15.5845779273934
0.0048127520262778,15.5895482813832
0.00514644895506084,15.5948274392558
0.00550036206442358,15.6001724398081
0.00586618197822252,15.605415523299
0.00624874885283259,15.6105887612329
0.00664999396312537,15.6156740143991
0.00707430193367509,15.6206817315824
0.00752620132068081,15.6256180131551
0.00801078037062433,15.6304895323155
0.0085334854382688,15.6353003635675
0.00910023746043004,15.640052541742
0.00971751104778732,15.6447461549455
0.0103924722770909,15.6493799960604
0.011146324238269,15.6540296989575
0.0119957512860248,15.6587087991792
0.0129606615761638,15.6634276660936
0.0140692071333685,15.6682133851478
0.015365679416128,15.6731281760277
0.0169361423082662,15.67833051709
0.0190356014790399,15.6843724690659
0.0208088523935157,15.6889402650328
0.0226926465387745,15.6935080609996
0.0242611623096012,15.6972791611179
0.0255632233971884,15.7005646932119
0.0266541230792429,15.7036352103549
0.0275298190602388,15.7066213711437
0.0281359192873406,15.709463349597
0.0284740979384441,15.7122811877732
0.0285196478379457,15.7152223605111
0.0281819360367838,15.718571957318
0.0271721154098684,15.7229214187199
0.0262750857108269,15.7256115250394
0.0252165745800574,15.7283016313589
0.0241439409261481,15.7307567479306
0.0230701683068478,15.7330646068894
0.0219956883222087,15.7352907679667
0.0209232763913387,15.737472030869
0.0198565671131989,15.7396316316848
0.0187992429984849,15.74178594133
0.0177547858080278,15.7439474461936
0.0167264093169249,15.7461262693219
0.0157170483792139,15.7483310410947
0.0147293637677343,15.7505694477014
0.0137657551415873,15.7528485950038
0.0128283707961618,15.7551752791894
0.0119191176319478,15.7575561967391
0.0110396748055081,15.7599981083253
0.0101914965253734,15.7625080123779
0.00937582849878403,15.7650932745953
0.0085937107311519,15.767761799397
0.00782901074427034,15.7705875668255
0.00708003064623083,15.7736083013482
0.00635057618575216,15.7768474032008
0.00564459098139235,15.7803321796818
0.00496619708310477,15.7840942565286
0.0043196335012,15.7881704472706
0.00370915250889407,15.7926039863058
0.00313885025079816,15.7974465625735
0.00261244072570078,15.8027617932062
0.00213295152939612,15.8086319212978
0.001702624705979,15.8151669398415
0.00133286914717766,15.8223002464363
0.00102910428675913,15.8300153562548
0.000853092789807361,15.8362265595791
0.000670419292722347,15.8448716848724
0.000535163103754158,15.8538146206513
0.000429989334188459,15.8638146206513
0.000360869869577092,15.8738146206513
0.000317998219777897,15.8838146206513
0.000294312845906682,15.8938146206513
0.000284832444883594,15.9038146206513
0.000286244946515421,15.9138146206513
0.000296541092332563,15.9238146206513
0.000314711589427972,15.9338146206513
0.000340548472012127,15.9438146206513
0.000374563567574435,15.9538146206513
0.000418024940481533,15.9638146206513
0.000471662342278108,15.9735721529433
0.000533928039572893,15.9825927126445
0.000605464870179081,15.9909149392713
0.000687310975123222,15.9985938549213
0.000780760028634359,16.0056808267523
0.000887331724217815,16.0122232583442
0.00100877433656957,16.0182649726664
0.00114708299495778,16.0238465496551
0.00130452689436988,16.029005607628
0.00148368289118002,16.0337770497694
0.00168747620141734,16.0381932908198
0.00191922994005212,16.0422844691806
0.00218272573979208,16.0460786441117
0.00248227806295124,16.0496019856697
0.00282282913293598,16.0528789688113
0.00321007040855836,16.0559325773562
0.00365060378828062,16.0587845236612
0.00415216121665517,16.061455502878
0.00472391472435063,16.0639655083421
0.00537693368250796,16.0663342498834
0.00611175240734172,16.0685456867388
0.00692561936269533,16.0705925718524
0.00783095798720728,16.0725114352089
0.00884708739083695,16.0743404778203
0.0100066384766872,16.0761252813348
0.0113758312794341,16.0779374444905
0.0132226245869142,16.0800371479777
0.0148341562820346,16.0816565235538
0.0165800105827177,16.0832758991299
0.0181802277325598,16.084700352211
0.0195796814876785,16.0859486622681
0.0208304618718538,16.0871136306587
0.0219440819591736,16.0882474652849
0.0229100004405709,16.0893894991417
0.023701210638609,16.0905830611402
0.0242660950711231,16.0918961354132
0.0244848696325126,16.0934941109829
0.0241099339194102,16.0953473003633
0.0231552334297224,16.0972004897437
0.0220543429973391,16.0987044784267
0.0208284740919518,16.1001252104358
0.0194716703325221,16.1015622966536
0.0179920816270862,16.1030602374775
0.0163972620306933,16.1046559916604
0.0147254391224751,16.1063946966872
0.0129543634992695,16.1084061649435
0.010726699705115,16.1112716204344
0.00891100787743038,16.1139909094476
0.00745461087431751,16.1165249886564
0.00621132106482904,16.119033839735
0.00512045116308936,16.1215960053049
0.00415974006311727,16.1242373009302
0.00331238220929133,16.1269809366487
0.00262997966665973,16.1295790623717
0.00207711155479263,16.1320286345036
0.00162023954815339,16.1343603828045
0.00123451101761718,16.1366084309028
0.000901421026055481,16.1388096993321
0.000606566511000711,16.1410078473199
0.000336923893941912,16.1432690950592
7.44054893392942e-05,16.1457499222282
-0.000147396394124117,16.1481024511365
-0.000307350898957117,16.1499680318191
-0.000455195310104681,16.1518336125017
-0.000577847971406057,16.1534935221353
-0.000686854462321825,16.155060078625
-0.000790677158726884,16.1566361809285
-0.000895974138132459,16.1583216861785
-0.00101219198596456,16.1602866268473
-0.00116983171917888,16.1631301279717
-0.0013502611763491,16.1666361089784
-0.00149300642238481,16.169597307592
-0.00162620769417104,16.1725067686092
-0.00177189786287312,16.1758505949636
-0.00194838222743671,16.1801425781238
-0.00216764603402429,16.1859831811421
-0.00232624815981483,16.1910724236971
-0.00242272548834936,16.1956660789159
-0.00244531300334939,16.1997733551224
-0.00238593794189584,16.2034484326119
-0.00223922730699745,16.2067603730174
-0.00200108620349645,16.2097767172971
-0.00166604994946685,16.2125680007791
-0.00122511103557324,16.2152003621729
-0.000660840380304491,16.2177485717302
6.61168632858063e-05,16.2203254400583
0.00106918571590415,16.2231842628722
0.00236522866479037,16.2262452206452
0.00389797847251708,16.2293820579637
0.0056629595103197,16.2326149295541
0.00684634375778652,16.2345964961021
0.00813309921943379,16.23657806265
0.00946653701702983,16.2384355406727
0.0108317809203946,16.2401346668862
0.0123112434160325,16.2417633202938
0.0139323862435039,16.2433269628757
0.0157280034633154,16.2448338938356
0.0177302418280174,16.2462886104812
0.019966884343986,16.2476907930399
0.0224646164773415,16.2490394236696
0.025259804103363,16.2503381520435
0.0283874321876152,16.251588223842
0.0318847853624991,16.2527908367741
0.0358030437298426,16.2539504118302
0.0401970888599015,16.2550700027699
0.045131083318132,16.2561528749527
0.0506805825293227,16.2572024508948
0.0569339981273449,16.2582221080715
0.0640004309013142,16.2592159040978
0.0720104032519727,16.2601878667831
0.081124138062473,16.2611423783871
0.0915416421285513,16.2620843515313
0.103517327597407,16.2630194597104
0.117384394435115,16.2639546278746
0.133592501154703,16.2648986369682
0.152777258813247,16.265863428386
0.175349711404932,16.2668445576188
0.201517764017128,16.2678318817869
0.23199779497365,16.2688369915809
0.267776701921693,16.2698770974487
0.310424596945472,16.2709834319435
0.346299724481127,16.2718415187385
0.383766774214681,16.2726996055335
0.417003383851881,16.2734553009788
0.446014074326981,16.2741371545256
0.471359556693185,16.2747806675305
0.493079027149744,16.275410794174
0.510789259792701,16.2760497273563
0.523599227261896,16.2767237183646
0.529647588135316,16.2774746673264
0.52570177448176,16.2782791819783
0.510109661819422,16.2791074162573
0.48143914814891,16.2799752405556
0.437859761612919,16.2808939758626
0.377376731767968,16.2818720736763
0.333502867493701,16.2824758482077
0.285553006018778,16.2830796227392
0.242809282887599,16.2835900888803
0.205970624946931,16.2840217943893
0.173489760335683,16.2844046968681
0.144336307044537,16.284757137346
0.117873838023475,16.2850906885039
0.0936553325171352,16.2854139446954
0.0713067566798416,16.2857347874214
0.0504226094999623,16.2860628519661
0.0303269503683531,16.2864159145058
0.00849563390445863,16.2868628036923
-0.000245900202475067,16.2870689583986
-0.00818671196417215,16.2872751131049
-0.0146166980822506,16.2874587774891
-0.0206096137729788,16.287647032822
-0.0266043740717761,16.2878563431101
-0.032365329804994,16.2880832991558
-0.0377445308718255,16.2883259137885
-0.0426604733138015,16.2885835439844
-0.0470713399450008,16.2888564430163
-0.0509585890596494,16.2891455145483
-0.0545508126119461,16.2894774208308
-0.0573027439806046,16.289802732739
-0.0595385998462582,16.2901496518536
-0.0612755903106679,16.2905215947194
-0.0625281722533788,16.2909223337112
-0.0633098689113132,16.2913565322817
-0.0636317591640402,16.2918300219285
-0.0635007455613877,16.2923502132884
-0.0629169374122871,16.2929270220828
-0.0618680430552579,16.2935747594492
-0.0603253467441015,16.2943125220947
-0.0582306745097652,16.2951697311184
-0.0554606455490892,16.2961988597072
-0.051678056106303,16.2975281381776
-0.0476364321307361,16.2989173395474
-0.0437379840084123,16.3002620251188
-0.0400266113100499,16.3015662645011
-0.0365237152245058,16.3028320750484
-0.0332400721869236,16.3040601599716
-0.030180031242776,16.305250559364
-0.0273434691080459,16.3064029977005
-0.024726894426965,16.3075170664975
-0.0223242027421779,16.3085923175713
-0.0201272746436765,16.309628305538
-0.0181264907889917,16.3106245997933
-0.0163111892585685,16.3115807769241
-0.0146700723120439,16.312496399571
-0.013111842224267,16.3134196737148
-0.011614038110721,16.3143666950592
-0.010180948647119,16.3153392045905
-0.00881648081904889,16.3163393814445
-0.00752433513387361,16.3173697881604
-0.00630795401640807,16.3184334674079
-0.00517046961060983,16.3195340687441
-0.00411464936625556,16.3206760200793
-0.00314283928404604,16.3218647652276
-0.00225690424258895,16.3231071023986
-0.00145816407927403,16.3244116829561
-0.000747322768125924,16.3257897767555
-0.000124385494223078,16.3272565071033
0.000411446922054524,16.3288329755409
0.000843896196958979,16.3304712688707
0.00118057341982377,16.3321607507971
0.0014371890134094,16.3339198569252
0.00162805410047114,16.3357712814736
0.00176667223865528,16.3377457335712
0.00186619162479221,16.3398875387424
0.00194011241986163,16.3422666839907
0.00200376078323181,16.3450100046224
0.00207901931023497,16.3484146234452
0.00217770879214852,16.3521747047699
0.00231263256490497,16.3562918326871
0.00247816891851067,16.3605441965649
0.00264904702919996,16.3644940269054
0.00282406805466305,16.3683116314363
0.00300310902634209,16.3720911116251
0.00318683435811616,16.3758908058282
0.00337665063667219,16.3797534519746
0.0035745753580992,16.3837143565868
0.00378311674218462,16.3878053664968
0.00400519946210403,16.3920573062597
0.00424414342595139,16.396501613474
0.00450373068813788,16.4011717215011
0.00478842139731437,16.4061045323697
0.00510378014499159,16.4113416748842
0.00544518876972428,16.4167429558588
0.00579679429929419,16.4220110278267
0.00616568706746268,16.4272195301761
0.00655258882519651,16.432334701371
0.00696189346513226,16.4373708209656
0.00739779160321714,16.4423329768009
0.00786516245245828,16.4472288144927
0.00836919478626326,16.4520629889241
0.00891553829308915,16.4568381830862
0.00951036271824855,16.4615549826362
0.0101604886983595,16.4662124790847
0.0108798965429724,16.4708479844137
0.0116899463826721,16.4755172579141
0.0126072891455031,16.4802194728133
0.0136567292745033,16.4849760201488
0.014874910835272,16.4898319983655
0.0163268622107532,16.4948973108393
0.0181704789703685,16.5004969609834
0.0205873179556288,16.5069064230176
0.0221426457054547,16.510709776141
0.0237307566371115,16.5145131292645
0.0251148229837965,16.517921027631
0.0262822167762836,16.5210499316382
0.0272444279213268,16.5240680831305
0.0279510950998915,16.5269500615872
0.0283917114307627,16.5297621835045
0.0285534979782944,16.5326353550249
0.0283803804351908,16.5357751068968
0.0276320731971097,16.5398499142846
0.0267806253373572,16.5427565982518
0.0257162218959399,16.545663282219
0.0246394142913599,16.548231015252
0.0235656699473565,16.5505959021916
0.0224910995702121,16.5528535600952
0.0214171746588786,16.555052086741
0.0203472763606325,16.5572196760425
0.0192851119823896,16.5593752962501
0.0182342644040147,16.561532954246
0.0171980685135375,16.5637037221683
0.0161795811020161,16.5658968470208
0.0151815818805308,16.568120418312
0.0142065842842389,16.5703818024325
0.0132568446448797,16.5726879554688
0.0123343757451674,16.5750456502092
0.0114409561966022,16.5774616670994
0.0105781367685918,16.5799429691247
0.00974725728328767,16.5824968359206
0.00894944779863021,16.5851310419814
0.00817932225336296,16.5878774705266
0.00742320749336364,16.5908100737394
0.00668497671577839,16.593950306944
0.00596848631280027,16.5973238475329
0.00527778925505348,16.6009604052766
0.00461709228138013,16.6048944826246
0.00399067028005132,16.609166450406
0.0034027312059539,16.6138241758745
0.00285721783617012,16.6189257712595
0.00235751950859865,16.6245449142614
0.00190627731479303,16.6307790679845
0.00150897333079275,16.6376903845879
0.00125783644997124,16.6431358130899
0.0010632302566189,16.648581241592
0.000860789226793365,16.6561487022573
0.000699446248355966,16.6644075452378
0.000572376509203531,16.6735179034271
0.000479000033633636,16.6835179034271
0.000421838304002478,16.6935179034271
0.000391632301735395,16.7035179034271
0.000381893355838278,16.7135179034271
0.000388388596428299,16.7235179034271
0.000408767616723843,16.7335179034271
0.000442267406695532,16.7435179034271
0.000489568361598502,16.7535179034271
0.000548845022115573,16.7629429412972
0.000619048723552637,16.7716341853556
0.000700602194417881,16.7796440624077
0.000794475418007032,16.7870283124031
0.000902011504149284,16.7938383188146
0.00102486403263819,16.8001213494319
0.00116498320057793,16.8059210015351
0.0013246265186737,16.8112775695745
0.00150638492065889,16.8162283484747
0.00171321875777692,16.8208079072124
0.00194850744679583,16.8250483415452
0.00221611050930791,16.8289795089448
0.00252044703344568,16.8326292477116
0.00286659625108259,16.8360236000188
0.00326043036423414,16.8391870507536
0.00370879371240728,16.8421427893627
0.00421974983398095,16.8449130168207
0.00480293962383926,16.8475193400493
0.00547012277684481,16.8499833173513
0.00621858067332104,16.8522784233864
0.00705070274025862,16.8544137025935
0.00798219010859887,16.8564307156573
0.00903882435479414,16.8583761478134
0.0102692488960611,16.8603149279912
0.0117978771298156,16.8623845491688
0.0135375237361201,16.8644371964949
0.0149959689270445,16.8660014080791
0.0165329307779979,16.8675656196633
0.0179043309959567,16.8689420030271
0.0191225187835344,16.8701985059832
0.0202083361625065,16.8714005333191
0.0211583827613981,16.8725918194825
0.0219533774954495,16.8738132579383
0.0225559089170386,16.8751191494984
0.0228906037040591,16.8766140600571
0.0227131625010876,16.8786787565031
0.0220762856887908,16.8803370432665
0.0210835514102848,16.8819953300299
0.0199663720142849,16.8834830059359
0.0187288011456316,16.8849426820817
0.0173775894336447,16.8864342361193
0.0159223068910056,16.8879952668863
0.0149996592773021,16.8889825892724
0.0141084076334387,16.8899699116585
0.0119140274680763,16.892621146854
0.00987897127588278,16.8954504586291
0.00824637941080219,16.8980854610747
0.00690573247797794,16.9005901101587
0.00573231612216286,16.9031302139645
0.0046986788324435,16.9057368223265
0.00380707889123243,16.9083664646293
0.00307420654169705,16.9108885991829
0.00245998889961339,16.9133395664321
0.00193111057248086,16.9157759512955
0.00145618599378708,16.9183001650153
0.000987185592423936,16.9212022587043
0.000674820130000101,16.92342518945
0.000396703752121504,16.9256481201957
0.000178907295761588,16.9275805359797
-1.88922760832112e-06,16.9293334274578
-0.000165367442730664,16.9310502080753
-0.000322908286337536,16.9328369704578
-0.000485630410947512,16.9348337388103
-0.000675715650295969,16.9373820119225
-0.000980008926341653,16.9420039335947
-0.00121220058908569,16.946040728548
-0.00139316120044323,16.949527912097
-0.00157359532320412,16.9533351812829
-0.001780756650632,16.9581994132911
-0.00197725447178914,16.9636221152635
-0.00210646702577742,16.9683999816028
-0.00216736594090648,16.9727452691968
-0.00215043345095834,16.9766754903096
-0.00204823401724875,16.9802395951079
-0.00185508266162772,16.9834909902363
-0.00156597214598731,16.9864866070009
-0.00117336612445312,16.9892934156447
-0.000662481404528181,16.9919904164459
-5.56624404847655e-07,16.994688813249
0.000897853025528532,16.9976016278557
0.00208346685431185,17.0007473066644
0.00360168000778343,17.0041585124726
0.00495702904795044,17.0068483950375
0.00612313249675217,17.0089552239864
0.00740424291881637,17.0110620529352
0.00872638838674926,17.0130163658431
0.0100783992682838,17.0147963790447
0.0115239916626447,17.0164781656763
0.0131091896539747,17.0180947474577
0.0148493217779881,17.0196401707542
0.016786650135695,17.0211316952318
0.0189402017831269,17.0225642092653
0.0213463525983638,17.023944423282
0.0240328882377078,17.02527178026
0.0270350815328005,17.0265488325404
0.0303944403858342,17.0277790099898
0.0341561253517045,17.0289650456227
0.0383708041713349,17.030109555335
0.0431016327696522,17.0312164314755
0.0484217043226015,17.0322893129137
0.0544172673893325,17.0333318746964
0.0611918030951568,17.0343480035953
0.0688702757269175,17.0353417879061
0.0776080315092505,17.036317902414
0.0875994560140535,17.0372815638332
0.0990939511778101,17.0382389043497
0.112421232955153,17.0391975018569
0.128034267908287,17.0401672666057
0.14659160196581,17.0411622541325
0.168304488255139,17.0421688579141
0.193519761588541,17.0431849018708
0.222978522840124,17.0442242936565
0.257737508458723,17.0453082480678
0.298814201038259,17.0464564398263
0.34142247566315,17.047555037207
0.376785941805829,17.0484347640958
0.407183010899013,17.0491970334287
0.433779083786972,17.0498972348745
0.456854746401858,17.0505656387613
0.476257682248296,17.0512245424118
0.491465230310547,17.051895226141
0.501435010305833,17.052603540172
0.504096965414624,17.0533900261506
0.496551575726371,17.0542182612816
0.477424017765527,17.0550686758813
0.445304914455095,17.0559543546819
0.398541621007021,17.0568848102665
0.354456960219332,17.0575940764182
0.303942280970476,17.0583033425699
0.258714610975169,17.0588857980748
0.22032481500942,17.0593606822246
0.186807520204913,17.059771568301
0.156872127622826,17.0601434218313
0.129777427571943,17.0604906644541
0.105040521980574,17.0608230426149
0.0822929572337469,17.061148474872
0.0611915101673564,17.0614750777005
0.0412996668841065,17.0618143458023
0.0216827223060033,17.0621926145775
0.00744529423865568,17.0625069561677
-0.000707159970290652,17.0627080885433
-0.00814214809803901,17.0629092209189
-0.0144885262805004,17.0630977686684
-0.0203872049329922,17.063290615338
-0.0262775969384444,17.063504784386
-0.0319305411421619,17.0637368302758
-0.037202565321243,17.0639847511536
-0.0420150299958706,17.0642479125304
-0.0463278397064422,17.0645265879214
-0.0502583118594229,17.0648341961825
-0.0534631509254195,17.0651452731853
-0.0561484898757312,17.0654758810684
-0.0583276157141244,17.0658287153112
-0.0600138553335864,17.0662068500966
-0.061221173035906,17.0666140661147
-0.061962645739843,17.0670550339321
-0.0622489643027379,17.0675355813127
-0.0620867613646759,17.0680630949332
-0.0614759440819461,17.0686475307978
-0.0604044438820139,17.0693030329955
-0.0588445323439256,17.0700484388628
-0.0567405272129559,17.0709125641972
-0.0539757521470711,17.0719461702051
-0.0502397435788148,17.0732697858666
-0.0462596762301067,17.0746509761484
-0.0424282885593043,17.0759866296376
-0.0387874274625495,17.0772809331252
-0.0353569990088462,17.0785360731047
-0.0321466033821459,17.0797528823701
-0.0291595721318119,17.080931504571
-0.0263948873949886,17.0820717491418
-0.0238482870898674,17.0831732776262
-0.0215130273126092,17.0842356985471
-0.01938048515172,17.0852586103291
-0.0174406726742959,17.0862416130007
-0.015682687965253,17.087184299892
-0.0140841937929123,17.0880926282492
-0.0125425956701984,17.0890239710775
-0.0110629626882197,17.0899795182909
-0.00964930751235542,17.0909612415863
-0.00830547146478902,17.0919714416808
-0.00703506878328782,17.0930128329808
-0.00584143581415345,17.0940886485935
-0.00472757773716295,17.0952027804163
-0.00369611288152951,17.0963599700611
-0.00274921428197145,17.0975660757293
-0.00188854755944832,17.0988284565392
-0.00111520319485324,17.100156546103
-0.000429619415234785,17.1015627466109
0.00016851173675497,17.1030639004338
0.00067885823352491,17.1046784445765
0.00108172028481712,17.1063321444696
0.00139468507357721,17.1080434765149
0.0016328523311797,17.1098315199967
0.00181031480446548,17.1117213109182
0.00194053107476328,17.1137473953659
0.00203687109610526,17.1159610152194
0.00211355660592681,17.118446371018
0.0021879148826578,17.1213667864532
0.00228772274068563,17.1251109889357
0.00240994608615181,17.1289096360018
0.00255644717766071,17.1327025657306
0.00272538478508301,17.1365375384299
0.00291310672434549,17.1404532173152
0.00311640866244549,17.1444830700478
0.00333347411304278,17.1486583991232
0.00356410364446597,17.1530103005362
0.00380963079021687,17.1575712065526
0.00407276183689169,17.1623762940432
0.00435750707429592,17.1674648793329
0.00466935662891015,17.1728817364696
0.00499850148451046,17.1783906751978
0.0053349601113936,17.1837731354784
0.00568422024248128,17.1890753682468
0.00604799426064011,17.1942770682067
0.00643042755133491,17.1993931882218
0.00683547021471325,17.204431631084
0.00726748148397301,17.2094012713904
0.00773100397713368,17.214307838288
0.0082309183219807,17.2191549192698
0.00877253391826985,17.2239440454223
0.00936171854485088,17.2286751676315
0.0100050210632814,17.2333470512421
0.0107127497400964,17.2379761462153
0.011508895344738,17.24264197906
0.0124085382731094,17.2473377452835
0.0134351977456357,17.2520830688293
0.0146226750907039,17.2569168236671
0.0160288747908712,17.2619325238776
0.0177843212778883,17.2673921433507
0.0201993715405641,17.2739233943557
0.0217877833814354,17.277846273678
0.0234249908073541,17.2817691530002
0.0248557179420398,17.2852584977698
0.0260620995414799,17.2884253302033
0.0270633326970053,17.2914536744097
0.0278207918339371,17.2943620736443
0.0283120085952817,17.297178612696
0.028529009741509,17.3000288816346
0.0284274215091701,17.3030942734049
0.0278363004034459,17.3068623653331
0.0270123147961303,17.3099355757332
0.0259358848909827,17.3130087861334
0.0248535373695301,17.3156514623085
0.0237792108011448,17.3180508312736
0.0227045995564574,17.3203271733207
0.0216300256658653,17.3225363719331
0.0205586411322323,17.3247096804116
0.0194941370333122,17.3268675904219
0.0184401351864305,17.3290249831079
0.0174000236614163,17.3311934780309
0.0163769146507503,17.3333826856277
0.0153736417499415,17.3356009474426
0.0143927696949828,17.3378558111872
0.0134366035355123,17.3401543677198
0.0125072035500495,17.3425034908105
0.0116063927071849,17.3449100440097
0.0107357657048763,17.3473810569043
0.00989670468756802,17.3499238688751
0.00909038115591348,17.3525463104857
0.00831757612173275,17.355257567988
0.00755793336122026,17.3581511650022
0.00681535962556422,17.3612476549557
0.00609365568395678,17.3645719998342
0.00539682548921562,17.3681530535386
0.00472903599825716,17.3720242939899
0.0040945402801827,17.3762248212626
0.00349755494460141,17.3808008215441
0.00294207291870683,17.3858080092406
0.00243158628330824,17.3913162884844
0.00196885160366334,17.3974173257294
0.00155591126469655,17.4042338993021
0.00128049998336268,17.4099257405057
0.00107151764639621,17.4156175817093
0.000852489864950122,17.4235627048635
0.00068404016784741,17.4319080861192
0.000551782612072878,17.4409853756473
0.000452194718862819,17.4509853756473
0.000388518902055155,17.4609853756473
0.000350997482545652,17.4709853756473
0.000332637087292091,17.4809853756473
0.000328667057713162,17.4909853756473
0.000336077130427156,17.5009853756473
0.000353209361186059,17.5109853756473
0.000379465672168618,17.5209853756473
0.000415162173840788,17.5309853756473
0.000461535814895248,17.5409853756473
0.000517427832338769,17.5504467667357
0.000582209717389102,17.5591891259687
0.000656518671890183,17.5672602466057
0.000741371765245995,17.5747125795415
0.000838052419941935,17.5815948419602
0.000948078743258446,17.587952107637
0.00107320497863729,17.5938261512847
0.00121543862769494,17.5992557394102
0.0013770670393194,17.6042768725558
0.00156068975629026,17.6089230060462
0.0017692599548771,17.6132252556516
0.00200613328293782,17.6172125900887
0.00227512935318717,17.6209120088421
0.00258060633725506,17.6243487183742
0.00292755644323153,17.6275463148838
0.00332172890524293,17.6305269753337
0.00376979155209319,17.6333116642949
0.00427955211677136,17.6359203763154
0.00486026994947032,17.6383724363119
0.00552311405689692,17.640686897732
0.00626614220709531,17.6428415022022
0.00708817202435485,17.644835758925
0.00800146256181457,17.6467048198556
0.00902484237715378,17.6484850240286
0.0101896992663685,17.6502191103521
0.0115582835660489,17.6519723533999
0.0133824806291509,17.6539818745396
0.0150907371969448,17.6556391941523
0.0169535487676856,17.6572965137649
0.0186146496592473,17.6587094567871
0.0200591625937876,17.6599381013842
0.0213506434215761,17.6610825888055
0.0225028976179508,17.6621956623252
0.0235060726339029,17.6633162976204
0.0243335178635423,17.6644870830349
0.0249340746626114,17.6657744227002
0.0251898624722879,17.667338382891
0.0248416563105874,17.6691762281831
0.0238913365962428,17.6710140734752
0.0227852331919975,17.6725016195323
0.0215486685620699,17.6739069989653
0.0201753835094507,17.6753306535436
0.0186734440900672,17.6768173067483
0.0170502473958629,17.6784043021339
0.0153377287926186,17.6801375842306
0.0139336707645012,17.6816688547606
0.0115491730996842,17.684577198553
0.00958147743235974,17.6873768694766
0.00802138412637302,17.6899646784121
0.0067266779564897,17.692459211684
0.00559510874341903,17.6949961862797
0.00460105334687978,17.6976043437093
0.0037264532098583,17.7003069516246
0.00297145714313027,17.7030686506768
0.00236153901391971,17.7057027210903
0.00185776558400769,17.7082504215345
0.00142889771225098,17.7107757277296
0.0010479960911772,17.7133833546816
0.000681588715623453,17.7163212357378
0.000408390525648295,17.7188705694448
0.000169652597314554,17.7214199031519
-6.48752412839831e-06,17.7235371630206
-0.000148155836098211,17.7254129868583
-0.000273830108157783,17.7272254203597
-0.000392848309234154,17.7290872428761
-0.000513167527716253,17.7311307448271
-0.00064796657044846,17.7336367466406
-0.000880202238988849,17.7385749747052
-0.00105886814144699,17.7430227240257
-0.00118843982076663,17.7466894431108
-0.00131013567305141,17.7505692507478
-0.00143973474194769,17.7553991813755
-0.00154648330089351,17.7606109415307
-0.00159880580019035,17.7652394431715
-0.00159257682131925,17.769443440775
-0.00151966262718617,17.7732477906634
-0.00137254687731316,17.7766981950739
-0.00114379244107514,17.7798527560327
-0.000824835894763037,17.7827733888662
-0.000403918437409791,17.7855247308736
0.000136851073299449,17.788174304526
0.000824502488897607,17.7907907699829
0.0017098803486127,17.793476075796
0.00288547827035151,17.7963701904844
0.00441639541106608,17.7994757005571
0.00577680324202909,17.8018327899537
0.0073309640646123,17.8041898793504
0.00887381131164193,17.8062404339374
0.0104286185678648,17.8080584263658
0.0120906528048592,17.8097667147602
0.0138536724244945,17.8113536378504
0.0157861358316331,17.8128715981647
0.0179240699549186,17.8143310547935
0.0202813297677014,17.8157253062592
0.022906830416186,17.817068120179
0.0258350411199302,17.818361022088
0.0291038262773268,17.8196058472152
0.0327622235488865,17.8208069226567
0.0368616864786041,17.8219669629058
0.0414607596001991,17.8230887254261
0.0466326953860258,17.8241762673977
0.0524614199456227,17.8252331537705
0.0590475065776097,17.8262632178617
0.0665117378971745,17.8272704598101
0.0750060609493409,17.8282597300056
0.0847199572065828,17.8292363451662
0.0958973155782869,17.8302066180679
0.108862178922671,17.8311784337622
0.124063047470843,17.8321622307372
0.142160542843798,17.8331731041039
0.163297105865636,17.8341939885861
0.187864749189349,17.8352258076223
0.216612133304015,17.836283773642
0.250629098760186,17.8373915354513
0.290226334598571,17.8385504295019
0.330474921439098,17.8396414678885
0.364530780861055,17.8405344623074
0.394097334648415,17.8413165927586
0.420032372409086,17.8420370390124
0.442516994779058,17.8427242549283
0.461369877492519,17.8433996911564
0.476077569605386,17.844083600821
0.485660848226513,17.8447996081865
0.48827271271439,17.8455820768941
0.481106876686605,17.8464201318932
0.462690130222188,17.8472758387561
0.431715604728429,17.8481617646768
0.386666688768765,17.8490875821881
0.344512964417916,17.8497871106488
0.296213467460537,17.8504866391095
0.252659521056353,17.8510651032354
0.215448643886761,17.8515395535767
0.182809772858488,17.8519517132296
0.153571966651893,17.8523256164668
0.127055473772019,17.8526752946949
0.102811993475043,17.853010323154
0.0804954339797238,17.8533385372917
0.0597797793475368,17.8536680032206
0.0402468513725623,17.8540101477885
0.0210011423628282,17.8543909869335
0.00696697951850536,17.8547087396951
-0.00114367870003364,17.854913964059
-0.00853554780389338,17.8551191884229
-0.0148325657828068,17.8553113209746
-0.0206680276298655,17.8555073625687
-0.026486670712423,17.8557248628045
-0.0320646066766705,17.8559603761276
-0.0372617808632077,17.856211902584
-0.0420016718584526,17.8564788201017
-0.046243940955266,17.856761419896
-0.0502884723268604,17.8570902475233
-0.0534013669988766,17.8574068685638
-0.0559973392704163,17.8577431409349
-0.0580922869180601,17.8581020603657
-0.0596993933865949,17.8584867721853
-0.0608322897822062,17.8589011370631
-0.0615035936998715,17.8593499216821
-0.0617234334425434,17.8598390721521
-0.0614977861582629,17.8603761250927
-0.0608254835507421,17.8609714419785
-0.0596934153748792,17.8616393419705
-0.058072610841929,17.8623991461049
-0.0559053799753386,17.8632805504481
-0.0530704610293832,17.8643363750669
-0.049238393548722,17.8656950827048
-0.0453053188221632,17.8670659157424
-0.0415306965896896,17.8683910530146
-0.0379515938179285,17.8696745942902
-0.0345855704331907,17.8709186441993
-0.0314406817995622,17.8721240207011
-0.0285190885443219,17.87329088554
-0.025818829956106,17.8744190800851
-0.0233348773909847,17.8755083012953
-0.021059877176447,17.8765581905804
-0.0189847428534833,17.8775683728858
-0.0170991596751505,17.8785384656726
-0.0153920244391065,17.8794680684495
-0.0138059795222275,17.880384023847
-0.0122784711593252,17.8813233306432
-0.0108141729858201,17.8822874557781
-0.00941704205865567,17.8832784741542
-0.0080908429693142,17.884298815576
-0.00683909393876093,17.8853513551145
-0.00566501478435505,17.8864395284771
-0.00457147226099304,17.887567486934
-0.00356092264742767,17.8887403101382
-0.00263535094612236,17.8899643063882
-0.00179620527797427,17.8912474498677
-0.00104432366171015,17.8926000420342
-0.000379847725382692,17.8940357599249
0.000197887546716751,17.8955734186979
0.000679888019067214,17.8971992265302
0.00106051027594873,17.8988700822606
0.00135646473578202,17.9006043014449
0.00158258434914564,17.9024226482975
0.00175283004721791,17.9043527583198
0.00188072991045706,17.9064335874896
0.00198005060388617,17.9087246300012
0.00206609169195365,17.911328102128
0.00215928233443413,17.9144591420309
0.00228056426031198,17.9181939910234
0.002426872281126,17.9219985253769
0.0025987872397618,17.9258479693361
0.00279382201974106,17.9297800514811
0.00300828306801003,17.9338281516503
0.00323925338458214,17.9380236234797
0.00348542239577918,17.9423976316404
0.0037472763857302,17.9469827146627
0.00402702783976997,17.9518142282468
0.00432853721964492,17.9569316724419
0.00465743662366206,17.9623799802719
0.00499839360939457,17.9678413306658
0.005347443347172,17.9732027370501
0.00570837779498714,17.9784766274987
0.00608390041767575,17.9836555072801
0.00647811904093977,17.9887504311642
0.00689523566847273,17.9937700015248
0.00733974851319182,17.9987221768251
0.0078163825564213,18.0036122903488
0.00833020440554705,18.008443463636
0.00888673011055632,18.0132168614202
0.00949205130546088,18.0179321159753
0.0101529645578791,18.0225877831976
0.010884517509725,18.0272266262329
0.0117075893859719,18.0318986427764
0.0126393831924858,18.0366047413251
0.0137053951604679,18.0413675219841
0.0149438009531591,18.0462354817854
0.0164236369183793,18.0513276754974
0.0183187865344259,18.0570068180039
0.0207387968498894,18.0633590694419
0.022279237773157,18.0671076662959
0.0238445623198282,18.0708562631499
0.0252063531823932,18.074226563663
0.0263545266968604,18.0773383088416
0.027297055548978,18.080353151017
0.0279781061988889,18.0832236144466
0.0283928251150156,18.0860357265019
0.0285257157120006,18.088924001235
0.0283134461325435,18.0921099484232
0.0274609772067496,18.0964065795085
0.0265938363544781,18.0992299468605
0.0255334682076311,18.1020533142124
0.0244588322066707,18.1045802805698
0.0233851869430666,18.1069255288086
0.0223105387976185,18.1091727362793
0.0212369031384582,18.1113657989214
0.0201677703119642,18.113531151878
0.0191068457272831,18.1156868726157
0.0180576799859947,18.1178464635113
0.0170235670319247,18.1200206961087
0.0160075216957084,18.1222186361176
0.0150122820805611,18.1244482708508
0.0140403219401292,18.1267169189207
0.0130938593366614,18.129031531912
0.0121748698340076,18.1313989155906
0.0112850976258656,18.1338259131939
0.0104260595579109,18.1363195857175
0.00959906367721105,18.1388873430516
0.0088052103519713,18.1415371255433
0.00803659961842344,18.1443106528412
0.00728251427966725,18.1472733915091
0.00654681277161419,18.1504473904974
0.00583337204785126,18.1538588677421
0.00514625682878278,18.1575381671902
0.0044896727689409,18.1615205344009
0.00386787256063364,18.1658472352576
0.00328500880493556,18.1705672818197
0.00274492576710865,18.1757403400042
0.00225085335710096,18.1814424642462
0.00180523601834604,18.1877744863501
0.00141534877266983,18.1947599515713
0.00109601497790094,18.2022974887074
0.000894275440286188,18.2089218378474
0.000708712473941577,18.2170613292129
0.000560125579581565,18.2259798288292
0.000443127003339255,18.2359798288292
0.000364878794780381,18.2459798288292
0.000314590204819458,18.2559798288292
0.000284422556396609,18.2659798288292
0.000268785132412535,18.2759798288292
0.000263868816981799,18.2859798288292
0.000267217771470934,18.2959798288292
0.000277366440710997,18.3059798288292
0.000293580427269108,18.3159798288292
0.0003157040023875,18.3259798288292
0.000344098586443624,18.3359798288292
0.000379660239525052,18.3459798288292
0.000423920069544762,18.3559798288292
0.000476567753270272,18.3655338213797
0.000537002311334918,18.3743729300568
0.000605999559235885,18.3825400988185
0.000684620861076382,18.390086525628
0.000774132020781234,18.3970600782456
0.000875992584073013,18.403505191451
0.000991866899258667,18.4094631539441
0.00112364525640201,18.4149723620432
0.00127347120345007,18.4200685362008
0.00144377314708627,18.4247849176642
0.00163730233761378,18.4291524531412
0.00185717736049381,18.4331999698709
0.00210693844473317,18.4369543399015
0.00239061251600016,18.4404406404303
0.00271279506601783,18.4436823175334
0.00307875314642921,18.4467013556404
0.00349455862788255,18.4495184564466
0.00396726576530921,18.4521532398246
0.00450515428072193,18.454624482029
0.00511807502343025,18.4569504144391
0.00581796329753327,18.4591491299995
0.00659145346155115,18.4611718907436
0.0074466786541539,18.4630494985124
0.00839706391540173,18.4648152451852
0.00946297480581067,18.4665034259659
0.010678892653626,18.4681556833554
0.0121378984611349,18.4698635578033
0.0141310491785463,18.4718674919665
0.0158171554859519,18.473367610117
0.0176395347264111,18.4748677282675
0.0193390857176185,18.4762113693638
0.020832698143529,18.4773942811675
0.0221717313006279,18.4785008204688
0.023368222866989,18.4795803303219
0.0244112870609323,18.4806707916357
0.0252726387082826,18.4818149830458
0.0258975622439222,18.4830818239815
0.026155287627993,18.4846465390789
0.0257853784055394,18.486415769996
0.024819704851267,18.4881850009132
0.0236937190164788,18.4896324388682
0.0224262579666692,18.4910128541816
0.0210126150167704,18.4924190839625
0.0194608994670479,18.4938946331954
0.0177776639828793,18.4954777043306
0.0159887698046393,18.4972169004352
0.0146394706516209,18.4986246846212
0.0120728121712363,18.5016135661039
0.00996438270371465,18.5044874139861
0.00831367761459438,18.5071187047347
0.00697408689140703,18.5096016195725
0.00580638199929861,18.512118289472
0.00478169304496204,18.5147000984751
0.00388069537034436,18.5173704449748
0.00308797147031326,18.5201525140817
0.00242774565647463,18.5229018428558
0.00189922195073954,18.5254943494683
0.00146556706926393,18.5279734089759
0.00110046411461024,18.5303853839341
0.000786771759416772,18.5327645932436
0.00051384033041031,18.5351278976663
0.000273195135468514,18.5374944419194
5.40229260205991e-05,18.5399333483685
-0.000164119569403696,18.5426871799039
-0.000318940933127728,18.5448759009801
-0.000459985667781055,18.5470646220563
-0.00057087836533889,18.5489300162824
-0.000664018444354406,18.5506030956173
-0.000749586823552908,18.5522306847253
-0.000833445671519316,18.553913520528
-0.00092149575778922,18.5557770682397
-0.00102535865345265,18.5581056383175
-0.00120581549017796,18.5624913681664
-0.0013570066463889,18.5665059641666
-0.00147765604481272,18.5699425405877
-0.00159903431154712,18.5736298441825
-0.0017423801377356,18.5783593098423
-0.0018877257704644,18.5839193312702
-0.00197889259263506,18.588738159256
-0.002012627654079,18.5930650302129
-0.00197960734750375,18.5969286478728
-0.0018719575937489,18.6004148430592
-0.00168146963823647,18.6036050699968
-0.00139955681476654,18.6065612937974
-0.00101853152729954,18.6093221156957
-0.000529173510129106,18.6119294852661
8.67832932375993e-05,18.6144492006186
0.000866549294462145,18.616975194584
0.00190573938985893,18.6196970195179
0.00330453287959387,18.6227120838851
0.00505809994106149,18.625896738345
0.00645791701686082,18.6281272173723
0.00802033781253116,18.6303576963996
0.00954131028750245,18.6322922441051
0.0111231003019598,18.6340795626507
0.0127471611285689,18.6357005920771
0.0145221248006786,18.6372572292285
0.0164651937824409,18.6387447417966
0.0186118579558359,18.640172521949
0.0210019716048315,18.6415487207057
0.0236620216170429,18.6428713928328
0.0266355510754325,18.6441464193179
0.0299601004449455,18.6453746852045
0.0336811651381561,18.6465588311758
0.0378534679144236,18.6477024644001
0.0425376902653682,18.648808552203
0.0478040381240732,18.6498801383205
0.0537367776794748,18.6509207582817
0.0604382446105778,18.6519344002213
0.0680307243301989,18.6529250680703
0.0766641984871829,18.6538971525001
0.0865258147292442,18.6548556006479
0.0978530464723385,18.6558060978145
0.110958560443136,18.6567557248719
0.126264882803172,18.6577134543412
0.144372393459966,18.65869159115
0.165738307017383,18.6596887717495
0.19051518753609,18.6606920241334
0.219391515208061,18.6617134720546
0.253319044955061,18.6627709567481
0.29379421054174,18.6638957496691
0.329314349188172,18.6648030566039
0.366586643141764,18.6657103635387
0.399612590143327,18.6665045958781
0.428448628722093,18.6672176629755
0.453648788505369,18.6678864811022
0.475274399869065,18.6685364318872
0.492996743492184,18.6691890676833
0.506045852240273,18.6698680359715
0.512891880795324,18.6706070837717
0.510597155302772,18.6714228467417
0.49710810551347,18.6722554786631
0.471145043526186,18.673120433212
0.431072654095751,18.6740289970646
0.375083628418029,18.6749901325431
0.332235880087228,18.6756097355898
0.284987313321708,18.6762293386364
0.242704165442753,18.6767517724054
0.206225683146847,18.6771920182592
0.174037641783902,18.6775814468968
0.145126825958367,18.6779391155165
0.11887086073733,18.6782769203944
0.0948360041333055,18.6786035641141
0.0726645239903313,18.6789268331807
0.0519805492408287,18.6792558679421
0.0321968504951544,18.679606450287
0.0114491478870293,18.6800307385191
0.00105483866426905,18.6802753334365
-0.00622947645807979,18.6804644885825
-0.0128844147556806,18.6806536437286
-0.0187395802613505,18.6808362383729
-0.0246978519737563,18.6810417320253
-0.0304912513723449,18.6812661326405
-0.0359433974112741,18.6815068213062
-0.040956036496546,18.6817627616024
-0.0454774275236734,18.6820339504072
-0.0494816688185038,18.6823211050186
-0.0532047836400418,18.6826506899342
-0.0560766780950476,18.6829731836342
-0.0584323425842899,18.6833166088407
-0.060288393011439,18.6836842064781
-0.0616589557872717,18.6840795206213
-0.0625576952244511,18.6845069186303
-0.062996340407835,18.6849718339879
-0.0629830721266987,18.6854811222214
-0.062520529808856,18.6860436101562
-0.0616005211554246,18.6866724200062
-0.0602006630328651,18.6873845130666
-0.0582751990227754,18.6882050341084
-0.0557306610860378,18.6891761212962
-0.0523417895407727,18.6903870199542
-0.0482986588501106,18.6917882774224
-0.0443825481402082,18.6931414518741
-0.0406457896333657,18.6944524444649
-0.0371138252613942,18.6957240536007
-0.0337994321954761,18.696957404613
-0.0307080874910651,18.6981527716886
-0.0278403767285041,18.6993100115946
-0.0251932894285982,18.7004287917657
-0.0227610607777619,18.7015087083003
-0.0205358128116965,18.7025493424725
-0.0185080927571297,18.7035502809883
-0.0166673451034833,18.7045111135077
-0.015002328923431,18.7054314148369
-0.0134328062717225,18.7063522424194
-0.0119230625194376,18.7072966826708
-0.0104775103823814,18.7082663853476
-0.00910007150479277,18.7092634941319
-0.00779446520549927,18.710290526415
-0.00656415599874472,18.711350467803
-0.00541230128619219,18.7124468949436
-0.00434169663348133,18.7135841412693
-0.00335471848499142,18.7147675259604
-0.00245326367523111,18.7160036791134
-0.00163868430431294,18.7173010189553
-0.000911715124178556,18.7186704805689
-0.000272387883264788,18.7201266846348
0.00028007858831846,18.7216899325013
0.000731575719818086,18.723323873212
0.0010854739810937,18.725006929947
0.00135782494189613,18.726757462858
0.00156313808331632,18.7285974908252
0.00171510111632098,18.7305566375575
0.0018270338122421,18.7326773142518
0.00191259444017812,18.7350257120521
0.00198721850154481,18.7377195366822
0.00207251565697461,18.7410239049909
0.00218279847466554,18.7447714206109
0.00232796481446464,18.7488289680717
0.00249529227651226,18.7528248244748
0.00267305027053132,18.7566645029511
0.00285886634266965,18.7604489265268
0.00305159881485811,18.7642419799285
0.00325128570417535,18.7680889574963
0.00345900453141658,18.7720263628005
0.00367668403061748,18.7760865417357
0.00390694209573608,18.7803003161086
0.00415297658465709,18.7846987467834
0.00441854049680182,18.7893145092179
0.00470806707141498,18.7941833469915
0.00502700646897252,18.7993453710561
0.00537674434467137,18.8047586238041
0.00573423273377257,18.8100148875056
0.00610920202542731,18.8152266955847
0.00650120059639,18.8203429299769
0.0069149120605043,18.8253810263931
0.0073544463937543,18.8303442393433
0.0078247833366019,18.8352406733299
0.00833117409196402,18.8400750444381
0.00887933835101335,18.8448502517717
0.0094755040573407,18.8495670459059
0.0101265371218868,18.8542246262373
0.0108462275781748,18.8588589800194
0.0116561289812559,18.8635273342837
0.0125727845952401,18.8682284320711
0.0136208791120391,18.8729834021273
0.0148367652439923,18.877836614011
0.0162846841442574,18.8828960474401
0.0181189891564609,18.8884790727425
0.02053556648399,18.8949009498268
0.0220940080288281,18.8987161685193
0.0236871082442774,18.9025313872119
0.0250762723671568,18.9059476653867
0.0262480794924824,18.9090803971355
0.0272147801115587,18.912099353799
0.027927193698562,18.9149838008143
0.0283735872147948,18.9177959336743
0.0285417451365565,18.9206659577152
0.0283770399318006,18.9237962960974
0.0276488918010429,18.927829940948
0.0268008386877322,18.9307544023842
0.0257355391103704,18.9336788638205
0.0246583385060784,18.9362548599256
0.023584681374118,18.9386234805567
0.0225102451330935,18.9408829631427
0.0214363835943298,18.9430822817137
0.0203664564929109,18.945249980373
0.0193041732683903,18.9474051959923
0.0182531250894342,18.949562023657
0.0172166568419338,18.9517315802053
0.0161978354184231,18.9539231305287
0.0151994505116629,18.9561447624535
0.0142240250420951,18.9584038252391
0.0132738243875635,18.9607072435177
0.0123508700650917,18.9630617437829
0.011456948437074,18.9654740457302
0.0105936176255912,18.9679510333288
0.00976222390834527,18.9704998868356
0.00896390259838421,18.9731282573099
0.0081931360237686,18.9758682985696
0.00743623528873587,18.9787937181028
0.0066970623711475,18.9819258370659
0.00597946235671262,18.9852901626559
0.00528747680770441,18.9889161905399
0.00462530109763258,18.9928381491764
0.00399719937373693,18.9970960466851
0.00340737014154566,19.0017372470205
0.00285974751651883,19.006819129647
0.00235771394803891,19.0124142029672
0.00190389443724042,19.0186180480041
0.00150266585319705,19.0255113593569
0.0011666281382151,19.0329387627818
0.000897254146393333,19.0412691240497
0.000739453058853808,19.0481575366968
0.000584969529813251,19.0572440104947
0.000474922217658312,19.0664317427319
0.000393689173470674,19.0764317427319
0.000342378915984282,19.0864317427319
0.000313024448976506,19.0964317427319
0.000299919515431311,19.1064317427319
0.000299187626889347,19.1164317427319
0.000308421666438003,19.1264317427319
0.00032636229190275,19.1364317427319
0.000352668520023241,19.1464317427319
0.000387812046275479,19.1564317427319
0.000433105160994698,19.1664317427319
0.000488552650910551,19.1760644440299
0.000552965926104395,19.1849634200561
0.000627016599379852,19.1931720245756
0.000711770889753948,19.2007450885434
0.000808559571570432,19.207733608467
0.000918948812539648,19.2141846262597
0.00104474323355238,19.2201416193835
0.00118800455734885,19.2256448382489
0.00135107969758342,19.2307315871495
0.00153663534752446,19.2354364731052
0.00174770098751808,19.2397916351037
0.0019877207727585,19.2438269584718
0.00226061821085888,19.2475702740368
0.00257087540226789,19.2510475525579
0.00292363531998761,19.2542831054423
0.00332483394739107,19.2572997970825
0.00378137669079289,19.2601192772393
0.00430138215465182,19.2627622560935
0.0048945306354897,19.2652488528705
0.00557258608825239,19.2675990707024
0.00632888233916635,19.2697774197228
0.00716761206814231,19.2718011351923
0.00810319247263767,19.273707803261
0.00915842828504429,19.2755378624127
0.0103739909258625,19.2773436183756
0.0118500650892087,19.2792300829125
0.0140445766634743,19.2816284801538
0.0155732871999953,19.2831194282542
0.0171915208143068,19.2846103763546
0.0186680369182866,19.2859442005049
0.019981157210593,19.2871556846507
0.0211558729338179,19.2883103461057
0.0221915224752922,19.2894518381482
0.0230702398691898,19.2906196515176
0.0237560322619042,19.2918647684316
0.024177207594923,19.2932822936465
0.0241174277252442,19.2951932386527
0.0235263240586746,19.2968469636388
0.0225273954993614,19.2985006886249
0.0213947636728653,19.2999570576082
0.0201304280598565,19.3013821766534
0.0187392937580983,19.302841045847
0.0172307774844676,19.3043723596843
0.0162984724908121,19.3053142976073
0.015382877985989,19.3062562355304
0.0143776483683614,19.307337771174
0.0120498051379878,19.3100864256143
0.0099607237117357,19.3129411863589
0.00830038398108823,19.3155837118429
0.00694890178067582,19.3180782880024
0.00576846594551134,19.3206058417466
0.00473029139655567,19.323198120563
0.00381506318247277,19.325878767067
0.00303906987847237,19.3285520400651
0.00241404918481558,19.3310701993655
0.00190186249106207,19.333458628932
0.00147341645742901,19.3357499644737
0.00110675182875494,19.3379819846395
0.000784769810236741,19.3402005661692
0.000492428752718506,19.3424737374473
0.000210810119721945,19.3449487961316
-4.25730591001791e-05,19.3474655188138
-0.000215596046460077,19.3493697678877
-0.00037485051014621,19.3512740169616
-0.000506378712836236,19.352967347838
-0.000622412763621955,19.3545590133277
-0.000732232041739287,19.3561550374672
-0.000842876896058168,19.3578554174416
-0.000963878694817565,19.3598250790853
-0.00112387017632266,19.3626107768132
-0.00131772733367427,19.3662659049357
-0.00146895990598597,19.3693302819994
-0.00160703032940867,19.3722893522328
-0.00175652696122644,19.3756686786179
-0.00193604782534124,19.3799874096339
-0.00215494178910487,19.3857941505793
-0.00231144534534703,19.3908497892416
-0.00240475298953203,19.3954215883745
-0.00242317552196071,19.399516086943
-0.00235865645971362,19.4031883036903
-0.00220597164943766,19.4064992962511
-0.00196120164987338,19.4095164110621
-0.00161886713696216,19.4123106318501
-0.00116951458185425,19.414950213543
-0.000594197167327294,19.4175146463197
0.000150864313657994,19.4201270786984
0.00117591732236833,19.4230237374664
0.0024983502120193,19.4261297443035
0.00406154094164411,19.4293164831466
0.00545766722299271,19.4318889014633
0.0066551269278401,19.4339249433238
0.007958967934622,19.4359609851843
0.00929127657675146,19.4378421309203
0.0106490390873769,19.4395559645362
0.0121210709617969,19.4412006142685
0.0137258422466995,19.4427726351623
0.0155055535125935,19.4442905624794
0.017484809178318,19.4457527259423
0.0196970242714049,19.4471634887325
0.0221645955733964,19.4485191893139
0.0249256518752236,19.4498248655424
0.0280150933583229,19.4510818310494
0.0314690788521187,19.4522909721594
0.0353382395239646,19.4534567677515
0.0396767675144435,19.4545822897324
0.0445478636023671,19.4556707929418
0.0500260355560061,19.4567257206415
0.0561981787340213,19.4577504256663
0.0631716326194568,19.4587489706149
0.0710748253386714,19.4597253959146
0.0800653318283504,19.4606840923767
0.0903398264369733,19.4616299838612
0.102148494626808,19.4625687600912
0.115819051563379,19.4635073687295
0.131794115226736,19.4644546368211
0.150700092481587,19.4654225902413
0.172961237406064,19.4664075939836
0.198769968329265,19.4673987477173
0.228835144235089,19.4684077552251
0.264133338215139,19.4694519262982
0.306210701212005,19.4705623253293
0.342025848882855,19.4714329475167
0.379484197540803,19.4723035697041
0.412720532460849,19.4730693171575
0.441726392341133,19.4737590149675
0.467068717783045,19.4744086832105
0.488797603174013,19.4750434564685
0.506547477096368,19.4756853644062
0.519463355966658,19.4763599152887
0.525782915417776,19.4771065910953
0.522340589495936,19.4779135415934
0.507371800654744,19.4787423932693
0.479486994828298,19.4796089492515
0.436907332591589,19.480524553803
0.377685089401033,19.4814977734404
0.333979887282481,19.4821071050426
0.286082211982469,19.4827164366449
0.243353565955902,19.4832309262515
0.206534979021518,19.4836653385991
0.174075359083322,19.4840501942869
0.144941229119562,19.4844041196842
0.118496115141074,19.4847388149426
0.0942946184672636,19.4850629188545
0.071966247135212,19.4853842847407
0.0511139103695286,19.4857123827317
0.0310902165391045,19.486064307113
0.00960796666406784,19.4865027819926
0.00040354141299957,19.4867190094202
-0.0079245745911231,19.4869352368478
-0.014394351014328,19.4871204969586
-0.020369140963549,19.4873086496092
-0.0263532282936834,19.4875180178836
-0.0321093414929683,19.4877451601691
-0.0374873835726655,19.4879880324828
-0.0424045901470319,19.4882459571416
-0.0468183965830792,19.4885191657168
-0.05070909103869,19.4888085467871
-0.0543123937467173,19.4891415277843
-0.05706753654347,19.4894671762955
-0.059307116844786,19.489814394238
-0.0610483465182638,19.4901865959163
-0.062305620002596,19.4905875373133
-0.0630924344825799,19.491021859446
-0.0634198878684562,19.4914953621853
-0.0632949628775176,19.4920154099702
-0.0627179685189931,19.4925918291167
-0.0616769538837956,19.4932388312551
-0.0601438286507599,19.4939753064674
-0.0580617172071494,19.4948302570946
-0.0553105472780087,19.4958550790835
-0.0515666949258654,19.4971734501009
-0.047531086587108,19.4985627832387
-0.0436378517597011,19.499907290181
-0.0399314371889689,19.5012111387815
-0.0364334030950515,19.5024764192877
-0.0331545657440896,19.5037038782311
-0.0300992642182727,19.5048935826964
-0.0272673451831415,19.5060452748829
-0.024655281269507,19.507158558478
-0.0222569332901218,19.5082329939105
-0.0200641521106608,19.5092681419365
-0.0180672954105497,19.5102635762152
-0.0162556856543353,19.5112188760386
-0.0146180167155966,19.5121336053494
-0.0130607095789766,19.5130574213066
-0.011563933337673,19.5140050089523
-0.0101319517982108,19.5149781283284
-0.00876866782851223,19.515978966448
-0.00747777627840278,19.5170100956606
-0.00626271248154394,19.5180745708651
-0.0051265999787177,19.5191760571016
-0.00407219600330431,19.5203190022284
-0.00310183458604711,19.5215088762844
-0.00221736667948214,19.5227525127957
-0.00142009592537301,19.5240586120899
-0.000710707324257841,19.5254385143988
-8.9183442225065e-05,19.5269074489202
0.000445302744515202,19.5284866863774
0.000875993608701725,19.5301259436625
0.00121131816952917,19.5318168157686
0.00146694406766525,19.5335777608994
0.00165717161683724,19.5354316177261
0.00179550611371342,19.5374093281907
0.00189511688859517,19.5395556302714
0.00196956032903542,19.5419413359548
0.00203430169242359,19.5446952972753
0.00211166761393496,19.5481219720977
0.00221266489183666,19.5518852973692
0.00235068920893275,19.5560156521924
0.00250938052426476,19.5600377064654
0.0026775506881247,19.563887326975
0.00285291869142273,19.5676733241487
0.00303450453223948,19.5714625654137
0.0032224741212436,19.5753017258641
0.00341796246550798,19.5792280147507
0.00362287928233519,19.5832741427458
0.00383975018854693,19.5874710972415
0.00407161273126486,19.5918499895963
0.00432199053327402,19.596443461111
0.00459500396913322,19.601287143103
0.00489567703388193,19.6064210253064
0.00523053431241233,19.6118907418866
0.00557241968398928,19.6171961784708
0.00593110901948807,19.6224606689567
0.00630558459602485,19.6276249242657
0.006700306416022,19.6327078296529
0.00711905784975746,19.6377123816534
0.00756651684571746,19.6426477042585
0.00804758366503282,19.6475193697107
0.00856758896213088,19.6523311944886
0.00913231828590326,19.6570846918723
0.00974813856055786,19.6617796303075
0.01042213150891,19.6664146117025
0.0111754998722966,19.6710655937718
0.0120248884366753,19.6757458770748
0.0129902569289096,19.6804660402346
0.014099875427747,19.685253515732
0.0153983502397008,19.6901713650424
0.0169727336738236,19.6953805220264
0.0190840418753062,19.7014461970621
0.0208493935456322,19.705986705461
0.0227231084319168,19.7105272138599
0.0242873423214755,19.7142888713717
0.025586848399176,19.7175709503435
0.0266754521339918,19.7206402110157
0.0275481842156995,19.7236244919525
0.0281514321610726,19.7264658868175
0.028486657085702,19.7292844743618
0.0285287621499973,19.7322282977831
0.0281858567055775,19.735585497797
0.0271714117483117,19.7399323857152
0.0262731972603916,19.7426191425229
0.0252144439108199,19.7453058993305
0.0241416780876936,19.7477592662813
0.0230677249424865,19.7500664541568
0.0219930678980673,19.7522925292402
0.0209204983864184,19.7544740909225
0.0198536507434488,19.7566342917481
0.0187962022911395,19.7587894690207
0.0177516284052097,19.7609521013997
0.0167231359862921,19.7631323216076
0.0157136531204915,19.765338782913
0.0147258339740013,19.7675792066292
0.0137620716308819,19.7698607467715
0.0128245085721086,19.7721902604854
0.0119150459377962,19.774574522058
0.0110353579231451,19.7770203883218
0.0101868945993676,19.7795349764674
0.00937089869116027,19.7821257981544
0.00858840851716115,19.7848009376857
0.0078242211317325,19.7876311666827
0.00707583973238214,19.7906569961352
0.00634708852618698,19.7939019012995
0.0056419183074386,19.7973933394466
0.00496445900931246,19.801163130482
0.00431895814485907,19.8052483465463
0.0037096775394555,19.8096925755257
0.00314072409718071,19.8145480127175
0.00261582431182427,19.8198790455037
0.00213802361873813,19.8257691516365
0.0017095960317854,19.8323303721478
0.00134289170414964,19.8394775423174
0.00105169958574662,19.8472085864852
0.000852371892157952,19.8547236516069
0.000693538250872667,19.8628932664707
0.000567277239930387,19.871932520717
0.000473145432335781,19.881932520717
0.000414980067617184,19.891932520717
0.000383514974182903,19.901932520717
0.000372208485402931,19.911932520717
0.000376736746892446,19.921932520717
0.000394618363080589,19.931932520717
0.000424903245643977,19.941932520717
0.000467996726727073,19.951932520717
0.000523493675248688,19.9615888354212
0.000589534892078122,19.9705040999508
0.000666374996020487,19.9787222111277
0.00075486823205503,19.9862995246726
0.000854031690631972,19.9931497623363
0.000977327009797395,20
