ecg,time
0.000248647833269556,15.0054321746104
0.00026865064748407,15.0154321746104
0.00029200800452485,15.0254321746104
0.000319512608335558,15.0354321746104
0.000352224473260814,15.0454321746104
0.00039158414184811,15.0554321746104
0.000439588934483113,15.0654321746104
0.000495560773780761,15.0748921996227
0.000559414134336643,15.0836328734548
0.000632138413947767,15.0917009494207
0.000714938633874303,15.0991482808554
0.000809196329504962,15.1060233767706
0.000916478954193666,15.1123713391497
0.00103856082563212,15.1182341009088
0.00117744964130632,15.1236506483094
0.00133541773444676,15.1286572210414
0.00151503698592308,15.1332875045059
0.00171922082297201,15.1375728167053
0.00195127277668436,15.1415422888643
0.00221494618101861,15.1452230375465
0.00251451612505288,15.1486403368611
0.00285487037222951,15.1518177966214
0.00324162548860322,15.154777547687
0.00368127826367079,15.1575404409375
0.00418141077270842,15.1601262751152
0.00475097595694503,15.1625540718014
0.00540071151688002,15.1648424298415
0.00613110034555074,15.1669762670422
0.00693801454106961,15.1689456747345
0.00783223363719856,15.1707842526765
0.00882998349184953,15.172525805476
0.00995706681933792,15.174207596434
0.0112607314307896,15.1758805094931
0.0129095118952654,15.1777027420082
0.0154261016336645,15.1800783269712
0.0170289571017087,15.1814364670229
0.0187081086301159,15.1827946070746
0.0202371085507926,15.1840193129625
0.0216065774444921,15.1851500658054
0.0228339669691868,15.1862408055693
0.0239137465283234,15.1873309833084
0.02482316902755,15.1884604863479
0.025517817591416,15.1896868136896
0.0259025184669747,15.1911336769859
0.0255929225083284,15.1933381379839
0.0248508272564497,15.194815189936
0.0237820260304138,15.196292241888
0.022562847999669,15.1976794868624
0.021196042503666,15.1990779057523
0.01969060254674,15.2005345381241
0.0180546214433325,15.2020867709483
0.0169605145464789,15.2031301506378
0.0159068656325959,15.2041735303273
0.013450164843123,15.2068295878142
0.0110411892390314,15.2098419913665
0.0091599222065705,15.2126003265673
0.00766911582254178,15.2151486167643
0.00641256245934226,15.2176445731918
0.00531297398368993,15.2201899113992
0.00434676937680501,15.2228113776175
0.0034966597107562,15.2255320544355
0.00274909561045385,15.2283732531742
0.00215546537274603,15.2310465127273
0.00167383112678411,15.2335875163708
0.0012723435015414,15.2360461092464
0.000928897676202674,15.2384705196519
0.000628568207531581,15.2409024914986
0.000360150478511083,15.2433878039413
0.000109610856903066,15.246039709057
-0.000164317042925512,15.2493981043383
-0.000307613122368553,15.2513858803085
-0.000439249158094617,15.2533736562787
-0.000550080811013865,15.2551795545828
-0.000648023214387058,15.256884118285
-0.000740756812766384,15.258597748087
-0.000834341301139778,15.260430117758
-0.000937178359699333,15.2625674302941
-0.00107655379702207,15.2656766579894
-0.00123108986621732,15.2694149526774
-0.00135150898543208,15.2725438314995
-0.00146365423170383,15.2756325198399
-0.00158467003858379,15.2791684892245
-0.00172633509251147,15.2836324751648
-0.00188289515388425,15.2892636353591
-0.00198393049107524,15.2941089452311
-0.00202817965677775,15.2984766011174
-0.00200551022592885,15.3023823431392
-0.00190760786911574,15.3059033992038
-0.0017262460383555,15.3091183094057
-0.00145233324926983,15.3120981915459
-0.00107607079231858,15.3148960170765
-0.000585862268673933,15.317558389721
3.73922092134545e-05,15.320146740534
0.000834882777448813,15.3227635657281
0.00191615970367759,15.3256267803129
0.00335142664566168,15.3287542127836
0.00512849613470408,15.3320172208166
0.00645965028589848,15.3341605983636
0.0079445501175509,15.3363039759106
0.00944410463594822,15.3382300573983
0.0109747056646368,15.3399726287004
0.0126095883551789,15.3416139544354
0.0143752429777187,15.343167487389
0.0163165764993614,15.3446567299295
0.0184646203426861,15.3460871127021
0.0208536940426926,15.3474637090442
0.0235150975866284,15.3487878353229
0.0264884678472225,15.3500635478992
0.0298098721857567,15.3512915802199
0.0335281351256813,15.3524760062637
0.03769585949769,15.3536197727185
0.0423736134870345,15.3547259250392
0.0476303415545704,15.3557973339067
0.0535527396861107,15.3568380813767
0.0602417056166769,15.3578518912447
0.0678192277208726,15.3588427626481
0.0764349601809126,15.3598150850983
0.0862749185126742,15.3607737362965
0.0975772085334167,15.3617245168321
0.110653303888853,15.3626744560062
0.125924783010052,15.3636325277792
0.143990793606439,15.3646110466882
0.165304331555564,15.365608505591
0.190020208590617,15.3666120745009
0.218825555686447,15.3676338838411
0.252670019322986,15.3686917690825
0.293045176335093,15.3698169332257
0.328573595867618,15.3707268285918
0.365865774744766,15.3716367239578
0.398904507362596,15.3724328652754
0.427750449277742,15.3731473886101
0.452959850803295,15.3738173314983
0.474596399267605,15.3744681211889
0.492334731038864,15.3751212987319
0.505410884030499,15.3758004182525
0.512309133344252,15.376538936219
0.510106653554957,15.3773551416653
0.496729944993159,15.3781879293699
0.47090561841634,15.3790527520315
0.431005567965488,15.3799609126203
0.375228931802437,15.3809213893552
0.332402664897879,15.3815422292834
0.285151221610828,15.3821630692117
0.242860539539838,15.3826863929308
0.206378916545194,15.3831272273429
0.174189849013933,15.3835170777254
0.14527868004102,15.3838750685964
0.119022603198813,15.3842131267951
0.0949879190479128,15.3845399676799
0.0728173182771485,15.3848633772959
0.0521361064193125,15.3851924742659
0.0323610427591512,15.3855429459303
0.0116557441483613,15.3859662282887
0.00114037013136466,15.38621363013
-0.00614919599771842,15.3864030003322
-0.0128087353797418,15.3865923705344
-0.0186551652718239,15.3867747616458
-0.0246081839432693,15.3869801175943
-0.0303989273971502,15.3872044287353
-0.0358501202897768,15.3874450549392
-0.0408629442098783,15.3877009459645
-0.045385301056554,15.3879720894059
-0.0493929880223893,15.3882591955985
-0.0530498947483035,15.3885814224322
-0.0559393211962592,15.3889032112759
-0.0583132699217592,15.3892459394998
-0.0601873146815452,15.3896127289364
-0.0615755539280399,15.3900070951767
-0.0624916926556573,15.3904333708733
-0.0629475613371331,15.3908969437965
-0.0629515131706302,15.3914046070428
-0.0625064550699618,15.3919650985373
-0.0616047396282651,15.3925913463394
-0.0602246660048821,15.3933001220994
-0.0583217518074504,15.3941161426042
-0.0558053706424669,15.3950805744435
-0.0524595153277275,15.396279452938
-0.0484174788454958,15.3976825923693
-0.0445001906361689,15.3990371520898
-0.0407609434430585,15.4003493533616
-0.0372257729179284,15.401622085343
-0.0339077663977791,15.4028565200772
-0.0308125900304782,15.4040529561647
-0.0279409595890166,15.4052112629584
-0.0252899609066836,15.4063311141453
-0.0228539025420451,15.4074121087323
-0.0206249621475552,15.4084538292621
-0.0185937277088064,15.4094558630908
-0.0167496715931356,15.4104178005614
-0.0150815694963165,15.4113392176386
-0.0135120370210801,15.4122594260486
-0.0120021639468296,15.4132032160516
-0.0105563959398168,15.4141722147854
-0.00917866181604309,15.4151685570747
-0.00787268999301454,15.4161947491368
-0.00664195596685507,15.4172537625483
-0.00548963020609571,15.4183491561209
-0.0044185236733007,15.419485240264
-0.00343103086092637,15.4206673038869
-0.00252906975056729,15.4219019363777
-0.00171401734803041,15.4231974996811
-0.000986638097650433,15.4245648483306
-0.000346999923082119,15.426018482544
0.000205632698549286,15.4275785128426
0.000657810530081348,15.4292113903393
0.00101189263011943,15.4308928794053
0.00128397772711267,15.432641325796
0.00148858062029811,15.4344785865987
0.00163937805555357,15.4364340273369
0.00174965356295602,15.4385496070939
0.00183298395969512,15.4408906298123
0.00190462002285016,15.4435727047455
0.00198563701491436,15.4468538748657
0.00209141207318799,15.4505988994498
0.00222427840853144,15.4544558234905
0.00237747131462443,15.458247557203
0.00254760723812618,15.4620379291486
0.00273126317046813,15.4658747015841
0.00292612352524938,15.4697956140748
0.00313129879110125,15.4738335657643
0.00334725812171779,15.4780195586168
0.00357563405585828,15.4823845753148
0.00381902136387118,15.4869610017857
0.00408086746889737,15.491784037556
0.0043655474322497,15.4968930792296
0.00467872965621641,15.5023330625273
0.00500940021940466,15.5078467538596
0.00534840571319602,15.5132325953222
0.00570094151188971,15.5185325458041
0.00606895397157751,15.5237299310228
0.00645664924982512,15.5288394865182
0.00686810833516534,15.5338694283516
0.00730779473952229,15.5388281217668
0.00778038401664282,15.5437208226036
0.00829089947070154,15.5485504697736
0.00884480571981006,15.553317867139
0.00944812740643522,15.5580221391694
0.0101075594726361,15.5626611516285
0.010836392128508,15.5672669820129
0.0116568968473912,15.5718998677644
0.0125854532672039,15.5765564360963
0.0136465637401744,15.5812555903159
0.0148760939864154,15.5860380932273
0.0163367596506794,15.5910037495792
0.0181756745575602,15.5964405646784
0.020653139823427,15.6028098718459
0.0222557350455689,15.6065850293731
0.0239018753365294,15.6103601869004
0.0253429539121949,15.6137347887231
0.0265615544012759,15.6168155834691
0.0275734187437028,15.6197739967941
0.0283308748689083,15.6225967861203
0.0288214905510892,15.6253395774665
0.0290359378134053,15.6281262871043
0.0289262593417262,15.6311409098293
0.0283018348030188,15.634911641856
0.0274809519240242,15.6378461437236
0.0264197279060985,15.6407806455911
0.0253464748484098,15.6433284945389
0.0242776551842509,15.6456512019516
0.0232070491655666,15.6478574539258
0.0221355238106567,15.6499991544828
0.0210663813075885,15.6521056761325
0.0200033529159265,15.654196354292
0.018950058649527,15.6562852347169
0.0179098633506124,15.658383265897
0.016885845967694,15.6604994697879
0.015880800521861,15.662641640599
0.0148972487318044,15.664816792256
0.0139374540650062,15.6670314686798
0.0130034322007699,15.6692919811238
0.0120969670228647,15.6716045831993
0.0112196165307205,15.6739756413487
0.010372723813609,15.6764117804129
0.00955743270570176,15.6789200109338
0.00876139580442458,15.6815535709354
0.00797693886983421,15.6843638106224
0.00720781277597119,15.6873715347899
0.00645788181666757,15.6906013027166
0.0057312593579546,15.6940815626559
0.00503227055485616,15.6978454297965
0.00436540324949439,15.701931590003
0.00373520332278227,15.7063856119921
0.00314609420704131,15.7112621032589
0.00260210098225633,15.7166286885867
0.00210651605774202,15.7225733726369
0.00166498133741009,15.7291610727913
0.00129210153832404,15.7362280547894
0.000993625541637134,15.74386866386
0.000788094139177116,15.7511307216621
0.000603964690512133,15.7598379640212
0.000462413358581219,15.7690438476043
0.000353694473977731,15.7790438476043
0.000279061011903545,15.7890438476043
0.000228591314638367,15.7990438476043
0.000195053715198173,15.8090438476043
0.000173297884805787,15.8190438476043
0.000159762029437595,15.8290438476043
0.000152029389154817,15.8390438476043
0.000148471241388715,15.8490438476043
0.000147991726616016,15.8590438476043
0.000149858582278198,15.8690438476043
0.000153593625197282,15.8790438476043
0.000158901128849873,15.8890438476043
0.000165620155485201,15.8990438476043
0.000173692996252079,15.9090438476043
0.000183145336736575,15.9190438476043
0.00019407554645884,15.9290438476043
0.000206651542432203,15.9390438476043
0.000221114523304194,15.9490438476043
0.000237789729412774,15.9590438476043
0.000257105374734724,15.9690438476043
0.000279622176703215,15.9790438476043
0.00030607775655573,15.9890438476043
0.000337453088817017,15.9990438476043
0.000375073039700577,16.0090438476043
0.00042076155233221,16.0190438476043
0.000475271173389064,16.0287487277347
0.000537544693446276,16.037722736798
0.000608484979038406,16.0460043962131
0.000689253760436262,16.0536469567445
0.000781193363690361,16.0607005236415
0.000885830408243957,16.0672116462413
0.00100489426061978,16.0732235671508
0.00114034235745222,16.0787764648397
0.00129439061471808,16.0839076679327
0.00146954779446117,16.0886518563763
0.00166865592372799,16.0930412570609
0.00189493782408596,16.0971058336577
0.00215205477996759,16.1008734659485
0.00244417573751462,16.1043701254782
0.00277606517353927,16.1076200570306
0.0031531939814756,16.1106459680852
0.0035818844841665,16.1134692289462
0.00406950541660687,16.1161100995661
0.00462474210115696,16.1185880019401
0.00525798638026679,16.1209218664869
0.00597463226474884,16.1231103061455
0.00676649200902729,16.1251270249159
0.00764374109653575,16.1270062154757
0.00862181169312502,16.1287823562188
0.00972497201008674,16.1304927408941
0.0109968561751884,16.1321867873516
0.0125782462154317,16.1340006845739
0.0149614799479974,16.1363363456751
0.0165643126671131,16.1377406687502
0.0182545866898982,16.1391449918252
0.0197953602719448,16.1404046025713
0.0211711553764592,16.1415568959244
0.0224047899147644,16.1426611939473
0.0234938472011625,16.1437585693894
0.0244183717996278,16.144888085123
0.0251385831413739,16.1461028142746
0.0255727195824299,16.1475083735858
0.0254363653502743,16.1495247718127
0.0247872746926391,16.1510621643967
0.023765024906653,16.1525995569807
0.0225905739148061,16.1540037393764
0.021269722022269,16.1554002841295
0.019810615136328,16.1568435748234
0.0182223590453297,16.15837133871
0.0172139932640813,16.1593401995266
0.0162267477683637,16.1603090603432
0.0150690361020195,16.1615013899792
0.0126040443263727,16.1642995437115
0.0103919600908803,16.1672172282729
0.00865468489615486,16.1698973173244
0.00726161954780739,16.172396869637
0.00605771624294013,16.1749063958862
0.00500199327659405,16.1774751057034
0.00407376628611936,16.1801273135955
0.00326525400155797,16.1828555775449
0.00261695641875076,16.1854331506334
0.00208785044360584,16.1878881076767
0.00164590123488194,16.1902618012705
0.00126646703158559,16.1926073474892
0.000929151839183477,16.1950012841103
0.000611927305955052,16.1975938980718
0.000256055248560772,16.2010173037772
8.05467560537953e-05,16.2029611193812
-7.88462279045352e-05,16.2049049349851
-0.000212098141195695,16.2066800255319
-0.000329272384259834,16.2083686017799
-0.000439366883454336,16.2100762347577
-0.000549490196628243,16.2119136267418
-0.000669620235168503,16.2140799963357
-0.000834986732411769,16.217368291661
-0.000997740589840592,16.2209915608779
-0.00112243266859425,16.2240579713481
-0.00123807157766274,16.2271519715569
-0.00136074733778373,16.230731714837
-0.00150144850136055,16.2353016127556
-0.00164711145051678,16.2408887392074
-0.00173915800858349,16.2457309855661
-0.00177850244364284,16.2501171447416
-0.0017567923148636,16.2540559377836
-0.00166643904993059,16.2576046211578
-0.00150021727379909,16.2608219792959
-0.00125040380783698,16.2637738332586
-0.00090654265031373,16.2665312724739
-0.000453297091058605,16.2691637501825
0.000133288196188345,16.2717448509779
0.000900231589768328,16.2743857116951
0.00197812179957242,16.2773492653034
0.00338216447019055,16.2805061290162
0.00513283210124593,16.2838169077885
0.00640825706864389,16.2859296453411
0.00783174556841157,16.2880423828937
0.00927908655528853,16.2899511043462
0.0107663217540359,16.2916859465826
0.0123585630675503,16.293320159214
0.0140892169500928,16.2948736167496
0.0159950430986275,16.296362162855
0.0181107604701577,16.2977942159554
0.0204658839448971,16.2991716676773
0.0230936172093482,16.300497259843
0.0260312345632976,16.3017740675649
0.0293135349739057,16.3030026439888
0.0329889664905401,16.3041873052385
0.037108625701989,16.3053308473367
0.0417316985336328,16.3064362919598
0.0469255106757793,16.307506484171
0.0527745348402388,16.3085454402901
0.0593768766336754,16.3095568080255
0.0668507563634156,16.3105444747728
0.0753405751854655,16.3115126681834
0.0850247292148464,16.3124660263466
0.0961301060607648,16.3134100151587
0.108950164384878,16.314351114271
0.123876583359828,16.315297423207
0.141454601309118,16.3162597307852
0.162365955168221,16.3172481830692
0.186582486038829,16.3182395726794
0.214742866021545,16.3192444656499
0.247706812520942,16.3202779211282
0.286751191101335,16.3213646734749
0.332010642790245,16.3225037334835
0.372441287519884,16.3234602090887
0.406192614634715,16.324247318721
0.435440289517692,16.3249484544806
0.46099718663039,16.325605890488
0.482960856856901,16.3262456195274
0.501006570807707,16.3268895617653
0.514347158796063,16.3275621895421
0.521381762851416,16.3282996699065
0.519055293133978,16.3291084695154
0.505381070785933,16.3299364320666
0.479035033585544,16.3307995155838
0.438303396780819,16.3317093502909
0.381287859482231,16.3326745874559
0.337422617045056,16.3333000531269
0.289020531286449,16.3339255187978
0.245839113197599,16.3344510434493
0.208724857842534,16.3348921942334
0.176058485790424,16.3352814495095
0.146764777244688,16.3356384095738
0.120189603739009,16.3359752023994
0.0958812655171633,16.3363006325972
0.0734705469538428,16.3366225267458
0.0525732088324413,16.3369500196202
0.0325946622493295,16.3372988061159
0.0116641056544497,16.3377204632109
0.00110401413467923,16.3379653285772
-0.00622174526505166,16.3381528286186
-0.0129163756707882,16.3383403286601
-0.0187899781202152,16.3385207393591
-0.0247797802753476,16.3387240898333
-0.0306125336206798,16.3389463575099
-0.0361077089707104,16.3391848850766
-0.0411644432705829,16.3394386042682
-0.0457293992319698,16.3397074851039
-0.0497776480679337,16.3399922204098
-0.0532951285731727,16.340294070454
-0.0562986362881881,16.3406175093855
-0.0587305687986216,16.3409565837779
-0.0606588222767398,16.3413193324361
-0.0620981431360766,16.341709276733
-0.063062475531127,16.3421306802997
-0.0635639784423724,16.3425888439
-0.0636114230144592,16.3430904487522
-0.0632082333766027,16.3436440833605
-0.0623477473456699,16.3442622970526
-0.0610091781819559,16.3449616160446
-0.05914955465726,16.3457661402318
-0.0566814087488499,16.3467157103922
-0.0533989112923339,16.3478922418638
-0.0493267621733071,16.3493022213978
-0.0453728329050896,16.3506629537623
-0.0415929797386015,16.3519813913612
-0.0380151034561712,16.353260520597
-0.0346534054476407,16.3545015452716
-0.0315143483014638,16.3557047650754
-0.0285992776120465,16.3568700360556
-0.0259057945325959,16.3579970128776
-0.0234286266933794,16.3590852746712
-0.021160281904274,16.3601343862073
-0.0190915943525032,16.3611439211668
-0.0172122042031364,16.362113461795
-0.0155109834027031,16.3630425827692
-0.0139303251692444,16.3639583399775
-0.0124083426401828,16.3648974711963
-0.0109497014323532,16.3658614428693
-0.00955836083314644,16.36685232722
-0.0082380909575402,16.3678725520136
-0.00699241904397111,16.3689249908361
-0.00582457776978065,16.3700130784422
-0.0047374511937455,16.371140965698
-0.00373351828611511,16.372313732468
-0.00281479356139489,16.373537688018
-0.00198276365166057,16.3748208085158
-0.00123831745967717,16.3761733988925
-0.000581665297133736,16.3776091420315
-1.22378311961208e-05,16.3791468630548
0.000460964044751705,16.3807724479783
0.000832649598065149,16.3824431285801
0.00111941015097223,16.3841772027054
0.00133595296672173,16.3859954337974
0.00149607648634139,16.38792546001
0.00161308343678222,16.3900062460359
0.00170039920844907,16.3922973072039
0.00177273991493637,16.3949009140454
0.00184931390926965,16.3980323866064
0.00195044228596012,16.4017666099973
0.00207978204560254,16.4056807957204
0.00222898702987207,16.4094929335429
0.00239487492244713,16.4132788626985
0.00257392682359695,16.4170932252019
0.0027636190916548,16.4209770947426
0.00296281682356861,16.4249649481413
0.00317172461048634,16.4290883400802
0.00339169249464938,16.4333781163127
0.0036250023765521,16.4378659742959
0.00387471786078804,16.4425858468316
0.00414468662161051,16.4475753499257
0.00443978058318091,16.4528770956618
0.00476558186145746,16.4585246197956
0.00509347240426634,16.4639597717478
0.0054351107354029,16.469342940644
0.00578934421561664,16.4746075806012
0.00616091650365191,16.479780741216
0.0065534159803425,16.4848672447451
0.00697117388273375,16.489878228351
0.0074185702452214,16.4948201739172
0.00790030057257679,16.4996975539256
0.00842141925305544,16.5045123950784
0.00898747605431746,16.5092649117481
0.00960462032560752,16.513953795618
0.0102797107673815,16.5185766512309
0.0110307295566404,16.5231907076562
0.0118768546240879,16.5278284545197
0.0128365313816183,16.53249363625
0.0139363458714545,16.5372085699235
0.0152168400793908,16.5420241706279
0.0167530532178764,16.5470676664426
0.0187430844153553,16.5527409525464
0.0206746774733137,16.5576230560779
0.0222964006837938,16.5614396126512
0.0239607611563872,16.5652561692245
0.0253938958108332,16.5686186194086
0.0266042143955754,16.5716918158115
0.027607697394079,16.5746482337592
0.0283542557851481,16.5774657484113
0.0288340085096358,16.5802078657881
0.0290365989606117,16.5829996215654
0.0289115835681011,16.5860300623719
0.0282539222145809,16.5898643574253
0.0274268589880012,16.5927640719333
0.0263680958587023,16.5956637864413
0.0252960261032762,16.5981959974632
0.0242272807046535,16.6005116788712
0.0231565943245469,16.6027142729692
0.022085086592126,16.6048540333159
0.0210161096463773,16.6069596939959
0.0199533969252231,16.6090502810021
0.0189005584930309,16.6111396691775
0.0178609460924105,16.6132387068865
0.0168376243069417,16.6153563587745
0.0158333741267505,16.6175003864014
0.0148507035782424,16.6196777926948
0.0138918637013404,16.6218951242184
0.0129588590181529,16.6241587061467
0.012053459546563,16.6264748264275
0.011177214481196,16.6288498873395
0.0103314564839702,16.6312905684628
0.00951731921261289,16.6338039517377
0.00872177381596402,16.6364458624134
0.0079379847649279,16.6392654167215
0.00716970449611449,16.6422836059183
0.00642080854576203,16.6455251750798
0.00569541961495205,16.6490187989516
0.00499787237391683,16.6527978540242
0.00433265797322574,16.656901359699
0.00370432052229102,16.6613752995371
0.00311726975538253,16.6662748567809
0.00257550269931679,16.6716685091611
0.00208226778869584,16.6776456208202
0.00164419914726789,16.6842549117553
0.00127441043452224,16.6913475650494
0.00102364957156223,16.6978034938821
0.000796246851292638,16.7056822400264
0.000612265122639695,16.7143128279
0.000467824680365012,16.7236295408687
0.000358632255940609,16.7336295408687
0.000283806034909736,16.7436295408687
0.000233302976216223,16.7536295408687
0.000199816240581777,16.7636295408687
0.000178161107144877,16.7736295408687
0.000164762072171472,16.7836295408687
0.000157195848955251,16.7936295408687
0.000153829224626931,16.8036295408687
0.000153563081436846,16.8136295408687
0.000155663465204445,16.8236295408688
0.000159652288760543,16.8336295408688
0.000165235695785049,16.8436295408688
0.000172256343379725,16.8536295408688
0.000180661913892692,16.8636295408688
0.00019048554034348,16.8736295408688
0.000201835573559267,16.8836295408688
0.000214893185015939,16.8936295408688
0.000229917190472514,16.9036295408688
0.000247256405449698,16.9136295408688
0.000267370934441161,16.9236295408688
0.000290865237279932,16.9336295408688
0.000318537938108062,16.9436295408688
0.000351456735244299,16.9536295408688
0.0003910725212249,16.9636295408688
0.000439397025140557,16.9736295408688
0.000495746803690506,16.9830892444824
0.000560031391108585,16.9918288022825
0.000633244921576754,16.9998951413402
0.000716598699532084,17.0073402810562
0.000811481710963095,17.0142128676424
0.00091947006673626,17.0205581162605
0.00104234808524811,17.0264180539828
0.00118213498891882,17.031831745974
0.00134111642942631,17.0368354981686
0.00152187966701519,17.0414630521139
0.00172735601595329,17.0457457742936
0.0019608698820637,17.0497128388876
0.00222619918201926,17.053391401456
0.00252764818879588,17.0568067728729
0.00287013974647904,17.059982599586
0.00325933326365267,17.062941051288
0.00370177878660031,17.065703022725
0.0042051261790688,17.0682883657046
0.00477841719568906,17.0707161702614
0.00543251008419214,17.0730051288509
0.0061665929498089,17.0751366174756
0.0069777691393165,17.0771051472269
0.00787714452875671,17.0789445370347
0.00888146515641643,17.0806889268784
0.0100176077119419,17.0823764401455
0.0113355434977012,17.0840602961706
0.0130190144369113,17.0859123917649
0.0150118357712024,17.0878171473542
0.0166538899913351,17.0892386570835
0.0183880533260829,17.0906601668127
0.0199416252180324,17.0919129196782
0.0213272955246677,17.0930578423423
0.0225701094025207,17.0941555264114
0.0236676395189782,17.0952468632171
0.0245997405460698,17.0963708406002
0.025326243617979,17.097580678333
0.0257643175228082,17.098982948646
0.0256213251951529,17.101009001916
0.0249656934224931,17.1025352005837
0.0239388803237157,17.1040613992515
0.0227581776190636,17.1054594703142
0.0214292522780949,17.1068522948485
0.0199603791889771,17.1082934429143
0.0183605451837096,17.1098206277065
0.0173408457192438,17.1107933217966
0.016342774173021,17.1117660158868
0.015170764999749,17.1129649452008
0.0126853679033881,17.115767928803
0.0104515406590149,17.118696279325
0.00870016257220149,17.1213829759215
0.00729761866076785,17.1238863035056
0.00608868463394163,17.1263933080801
0.00502879301712992,17.1289585290537
0.0040969621669591,17.1316064879847
0.00327696273962299,17.134360274658
0.00259190456789958,17.137085185091
0.00204158129936263,17.1396606241444
0.00158930698764637,17.1421258933075
0.00120769871187661,17.1445294392355
0.000877005026348713,17.1469229531028
0.000582386371126326,17.149366075816
0.000309020984382106,17.1519646009687
2.29667700327814e-05,17.1551171641243
-0.000142076901439726,17.1571845655958
-0.000292185682736075,17.1592519670673
-0.000415918158718397,17.1611074896487
-0.000522379053698509,17.1628250393149
-0.000621104994167564,17.1645262245597
-0.000718593585846969,17.1663155728125
-0.000822373870523745,17.1683471279156
-0.0009508162343088,17.1710522503017
-0.00114511968435698,17.1755655929031
-0.001292237070071,17.1793409837889
-0.00141388593363721,17.1827115600379
-0.00154047357772275,17.1864836196134
-0.00168921593275365,17.1913538426812
-0.00182970482593186,17.1967716371269
-0.00191707412641472,17.2015197903264
-0.00194708547622349,17.2057956654977
-0.00191043073040373,17.209630578034
-0.00179914712156105,17.2130871277613
-0.00160534949991814,17.2162414675628
-0.00131982837154986,17.2191659911558
-0.000931764870055492,17.2219187326307
-0.000426723668926728,17.2245551220816
0.000222355524621127,17.2271556267107
0.00106469471961509,17.2298251906682
0.0022398437519075,17.2328278578737
0.0037448451372258,17.2359999766529
0.00558660190121541,17.2392839488565
0.00688593736026355,17.2413181947053
0.00833387471763189,17.2433524405541
0.00980245595483508,17.2451878190106
0.0113651373263096,17.2469161021527
0.0130103002359594,17.2485164296892
0.0148150427996555,17.250052541474
0.0168028415911878,17.2515249363948
0.0190058880721726,17.2529395145091
0.0214607195477457,17.2543020745031
0.0241956130468102,17.2556118928115
0.0272527775636252,17.2568739902676
0.0306717404632704,17.2580899817996
0.0344981767565641,17.259262277061
0.0387887640976977,17.2603947044915
0.0436064713511197,17.2614903677852
0.0490252750475922,17.2625525833331
0.0551314546901139,17.263584639007
0.0620321593516008,17.2645906605932
0.0698552919913294,17.2655747132915
0.0787581618783697,17.2665412657
0.0889377451810647,17.26749537896
0.100645423996466,17.2684429380088
0.114213230786903,17.2693912691891
0.130093637220671,17.2703498027131
0.148936055842738,17.2713316463452
0.171028062512742,17.2723268456607
0.19666474762595,17.2733301031393
0.226576085689088,17.274354245846
0.261785995018285,17.2754185751116
0.303967534248963,17.2765586506139
0.338763405806539,17.2774284885473
0.374974184033525,17.2782983264807
0.407202839302293,17.2790692333722
0.43540342507002,17.2797683196844
0.460005716508264,17.2804289697611
0.48099399776547,17.2810753441854
0.49796417650436,17.2817290609595
0.510029877510527,17.2824151851479
0.515407183376697,17.2831718511768
0.511030908018351,17.2839879329573
0.495208364965383,17.2848246922352
0.466569002811507,17.2856969882432
0.423408698902285,17.2866154165891
0.363876185501726,17.2875892722275
0.32186567783374,17.2881762426154
0.276145430514607,17.2887632130033
0.235178111149372,17.2892635744008
0.199600579269413,17.2896907418537
0.168071565996045,17.2900720060617
0.139682620456091,17.2904243858594
0.113858863921913,17.290758880929
0.0901866398414706,17.2910838526083
0.0683104006044367,17.2914071623088
0.0478308104556475,17.2917387088026
0.0280490135345823,17.2920974685974
0.00609251532049302,17.2925636862915
-0.00189825491682721,17.2927595842255
-0.00919315990097279,17.2929554821596
-0.0154672040610057,17.2931403563758
-0.0214190977178958,17.293333422029
-0.0273392154633325,17.2935472749998
-0.0330046366210732,17.2937786133412
-0.0382782597656866,17.2940256104772
-0.0430851253472211,17.2942877371389
-0.0473873065986138,17.2945653324675
-0.0511667271173777,17.2948593727083
-0.0546126061745392,17.2951934128134
-0.0572703425115253,17.2955241121235
-0.0594174353422968,17.2958769234526
-0.0610704179522805,17.2962552986426
-0.0622434569396282,17.2966631078421
-0.0629496240504782,17.2971051357307
-0.0631993940115186,17.297587367509
-0.0629989058730185,17.298117415317
-0.0623469745693696,17.2987056922418
-0.0612298628969023,17.2993668028123
-0.0596169057231971,17.3001205604148
-0.0574464459980493,17.3009977487959
-0.0545866104382433,17.3020541988462
-0.0506632349652677,17.3034322204847
-0.0466662542811659,17.3048109043331
-0.0428235584654895,17.3061451470347
-0.039173555203503,17.3074388529592
-0.035735063218051,17.3086938985615
-0.032517218459484,17.3099109366679
-0.029523152155333,17.3110900037146
-0.0267517672181441,17.3122308426105
-0.0241987784828461,17.3133330720351
-0.0218574435642674,17.3143962720237
-0.0197191497177438,17.3154200216748
-0.0177739196370317,17.3164039078455
-0.0160108585089097,17.3173475150827
-0.0144104052315616,17.3182551612593
-0.0128667216610961,17.3191858020813
-0.0113849065674256,17.3201406046868
-0.00996897540386707,17.321121531725
-0.00862277454177465,17.3221308730109
-0.00734992528779011,17.3231713297337
-0.00615377312061325,17.3242461186538
-0.00503733449837578,17.3253591110485
-0.00400324129880285,17.3265150219706
-0.00305368258109549,17.3277196746091
-0.00219034279422333,17.3289803806749
-0.00141433457995626,17.3303065075063
-0.000726122540917587,17.3317103609279
-0.000125430842794964,17.3332086360031
0.000388120279631338,17.3348222577492
0.000793610586609336,17.3364745747141
0.00110869642298358,17.3381840835704
0.00134848877061011,17.3399697346792
0.0015270762588502,17.3418563696291
0.00165788952316296,17.3438782105845
0.00175423185035616,17.3460859072515
0.00183018283673709,17.3485624133571
0.00190273486220503,17.3514677047183
0.00199966498926184,17.3552140050201
0.00211888852182672,17.3590381596239
0.00226192792535244,17.3628544395796
0.00242366680846261,17.366639289836
0.00260044399561966,17.3704477185826
0.0027892886344132,17.3743217524311
0.00298856874933965,17.3782963370271
0.00319806665369655,17.3824031703825
0.00341882754681667,17.3866730729783
0.00365294615977373,17.3911375610104
0.00390339606786586,17.3958302327064
0.00417399632682059,17.4007882083388
0.00446960677885443,17.406053435672
0.00479666735494073,17.4116740807684
0.00512676881808141,17.4170990259314
0.00547064434714989,17.4224710395424
0.0058273693536823,17.4277276330428
0.00620155980323501,17.4328930777422
0.00659686622072518,17.4379723649642
0.00701765927993176,17.4429762648564
0.00746839205427549,17.4479112629432
0.0079538365022675,17.4527817864965
0.00847912873347002,17.457589809489
0.00904990077875086,17.4623354485798
0.00967238761201932,17.4670172978004
0.0103535410340678,17.4716329072534
0.0111134148305396,17.4762502067481
0.0119698207670171,17.4808899350985
0.0129421030526918,17.485558832038
0.0140577895789981,17.4902808304129
0.0153595826772138,17.4951115508055
0.0169285297277641,17.5001915933312
0.0189908753216139,17.505985745358
0.0208580268662122,17.5106548171812
0.022859319706019,17.5153238890044
0.0244957463097292,17.5190835598721
0.0258483296543906,17.5223250058277
0.0269853416471039,17.5253404930689
0.0279078151960626,17.528268818005
0.0285584416329282,17.5310467377575
0.0289412544761811,17.5337908075902
0.0290353483088358,17.5366394078388
0.0287616700259555,17.5398444861326
0.0277998929313079,17.544163242689
0.0269209571259316,17.5468166790632
0.0258703805356258,17.5494701154374
0.0248032625061647,17.5518783101662
0.0237339492529794,17.5541326587076
0.0226625601842484,17.5563015081527
0.0215917851103886,17.5584224996008
0.0205252720101497,17.5605190145635
0.0194667277628375,17.5626073272494
0.0184196513731485,17.56469972103
0.0173872632423812,17.5668060606324
0.0163724963867402,17.568934680578
0.0153780049969172,17.5710929375797
0.0144061768153114,17.5732875823171
0.0134591491433706,17.5755250194516
0.012538817231015,17.5778115217407
0.0116468480222098,17.5801533946127
0.0107846908373915,17.5825571266646
0.00995358462636269,17.5850295419711
0.00915315791009613,17.587582613329
0.00836246422183647,17.5903034016887
0.00758528574741877,17.5932108047548
0.0068253589719778,17.5963276921977
0.00608667611699683,17.5996805148471
0.00537346385320676,17.6032999800941
0.00469013902825551,17.6072218949002
0.00404123321001755,17.6114882539942
0.00343126390750558,17.6161488233487
0.00286448569056607,17.6212642059879
0.00234459581323317,17.6269111614096
0.00187442149441164,17.6331922122808
0.00146841210234738,17.6400107677227
0.00113225002127642,17.6473531703772
0.000921585230649163,17.6536163185888
0.00071123176856355,17.6618722159498
0.000542859390698905,17.670884135322
0.000409817584811309,17.680884135322
0.000317952836256723,17.690884135322
0.000255356167680359,17.700884135322
0.000213373484236776,17.710884135322
0.000185765244344322,17.720884135322
0.000168158921097504,17.730884135322
0.00015756406419181,17.740884135322
0.000151959880929389,17.750884135322
0.00014998483680344,17.760884135322
0.000150724349587293,17.770884135322
0.000153572308851589,17.780884135322
0.000158141102451143,17.790884135322
0.000164202131017086,17.800884135322
0.000171646146846907,17.810884135322
0.000180457482275332,17.820884135322
0.000190698743063527,17.830884135322
0.00020250389398697,17.840884135322
0.00021607859676694,17.850884135322
0.000231707518404354,17.860884135322
0.000249769260672372,17.870884135322
0.00027076070118168,17.880884135322
0.000295334099779532,17.890884135322
0.000324352694956681,17.900884135322
0.000358974381856018,17.910884135322
0.000400779708287422,17.920884135322
0.000451972347018921,17.930884135322
0.000510658030789173,17.9401614776828
0.000577541595049646,17.9487247236618
0.000653702298449043,17.9566274390997
0.000740404794814534,17.9639211356066
0.000839092361314235,17.970653712857
0.000951400817054651,17.9768696722601
0.0010791817216647,17.9826103673172
0.00122453062042626,17.9879142270167
0.00138981993341731,17.9928169577945
0.00157773579100869,17.9973517397276
0.00179132281244217,18.0015494172894
0.00203403609910842,18.0054386817279
0.00230980510621039,18.0090462453896
0.00262311219733003,18.0123970188437
0.0029790915807111,18.0155142953985
0.00338365770878943,18.0184199436297
0.00384367420258987,18.0211346184754
0.00436718526824441,18.0236780085235
0.00496374340747958,18.0260691410845
0.00564489255958119,18.0283267883007
0.00640172524106959,18.0304117566271
0.00723868295437171,18.0323438244048
0.00816851836236693,18.0341571778834
0.00921058612291044,18.0358868652165
0.0103972722800173,18.0375745378124
0.0118017640121667,18.0392944406201
0.013689136653641,18.0412813395569
0.0154078262478759,18.0428768666786
0.0172774899436605,18.0444723938003
0.0189678737109406,18.0458530361315
0.0204428696984067,18.0470579586211
0.0217632402655595,18.0481818170868
0.0229425861016651,18.0492760154484
0.0239708017503325,18.0503790205451
0.0248206654092807,18.051533302928
0.0254397149413678,18.0528058625438
0.0257055377123144,18.0543612829576
0.0253533661067353,18.056172512751
0.0243928640212596,18.0579837425445
0.0232752985874723,18.0594511951321
0.0220221931866597,18.0608427808246
0.0206272087780983,18.0622565065138
0.0190982927208495,18.0637366539409
0.0174423787285579,18.065321061629
0.0156872967341764,18.0670571139332
0.0143449888947471,18.0684830398951
0.0118541203127815,18.0714358333999
0.00980073274441576,18.074280508761
0.00818458657586914,18.0768954467508
0.00686172948222986,18.0793830084889
0.00570735709378083,18.0819076123755
0.0046938693528483,18.0844996136736
0.00380242603775913,18.08718235731
0.003032053667939,18.0899242713229
0.00241520908570512,18.0925122570549
0.00191181646493838,18.0949769642648
0.00149087000828702,18.0973622087976
0.00112908616998694,18.0997206164028
0.000807923118240493,18.1021220873562
0.000508923068924085,18.1046907332242
0.000192109647694503,18.1078635693133
1.44947689708981e-05,18.1098972547019
-0.00014643655785501,18.1119309400905
-0.000279301786843035,18.1137671865927
-0.00039357213215178,18.1154744299765
-0.000499276614786295,18.1171700149842
-0.000603325400155617,18.1189580853819
-0.000713783535544822,18.1209963128571
-0.000850709144411121,18.1237397162627
-0.00104654718514617,18.1281180999534
-0.00119168824220868,18.131744204244
-0.00131239781864193,18.1350324062059
-0.00143737454720056,18.1387295663349
-0.00158213337992728,18.1434753425885
-0.00172409731714299,18.1489704872824
-0.00181330674485384,18.1537667157308
-0.00184796719700554,18.1581000424094
-0.0018192697407201,18.1619886505697
-0.0017194398678445,18.1654912612985
-0.00154114877363163,18.1686720523138
-0.00127591160699355,18.1716039598542
-0.000912707031257646,18.174354516744
-0.000435952312580464,18.176988162633
0.000181159605686573,18.1795848131446
0.000986359510259964,18.1822476056691
0.00211858572174371,18.1852488133953
0.00357497344671349,18.188418734072
0.00537382487214981,18.1917224676218
0.00665828957546716,18.1937915306317
0.00809073554780138,18.1958605936417
0.00953132202337148,18.1977109125101
0.0110610417538783,18.199449655902
0.012672389199231,18.2010604515249
0.0144392620915128,18.2026056352011
0.0163833326628324,18.2040849147308
0.0185411593233397,18.2055079410435
0.0209444231155888,18.2068775838497
0.0236242034859428,18.2081950131861
0.0266200222705796,18.2094641931082
0.0299685260876626,18.2106860538276
0.0337175045226335,18.2118642238223
0.0379204144153487,18.2130018857401
0.04263821305142,18.214102095437
0.0479410895308549,18.2151678708355
0.0539148560898927,18.2162029699375
0.0606616381585252,18.2172112165537
0.0683041574771017,18.2181965734547
0.0769927786057257,18.2191633712391
0.0869147190197544,18.2201164601361
0.0983073835472805,18.2210614232975
0.111481769226057,18.2220051283609
0.126856255209526,18.2229562283795
0.145020873367537,18.2239264640679
0.166491446774524,18.2249172255784
0.19137715614169,18.225913138341
0.220356000511395,18.2269256951393
0.254355660155237,18.2279716363755
0.294808908970845,18.2290798537273
0.331083575678714,18.2299910480921
0.36926449830262,18.2309022424569
0.402911981569901,18.2316935716031
0.432217865746712,18.232400795108
0.457837766275093,18.2330628724504
0.479874896929719,18.2337058674799
0.49802156430984,18.2343516342014
0.511520878860298,18.2350241546522
0.518844360848968,18.235758056388
0.517008025612983,18.2365684359744
0.503915358914762,18.2373965507344
0.478274628358259,18.2382583734805
0.43840796622724,18.239165623348
0.382447940503568,18.240127024469
0.338621148542729,18.2407591189894
0.290114696132748,18.2413912135097
0.246823146739309,18.2419213504655
0.209642362263966,18.2423653909351
0.176933156609743,18.2427565964184
0.147607780679712,18.2431149551504
0.121007388419681,18.2434527653124
0.0966792069642317,18.2437788976458
0.0742555240070129,18.2441011683703
0.0533579533160242,18.2444285808592
0.033412934303399,18.2447762960287
0.0126949255770325,18.2451920560635
0.00139142280909073,18.2454534489167
-0.00596083478360008,18.2456417771792
-0.0126789952111077,18.2458301054416
-0.0185333384179066,18.2460100520859
-0.0245144330679562,18.2462131513948
-0.0303458312014474,18.2464353171129
-0.0358440677581244,18.2466738222283
-0.0409065631609842,18.2469275560404
-0.0454789721928926,18.2471964618881
-0.049535753829092,18.2474812142558
-0.0530619064988015,18.2477830588051
-0.0560555077928611,18.2481041553382
-0.0585000218318207,18.2484429546219
-0.0604411775341869,18.2488053696974
-0.061893439494424,18.2491948707353
-0.0628707443615203,18.2496156897044
-0.0633853039989903,18.2500730853928
-0.0634460129931966,18.2505736807553
-0.0630565153777372,18.2511259800694
-0.0622106148619973,18.2517423579336
-0.0608881697543662,18.2524391533377
-0.0590474298499978,18.2532400570186
-0.0566036488745099,18.2541839930861
-0.0533595267644644,18.2553499638332
-0.0492906518826001,18.2567612188644
-0.0453384554010448,18.2581226231386
-0.0415594542017153,18.2594414931939
-0.037982005082361,18.2607209164619
-0.0346205147362432,18.2619621517145
-0.0314815458436362,18.2631655299716
-0.0285664965386551,18.2643309257687
-0.0258729970898969,18.2654580050545
-0.0233957920368158,18.2665463540648
-0.0211273993116664,18.2675955421801
-0.0190586593082895,18.2686051461611
-0.0171792160082291,18.2695747503746
-0.0154779436426053,18.2705039310113
-0.0138973420802701,18.2714196829997
-0.0123754100503318,18.2723588068129
-0.0109168148216569,18.2733227682953
-0.00952551618395084,18.2743136395935
-0.0082052846998982,18.2753338482955
-0.00695964801970827,18.2763862677015
-0.00579183920565316,18.277474332148
-0.00470474268755746,18.278602191914
-0.00370083779902425,18.2797749260505
-0.00278213941453762,18.2809988426941
-0.00195013452304984,18.2822819164215
-0.0012057123773062,18.2836344498653
-0.000549083621837491,18.2850701224629
2.03207760326243e-05,18.2866077538998
0.000493525952540663,18.2882333250684
0.000865206386677067,18.2899039753528
0.00115195693368313,18.2916380037032
0.00136848726626719,18.2934561695028
0.00152859855373214,18.2953861043112
0.00164559691546391,18.2974667612316
0.00173291245120695,18.2997576332005
0.00180526862316861,18.302360939872
0.00188188678110562,18.3054918446647
0.0019831402219424,18.3092260879843
0.00211221216285057,18.3131271660541
0.00226143122193189,18.3169341906149
0.00242764414202621,18.3207202403949
0.00260732206589126,18.3245384206733
0.00279792171346774,18.328429066629
0.00299829470948076,18.3324263012869
0.00320864709552568,18.3365615408056
0.00343034868749572,18.3408656373289
0.00366572089070119,18.3453704046716
0.00391789115945402,18.350110005498
0.00419080513008105,18.3551223899364
0.00448948619290098,18.3604506079982
0.00481632370055644,18.366070427706
0.00514648413742011,18.3714951093813
0.00549032838797653,18.3768604311052
0.00584734895453629,18.3821106018205
0.00622217800129214,18.3872700454524
0.00661850909847036,18.392344389574
0.00704069890808316,18.3973441727597
0.00749318782486864,18.4022756279037
0.00798073774837516,18.4071429021895
0.0085084868346676,18.4119477644412
0.00908208185525937,18.4166901925869
0.00970778315955689,18.4213686862293
0.010392577952059,18.4259807447666
0.0111576221600479,18.4305998975471
0.0120200237176413,18.43524085728
0.0129996202001352,18.4399119635142
0.0141244965276784,18.4446381617636
0.0154386472702581,18.4494779121021
0.0170268205023363,18.4545800690576
0.0191337924554921,18.4604508549785
0.0209677966779637,18.4650091560944
0.0229257125432104,18.4695674572103
0.0245462547823425,18.4732926763078
0.0258904853123821,18.4765221090863
0.0270203338945253,18.4795329235801
0.0279332988844208,18.4824539667554
0.0285749245755979,18.4852287867047
0.0289485463726964,18.4879739358266
0.0290320668914616,18.4908292926258
0.0287429167093318,18.4940549730898
0.0277666382596375,18.4983631686249
0.0268844642939451,18.5010040004783
0.025833793570707,18.5036448323317
0.0247667807806205,18.506045967232
0.0236974003153837,18.5082966243016
0.0226259811984524,18.5104634453425
0.0215552829547677,18.5125833748015
0.0204889654767149,18.5146794755101
0.0194307312361088,18.5167678526967
0.0183840703285223,18.5188606916147
0.0173521933025702,18.5209677973411
0.0163380231842163,18.5230974685821
0.0153442047982698,18.5252570413
0.0143731167280391,18.527453257213
0.0134268875241695,18.5296925210253
0.012507404442035,18.5319811123962
0.0116163260111064,18.5343253528905
0.0107550946576951,18.5367317515637
0.00992494184353862,18.5392071633279
0.0091248106909611,18.5417658632362
0.00833453795027466,18.5444929127793
0.00755790550878225,18.5474073356268
0.00679865866035625,18.5505321199513
0.00606079767680514,18.5538938587995
0.00534855624793583,18.5575234294794
0.00466635608356953,18.561456845182
0.00401873058554535,18.5657363526428
0.00341019236994075,18.5704120515418
0.00284498161203371,18.5755450232834
0.00232676892495062,18.581212778262
0.00185834853583418,18.5875190076523
0.00145475754744478,18.5943548565523
0.0011222915472899,18.6017178704625
0.000897773694947458,18.6085469433869
0.000695036844780275,18.6167623347636
0.000531086045238164,18.6258032255022
0.000402112767870808,18.6358032255022
0.000313183560767031,18.6458032255022
0.000252702746678679,18.6558032255022
0.000212232177474196,18.6658032255022
0.00018570424938103,18.6758032255022
0.00016888044026931,18.6858032255022
0.000158867795894668,18.6958032255022
0.000153712813947787,18.7058032255022
0.000152099611818155,18.7158032255022
0.000153145095332665,18.7258032255022
0.000156265699958616,18.7358032255022
0.0001610907177902,18.7458032255022
0.000167404912013268,18.7558032255022
0.000175110316553805,18.7658032255022
0.000184201605271543,18.7758032255022
0.000194751774528284,18.7858032255022
0.000206906177884347,18.7958032255022
0.000220883881745754,18.8058032255022
0.000236986192709602,18.8158032255022
0.000255613186731465,18.8258032255022
0.000277290292086743,18.8358032255022
0.000302708687105722,18.8458032255022
0.000332785905007385,18.8558032255022
0.00036875737840717,18.8658032255022
0.000412317184270412,18.8758032255022
0.000464962536679165,18.8856530581806
0.000525153114383967,18.8947677746359
0.000593731560730161,18.9031804995854
0.000671817068119377,18.9109447809421
0.000760708793145438,18.9181112298394
0.000861886116368918,18.924726890679
0.000977025043465551,18.9308354807148
0.0011080224023614,18.9364776320925
0.00125702500850673,18.9416911070907
0.00142646308462447,18.9465109968693
0.00161908856703001,18.9509699146809
0.0018380208948177,18.9550981837651
0.00208680134838038,18.9589240161641
0.00236945884086907,18.9624736859007
0.00269059227951629,18.9657717063312
0.00305547399104895,18.9688410149529
0.0034701845172181,18.9717031671069
0.00394179149730023,18.9743785514914
0.00447859553340649,18.9768866449669
0.00509048105118681,18.9792463304308
0.00578913141795845,18.9814754347338
0.00656082081914199,18.9835241979548
0.00741457094394801,18.985426622623
0.00836415801048161,18.9872169160159
0.0094306164889548,18.988930562313
0.0106500183274534,18.9906113643639
0.0121192369443908,18.9923555141197
0.0141622489263816,18.9944367620302
0.0158742614326852,18.9959811201714
0.0177177242074776,18.9975254783127
0.0193540388783759,18.9988510745838
0.0207952000691447,19.0000294955816
0.0220877296285837,19.0011409710681
0.0232383468330761,19.0022318200229
0.0242331215386094,19.0033400925078
0.0250404693679581,19.0045113089018
0.0255988454716831,19.0058235892372
0.0257481233569149,19.0074988475711
0.0252788000970907,19.0092163686993
0.0242844174210769,19.0109338898276
0.0231472671183551,19.0123729151185
0.0218698909346608,19.0137621944539
0.0204507414449689,19.0151827555702
0.0188983948764021,19.0166760023669
0.0172189438832412,19.0182804235372
0.015447938045318,19.0200464973162
0.01315915509008,19.0225737688804
0.010839527120957,19.0255254480015
0.00900668004795856,19.0282550856474
0.00754647802678384,19.0307879735062
0.00630598726385751,19.0332880754215
0.0052196920217464,19.0358405792674
0.00426495747423663,19.0384714355644
0.00342487836120171,19.0412037252288
0.00271784355006993,19.043925640761
0.00215007029131099,19.0464976879119
0.00168423332414574,19.0489561211692
0.00129200770893488,19.0513483350779
0.000952556433624737,19.0537278068696
0.000649701638074303,19.0561611272021
0.000366914932156552,19.0587691715236
6.39573735093178e-05,19.0620234804285
-0.000100871527692045,19.0640424892483
-0.000250884575654246,19.0660614980681
-0.0003754828579795,19.0678874583702
-0.000483697283883495,19.0695951423228
-0.000584629490390391,19.0712991714445
-0.000684847047671596,19.0731055367558
-0.000792509529963944,19.0751818338567
-0.000929965745579632,19.0780505052407
-0.00110564808663097,19.0820957457835
-0.00123727433662827,19.0854249256431
-0.0013526497995675,19.0885681195076
-0.00147408778085805,19.0921255518463
-0.00161431985271461,19.0966176210751
-0.00176613111225125,19.1022438931485
-0.00186362519535834,19.1070986917989
-0.001906780494565,19.1114882944369
-0.00188614625749113,19.1154209439903
-0.0017936779508341,19.1189620073806
-0.00162181506790368,19.1221779219922
-0.00136206760629532,19.1251422546609
-0.00100372355517629,19.1279216522848
-0.000532735137489751,19.1305745851108
7.30382689202262e-05,19.1331682967023
0.000855092837400452,19.1357991189696
0.00193142701749146,19.1387051266899
0.00334902805124509,19.1418438987242
0.00511016303705376,19.1451251103311
0.00642362158590891,19.1472685098998
0.0078903500202804,19.1494119094686
0.00934511952334643,19.151302501212
0.0108641648116195,19.153051802567
0.0124738304411794,19.1546847451813
0.0142241780527506,19.1562399576063
0.0161476574991345,19.1577288331033
0.0182796442599087,19.1591604534289
0.0206511239006745,19.1605376426631
0.0232949968928484,19.1618628112377
0.0262495101337093,19.1631393862806
0.0295499830991001,19.1643679639847
0.0332452963835255,19.1655528281495
0.0373871688683768,19.1666967997655
0.0420354247078969,19.167802901614
0.0472582399486905,19.1688740058208
0.0531411408636924,19.1699141557295
0.0597835801000022,19.1709270366782
0.0673056020693361,19.1719165924309
0.0758541599623122,19.1728871326139
0.0856112683755337,19.173843407599
0.0968094407784296,19.1747910673145
0.109750895703534,19.1757368615014
0.124841945824788,19.1766893263481
0.1426541508598,19.1776600063747
0.163755487172645,19.1786532400985
0.188208640045039,19.179650999422
0.216675933481638,19.1806646288238
0.250060476462653,19.1817105411433
0.289740710287159,19.1828165449837
0.334964783530944,19.1839612571401
0.373866520021356,19.1848932816943
0.406617988069948,19.1856718042733
0.435111924636385,19.1863720685618
0.459980753652975,19.1870322442017
0.481244023362888,19.1876770822276
0.498521053768558,19.1883282620326
0.510956381991025,19.1890106225261
0.516825884512857,19.1897615763375
0.513063544819451,19.1905758070291
0.497892675703897,19.1914101738012
0.469957719002021,19.1922798424965
0.42755418075219,19.193195681965
0.368822572748574,19.1941667260927
0.32630937058933,19.194764612766
0.279856080647923,19.1953624994393
0.238277993271785,19.1958700930336
0.202272272362886,19.196301363592
0.170423678123884,19.1966850245146
0.141779175626056,19.1970388090061
0.115742589121644,19.1973740315052
0.0918901892582875,19.1976991732754
0.0698633933306807,19.1980220704055
0.0492690391540809,19.1983523567512
0.029445587156,19.1987078641729
0.0079124555041451,19.1991576649563
-0.000724013416024672,19.1993654555263
-0.00856995569049322,19.1995732460962
-0.0149547401642553,19.1997593205147
-0.0209005342939428,19.1999499682728
-0.0268402920445068,19.2001617507705
-0.0325427489774,19.2003912630307
-0.0378629724129606,19.2006365277599
-0.0427213161697195,19.2008969162112
-0.0470770562161502,19.2011726979458
-0.0509117466112316,19.2014647943364
-0.0544590624196615,19.2018010925875
-0.0571633259650047,19.2021297942761
-0.0593548751767921,19.2024803018444
-0.0610507847761423,19.202856073253
-0.0622652745520458,19.2032609127555
-0.06301158569881,19.2036995201236
-0.0633004883224336,19.2041777686416
-0.0631385667147981,19.2047031173724
-0.0625254840755114,19.205285633361
-0.0614485851312119,19.2059396542728
-0.0598788997381943,19.2066843889893
-0.0577580637488589,19.2075494306377
-0.0549625425001954,19.2085875841142
-0.0511544111058014,19.209928107316
-0.0471423757530809,19.2113117434607
-0.0432785496211959,19.2126505749359
-0.0396046565136002,19.2139486390714
-0.0361408742442017,19.2152079685484
-0.0328971300194987,19.2164292947166
-0.0298770956267491,19.2176126904334
-0.0270800787992065,19.2187579131098
-0.024502109406075,19.2198645848385
-0.02213669011008,19.220932284037
-0.0199753930941768,19.2219605867443
-0.0180083724240261,19.2229490775892
-0.0162248166831564,19.2238973412742
-0.0146133491471521,19.2248049405018
-0.0130627234529631,19.2257328501221
-0.0115734522415237,19.2266847342464
-0.0101496056397101,19.2276624993408
-0.00879505259433351,19.2286683929342
-0.00751344310113439,19.2297050633725
-0.0063081574303325,19.2307756608885
-0.00518225319676533,19.2318839718253
-0.00413841008499519,19.233034600976
-0.00317887195764859,19.2342332254829
-0.00230538555584543,19.2354869588113
-0.00151913408580722,19.2368048909568
-0.000820662338556903,19.2381989247974
-0.000209786772508018,19.2396851408549
0.000314522985511187,19.2412861799391
0.00073186296072541,19.242933049127
0.00105684596578183,19.2446348828145
0.00130480158537343,19.2464103580775
0.00148992111551265,19.2482834793486
0.00162568724849339,19.2502870858051
0.00172537914880938,19.2524693125246
0.00180290720159326,19.2549078767471
0.00187469976479691,19.2577489975972
0.00196656607836582,19.2613646061087
0.0020814822349712,19.2651594779375
0.0022216091923846,19.2689887603416
0.0023807725118849,19.2727750038737
0.00255530956496856,19.2765761033047
0.00274210301394753,19.2804359786177
0.00293932717585004,19.2843904996942
0.00314657299488345,19.2884717458172
0.0033647124207605,19.2927105738699
0.00359568579638742,19.2971382825046
0.00384231767287796,19.3017880027692
0.00410825466154221,19.3066961372425
0.00439811395368088,19.3119036854297
0.00471795672143627,19.3174576512823
0.00504694974944047,19.3229317914017
0.00538713568811698,19.3283193689599
0.00574020843472263,19.3336022901734
0.00610967698515764,19.3387884214674
0.00649940894895489,19.3438870911282
0.00691362282154431,19.3489082416994
0.00735673240880003,19.353859287206
0.0078334150518526,19.358745103398
0.008348698209047,19.3635681607734
0.00890807686081727,19.3683289609297
0.00951762609483304,19.3730264145265
0.0101841104186433,19.3776582585315
0.0109228846976749,19.3822678038816
0.0117548522352399,19.3869028349161
0.0126973019723043,19.3915631602675
0.0137756307644631,19.3962691054006
0.0150276944207753,19.401065739782
0.0165213369626384,19.4060642725537
0.0184238488407153,19.4115977697874
0.0209028106792134,19.4178874577922
0.0224852206580525,19.4215905483061
0.0241003620103755,19.42529363882
0.0255099560590905,19.42861637434
0.0267017845558176,19.4316730507957
0.0276866376645765,19.4346256697217
0.0284090358168692,19.4374319444984
0.0288645973814031,19.4401729994126
0.0290405977673157,19.4429766617774
0.0288806369704801,19.4460443959163
0.0281412732279521,19.4500402612452
0.0272998866257394,19.4528639875202
0.0262452987588577,19.4556877137952
0.0251753230803301,19.4581840873443
0.0241065688858669,19.4604828683192
0.0230356767186044,19.462676291549
0.0219642891599257,19.4648108898273
0.0208958591832912,19.4669139011408
0.0198341206482101,19.4690036023917
0.0187826582538081,19.4710934405767
0.0177447918440938,19.4731940008968
0.0167235541598471,19.4753140776875
0.0157216946530831,19.4774613225597
0.0147416921936582,19.4796426659001
0.0137857700061586,19.4818646098528
0.0128559051745234,19.4841334586275
0.0119538441283352,19.486455489716
0.011081110497359,19.4888371170893
0.0102390133911241,19.4912850433689
0.00942866549317412,19.4938063817595
0.00863423323573844,19.4964671139897
0.00785198811899946,19.4993075948041
0.00708567257430901,19.5023492788839
0.0063391913655794,19.505617310881
0.00561669444415119,19.5091408368517
0.00492253604476957,19.5129538107262
0.00426122099504613,19.5170959357357
0.00363729119764962,19.5216140596181
0.00305512436094083,19.5265645857887
0.00251865199356835,19.5320178216913
0.00203102170033049,19.5380660761913
0.00160085326983131,19.5447241285108
0.00123816814244128,19.5518749805643
0.00101858448266631,19.5576531412361
0.000790630872900605,19.565584736586
0.000606871918627559,19.5742575230361
0.000462846710489095,19.5836209165997
0.000354622052558764,19.5936209165997
0.000280445009834254,19.6036209165997
0.000230361276915118,19.6136209165997
0.000197132013188736,19.6236209165997
0.000175622512105583,19.6336209165997
0.000162292107519003,19.6436209165997
0.000154740886028007,19.6536209165997
0.00015135107465524,19.6636209165997
0.000151033703122175,19.6736209165997
0.00015306138522864,19.6836209165997
0.000156960061978321,19.6936209165997
0.00016243799081695,19.7036209165997
0.00016933840262917,19.7136209165997
0.000177608216488042,19.7236209165997
0.000187278527950672,19.7336209165997
0.000198454305764251,19.7436209165997
0.000211311780696948,19.7536209165997
0.000226102881832086,19.7636209165997
0.000243166973559571,19.7736209165997
0.000262951194071781,19.7836209165997
0.000286042067838103,19.7936209165997
0.000313213068522435,19.8036209165997
0.00034549599396302,19.8136209165997
0.000384289386355119,19.8236209165997
0.000431526713485287,19.8336209165997
0.000487125462500706,19.8431796471066
0.00055059053783592,19.8520138777941
0.000622878391280332,19.8601671468396
0.000705180204206098,19.8676919746028
0.000798865969244761,19.874637599509
0.000905491621121943,19.8810497782141
0.0010268191010557,19.8869710311863
0.00116484248782256,19.8924408755021
0.00132181909571972,19.8974960319525
0.00150030426887319,19.9021706226
0.00170319306111135,19.9064963627151
0.00193376857789741,19.9105027465383
0.00219576137074982,19.9142172230853
0.00249342068484113,19.9176653708172
0.00283160496614204,19.9208710784917
0.00321589694292222,19.9238567335806
0.00365275390554959,19.9266434233296
0.00414971112755612,19.9292511647055
0.0047156648927113,19.9316991820349
0.00536128271893304,19.9340062638474
0.00608828537286964,19.9361606135909
0.00689161249870142,19.9381485019624
0.00778198898056747,19.9400038978636
0.00877561713132509,19.9417610656936
0.00989828562263877,19.9434577705508
0.0111972876618252,19.9451456190912
0.012838047370024,19.9469815099413
0.0153429530673207,19.9493756162957
0.0169331170945481,19.9507403055668
0.0185982060507832,19.9521049948378
0.0201140994088727,19.953335937593
0.0214716231276297,19.954472839487
0.0226877459936532,19.9555696764865
0.023756743397366,19.9566660085514
0.0246557998916976,19.9578018941651
0.0253404666752647,19.9590351345313
0.0257154471654717,19.9604902262419
0.025395828486575,19.9627059300928
0.0246519454704849,19.9641878483151
0.0235844401564304,19.9656697665375
0.0223683973739862,19.9670616645694
0.0210065999324643,19.9684642150799
0.0195080879350784,19.9699243850857
0.0178810303067762,19.9714794603362
0.0167773483391509,19.9725402074997
0.0157168827450631,19.9736009546631
0.0132738171802808,19.9762719414369
0.0109098860734034,19.9792619901989
0.00905958476699931,19.9820039462914
0.00758922079968323,19.984542595731
0.00634336355216253,19.9870418610885
0.00525259467424379,19.9895925292244
0.00429398287468865,19.9922208253473
0.003450508828431,19.9949498387718
0.0027872294898231,19.9974749193859
0.00221930452249772,20
