ecg,time
0.00765755289666725,15.0011116406985
0.0081571339525766,15.0059596012735
0.00869710005734575,15.0107455414625
0.00928358702298185,15.0154706260754
0.00992331428528614,15.0201341600313
0.0106254751434088,15.0247452702417
0.0114149295080506,15.0293908138003
0.0123061579635816,15.0340612523303
0.0133218957902611,15.038773880153
0.0144941620690076,15.0435623604391
0.0158763260472024,15.0485077267838
0.0175826122920234,15.0538293812646
0.0200220551387075,15.0604145721891
0.021662433355967,15.0644244532178
0.0233666635129617,15.0684343342465
0.0248481200804305,15.0719545796359
0.0260959637218414,15.0751191194058
0.0271369908870876,15.0781262760979
0.0279400988408612,15.0810198204767
0.0284760088246845,15.0838073152678
0.0287401453350569,15.0866100342773
0.0286954422060602,15.0895934131827
0.0282052200340941,15.0931530957276
0.0274060780253173,15.096316173098
0.0263219307877289,15.0994792504683
0.0252374348772022,15.1021402304182
0.0241649675741417,15.1045293453627
0.0230923970203769,15.1067853941001
0.0220191549258712,15.108969123259
0.0209482521417127,15.1111133116111
0.0198833861831665,15.1132390262321
0.0188282604222552,15.1153613495613
0.0177863173813438,15.1174919112104
0.0167606956511867,15.1196402146897
0.0157542541029401,15.1218144079565
0.0147695806549155,15.1240217733253
0.0138090026275857,15.1262690656408
0.0128746011237046,15.1285627513053
0.0119682190747477,15.1309092067884
0.0110914703152813,15.133314883363
0.010245754897651,15.1357864367093
0.00943225973016896,15.1383308907827
0.00864659114154262,15.140974579876
0.00787273586009155,15.1437942725015
0.0071145018829817,15.1468100195641
0.00637568189752098,15.1500458766081
0.00566029491671816,15.1535296463758
0.00497255467458188,15.1572935705332
0.00431680739926286,15.1613752255898
0.00369742893428662,15.1658187587709
0.00311864310135613,15.1706769905734
0.00258426917982817,15.176015123772
0.00209741628158798,15.181917543668
0.00166033150572824,15.1884978601926
0.00128859383168722,15.1956050316281
0.000978371295227012,15.2032912519541
0.000760066854045051,15.210758685122
0.000590216771325567,15.2187514712012
0.000440029451023326,15.2284656668688
0.000331638737954712,15.2384549439577
0.00025629222050821,15.2484549439577
0.000204640951137551,15.2584549439577
0.000169794484508656,15.2684549439577
0.0001467204326635,15.2784549439577
0.000131845469109564,15.2884549439577
0.000122706405910334,15.2984549439577
0.000117633963894186,15.3084549439577
0.000115501990568446,15.3184549439577
0.000115550801313721,15.3284549439577
0.000117270864783894,15.3384549439577
0.000120327411592162,15.3484549439577
0.000124510655934867,15.3584549439577
0.000129702171978481,15.3684549439577
0.000135852139620149,15.3784549439577
0.000142964427916297,15.3884549439577
0.000151087595696626,15.3984549439577
0.000160310523305248,15.4084549439577
0.000170761871590451,15.4184549439577
0.000182613001074417,15.4284549439577
0.000196084409796866,15.4384549439577
0.000211456199578906,15.4484549439577
0.000229083622043579,15.4584549439577
0.000249419490968999,15.4684549439577
0.00027304634012152,15.4784549439577
0.000300722928568521,15.4884549439577
0.00033345252958216,15.4984549439577
0.00037258527129145,15.5084549439577
0.000419975328431398,15.5184549439577
0.000476382349892374,15.5281644240732
0.000540641976601085,15.5371410493004
0.000613649688948709,15.5454236498861
0.000696563763444334,15.5530659070102
0.000790724017798392,15.560118274141
0.000897655297387294,15.5666275725099
0.00101908600430292,15.5726372580014
0.00115697344161575,15.5781876778067
0.00131353458094428,15.5833162901628
0.00149128051400892,15.5880578710116
0.00169305731699862,15.5924447183342
0.00192209395334781,15.5965068512831
0.0021820607518373,15.6002721932553
0.00247713862461875,15.6037667485481
0.00281210813395648,15.6070147880809
0.0031924613765288,15.6100390437704
0.00362454835086019,15.6128609095824
0.00411577430244392,15.6155006710965
0.00467487335677698,15.6179777830454
0.00531230405941921,15.6203112202238
0.00603272959077018,15.6224974985501
0.00682859853351682,15.6245129290426
0.00771026797365193,15.6263918008107
0.00869344561428937,15.6281687321089
0.00980294280702309,15.6298814102854
0.0110837021114068,15.6315803269246
0.0126835110689095,15.6334080037431
0.0151047015325248,15.6357715357
0.016699062102112,15.6371653452047
0.0183759131772688,15.6385591547094
0.0199031958396888,15.6398115287214
0.0212684335810628,15.6409612712343
0.0224921749048668,15.6420657717781
0.023570787235455,15.6431655736997
0.0244833654770176,15.6443001093218
0.02518866592095,15.6455240908346
0.0256007868446244,15.6469493470961
0.0253985818579497,15.6490566646998
0.0247146578591364,15.6505734194251
0.0236791869342447,15.6520901741505
0.0224936343845773,15.6534912385509
0.0211627249396575,15.6548915879004
0.0196952033330587,15.6563424160074
0.0181000062381437,15.657881111446
0.0170934753287236,15.6588531018467
0.0161130397771919,15.6598250922473
0.0134570299657162,15.6627087513648
0.0112586332283238,15.6654668789594
0.00947222448272016,15.6680643481654
0.0080102745415673,15.6705242831471
0.00680087066057382,15.6728729843699
0.00578646719296202,15.6751406668427
0.00492011185858948,15.6773663842949
0.00416051853977282,15.6796105398433
0.0034619736110801,15.6819979363873
0.002750149758728,15.6848685600084
0.00235364615902436,15.6867269464471
0.00200092673072105,15.6885853328858
0.00171536271537219,15.6902667382407
0.00147306186740963,15.6918463500123
0.00125290653152001,15.6934296563299
0.00104081670033433,15.6951168398189
0.000820926895099777,15.697072410244
0.000551254193399666,15.6998392264179
0.000253844537712968,15.7035445380727
4.5958303114908e-05,15.7067361186039
-0.00011949408559423,15.7098124269684
-0.000274236799677583,15.7133551929659
-0.00042949396036208,15.7180541328488
-0.00054755881565336,15.7235774751686
-0.000592292481761839,15.7284077706198
-0.000576805689837481,15.7327894777038
-0.000503110441162151,15.7367354948866
-0.000370466600346314,15.7402946789332
-0.000176377366278564,15.7435138751071
8.31607520425325e-05,15.7464434055876
0.000414378319149689,15.7491375808841
0.000826587644032904,15.7516507818752
0.00133501804330303,15.7540436669906
0.00196679351859622,15.7563920764732
0.00276874004993439,15.7587888064933
0.00385941237954868,15.7614386625954
0.00532412682329807,15.7643618256635
0.00713305634292794,15.7673712608531
0.00848799171442077,15.7693179605413
0.0100230514429812,15.7712646602295
0.011580713273115,15.7729955300251
0.0132482922798616,15.7746148269255
0.0150398533772084,15.7761282195398
0.0170175378015816,15.7775758241359
0.0192100376713772,15.7789613461607
0.021659158463868,15.780294221585
0.0244006675896609,15.7815770448307
0.0274719583177071,15.7828117472706
0.0309194194224663,15.7840022350425
0.0347874717970132,15.785149800515
0.0391329068337863,15.7862578816867
0.0440206393981652,15.7873297239089
0.0495249196416008,15.7883683581945
0.0557328554463162,15.7893769355271
0.0627480361929553,15.7903588147076
0.0706981725221096,15.7913179724199
0.0797369315177405,15.7922584145625
0.0900541354430918,15.7931845641786
0.101888282732301,15.7941014415808
0.11554450245994,15.795014888809
0.131425079081541,15.7959321068927
0.150077171576146,15.7968623350387
0.172281544904427,15.7978183047355
0.19802539883581,15.7987774480614
0.227897447883546,15.7997462167207
0.262741474111063,15.8007371800906
0.303784792312466,15.8017712284685
0.353188220505639,15.8028921491117
0.395800518769706,15.803799310128
0.430650352286233,15.8045321949
0.460756238112031,15.8051851627283
0.487110452267261,15.8058011802984
0.509826764848495,15.8064060718435
0.528538489902327,15.8070227065663
0.542330150521298,15.8076793211072
0.549175957504528,15.8084250545581
0.545528710972224,15.8092116740694
0.529903594058693,15.8100273047893
0.500756491220356,15.8108894295647
0.45603154486315,15.811810865779
0.395261895593475,15.8127738785778
0.348427331444959,15.8134043143456
0.296947500034376,15.8140347501134
0.251499014314778,15.8145605115736
0.212807333085506,15.8149987813705
0.178962204648817,15.8153839374358
0.148729271555849,15.8157364138703
0.121373315865751,15.8160686588474
0.0963949294707496,15.8163896290867
0.0733904281371457,15.8167072841964
0.0519406849120222,15.8170310171332
0.0313858809105146,15.8173774199532
0.00949634780429411,15.8178052887771
-0.000280537653014335,15.8180253002615
-0.00909822429621696,15.818245311746
-0.0156760262330424,15.8184265962921
-0.0217200504133555,15.8186096339279
-0.027795908930848,15.8188138334413
-0.0336563133660814,15.8190357300019
-0.0391432845934176,15.819273223161
-0.0441690882872258,15.8195255813774
-0.0486881217664804,15.8197929856308
-0.052680219511847,15.8200762749138
-0.0561408229075526,15.8203768252568
-0.0592507294222642,15.8207200223191
-0.0615883309844094,15.8210600568832
-0.0634179696331794,15.8214241928822
-0.0647568975827308,15.8218164110302
-0.0656191269914453,15.8222412516324
-0.0660163403618334,15.822704388001
-0.0659561679405745,15.8232130271953
-0.0654398975195467,15.823776575249
-0.064456523040068,15.8244090700899
-0.062978852751669,15.8251289317782
-0.0609513121122437,15.8259643373753
-0.0582567704123132,15.8269648268165
-0.0545849275629891,15.8282472496809
-0.050463489689193,15.8296488431676
-0.0464731573910085,15.8310057318413
-0.0426634910023293,15.8323224614926
-0.0390590149840095,15.8336011643058
-0.0356725095167057,15.8348425691667
-0.0325098370674606,15.8360466986849
-0.0295721092846402,15.8372132403708
-0.0268568608301442,15.8383417421841
-0.0243588271260328,15.8394317132714
-0.0220705513635976,15.8404826712542
-0.0199829072458371,15.8414941576117
-0.0180855668903607,15.8424657327604
-0.0163674215828064,15.8433969572367
-0.0147766368882576,15.844311240862
-0.0132441245654262,15.8452488482507
-0.0117746091013462,15.8462111960825
-0.0103720488128086,15.8472003362553
-0.00904021571006767,15.8482186717865
-0.00778264090281777,15.8492690459665
-0.00660256246363034,15.8503548557595
-0.00550287081347967,15.8514802039736
-0.0044860515225009,15.8526501080591
-0.00355412496397001,15.8538707942685
-0.00270858153831562,15.855150125226
-0.00195030988575593,15.8564982452116
-0.00127951308490053,15.8579286000084
-0.000695602879299176,15.85945964526
-0.000206283001742089,15.8610829763728
0.000180439628140234,15.8627503603319
0.000481375576063618,15.8644800913876
0.000711349986830792,15.8662926133918
0.000884271232124651,15.8682150674231
0.00101354269246134,15.8702855680936
0.00111268011326634,15.8725620169151
0.00119646696251136,15.8751430724154
0.00128406341255377,15.8782331459511
0.00139684815937683,15.881966121044
0.00153654693247319,15.8858967803995
0.00172451688673698,15.8904221022173
0.00195069824199092,15.8953156550407
0.00217872040568344,15.8999852645201
0.00238337855216401,15.9040861325687
0.00257806158753836,15.9079602121873
0.00276909622896635,15.91174813507
0.00296052121481905,15.9155248065289
0.0031556037218995,15.9193402456319
0.00335733186416415,15.9232333324898
0.00356860577780431,15.9272372029322
0.00379238704122037,15.9313826607502
0.00403181864868892,15.935700212358
0.00429035512184951,15.9402214339206
0.00457196754380016,15.9449803318118
0.00488148895975737,15.9500147095297
0.00522518376642707,15.9553673223815
0.00558343121980496,15.9606749486211
0.00595655855361849,15.9659071536698
0.00634676290856484,15.971054292634
0.00675741323762962,15.9761169116098
0.00719276180159502,15.9811013538098
0.00765760743695119,15.9860146688406
0.00815719270343951,15.9908626222623
0.00869716367055786,15.9956485555335
0.00928365621155173,16.0003736332308
0.00992338983787491,16.0050371601132
0.0106255597721123,16.0096482743355
0.0114150245925435,16.0142938201384
0.012306265732394,16.0189642623833
0.0133220191913911,16.0236768963198
0.0144943056040882,16.0284653884462
0.0158764978987978,16.0334107806441
0.0175828329807696,16.0387325031355
0.0200222787936104,16.0453176149875
0.0216626270281963,16.0493273932523
0.0233668165022199,16.0533371715172
0.0248482463860843,16.0568573656709
0.0260960700635728,16.0600218826811
0.0271370780884987,16.0630290316596
0.0279401608693152,16.0659225606747
0.0284760462426581,16.0687100509375
0.0287401565993621,16.071512777758
0.0286954213226235,16.0744961848169
0.0282051418331254,16.0780559641682
0.0274059874859122,16.0812189534956
0.0263218496710396,16.084381942823
0.0252373575897102,16.0870428888929
0.0241648907065884,16.0894319902896
0.0230923200578761,16.0916880321341
0.0220190780054413,16.0938717574672
0.0209481755192789,16.0960159438247
0.0198833101273834,16.0981416577057
0.0188281851903729,16.1002639812314
0.0177862432101369,16.1023945438224
0.0167606227573158,16.1045428488678
0.0157541826829057,16.1067170442475
0.0147695108864538,16.1089244122264
0.0138089346702128,16.1111717076199
0.0128745351190137,16.1134653968178
0.0119681551483712,16.1158118562864
0.0110914085765124,16.1182175373089
0.0102456954403516,16.1206890955848
0.00943220263363424,16.1232335550983
0.00864653476991512,16.1258772562342
0.00787268048519762,16.1286969622359
0.00711444777045151,16.1317127242926
0.00637562933037903,16.1349485981961
0.00566024419370404,16.1384323869813
0.0049725061061184,16.142196332667
0.00431676130252653,16.1462780121858
0.00369738562348592,16.1507215732964
0.00311860287106231,16.1555798372319
0.00258423228414368,16.1609180078639
0.00209738291402474,16.1668204722166
0.00166030180026514,16.1734008427428
0.00128856889183995,16.1805080532021
0.000978350630938757,16.1881943203077
0.000760085203722761,16.1956604571314
0.000590214269084103,16.203654092464
0.000440030029167866,16.213368107194
0.000331637424062528,16.2233575601207
0.000256291267888578,16.2333575601207
0.00020464027381637,16.2433575601207
0.000169794005847309,16.2533575601207
0.000146720092126584,16.2633575601207
0.000131845224028019,16.2733575601207
0.000122706228187351,16.2833575601207
0.000117633835415337,16.2933575601207
0.000115501899540934,16.3033575601207
0.000115550739971713,16.3133575601207
0.000117270828077813,16.3233575601207
0.000120327396420119,16.3333575601207
0.00012451066064488,16.3433575601207
0.000129702196023213,16.3533575601207
0.00013585218332043,16.3633575601207
0.000142964492313568,16.3733575601207
0.00015108768247952,16.3833575601207
0.000160310634798356,16.3933575601207
0.000170762010798085,16.4033575601207
0.000182613171778417,16.4133575601207
0.000196084616714457,16.4233575601207
0.000211456448594487,16.4333575601207
0.000229083920538462,16.4433575601207
0.000249419848287547,16.4533575601207
0.000273046768234399,16.4633575601207
0.000300723443029596,16.4733575601207
0.000333453150935427,16.4833575601207
0.000372586027187718,16.4933575601207
0.000419976256899229,16.5033575601207
0.000476383427439888,16.5130670292528
0.000540643219848307,16.5220436438349
0.000613651119353599,16.5303262345174
0.000696565405859729,16.5379684824545
0.000790725900532889,16.5450208410738
0.000897657452523732,16.5515301315671
0.00101908846816804,16.5575398097813
0.00115697625534169,16.5630902228725
0.00131353779113833,16.568218829044
0.0014912841734871,16.5729604042059
0.00169306148571316,16.5773472463099
0.00192209869943721,16.5814093744812
0.00218206615295706,16.5851747120918
0.00247714476954943,16.5886692634166
0.00281211512465327,16.5919172993548
0.00319246933080895,16.5949415518065
0.0036245574059101,16.5977634147244
0.00411578461967997,16.6004031736793
0.00467488512876378,16.6028802834018
0.00531231752007786,16.6052137186926
0.00603274447463101,16.6073999940228
0.00682861502167272,16.6094154221842
0.00771028634449694,16.6112942923082
0.00869346629150922,16.6130712226892
0.00980296650613709,16.6147839008553
0.0110837302611854,16.6164828189406
0.0126835492901744,16.6183105024174
0.015104761001679,16.6206740487601
0.0166991169247778,16.6220678517194
0.0183759606752157,16.6234616546787
0.0199032361535831,16.6247140241615
0.0212684682420451,16.6258637647429
0.0224922042040651,16.6269682648954
0.0235708107821415,16.6280680676769
0.0244833823195613,16.6292026056196
0.0251886742212314,16.6304265918488
0.0256007822407957,16.6318518588388
0.0253985365402626,16.6339592311444
0.0247145907491472,16.6354759745899
0.0236791096511857,16.6369927180353
0.0224935484469597,16.6383937804786
0.021162630888716,16.6397941318693
0.0196951018928091,16.6412449643264
0.0180998979448086,16.6427836662808
0.0170933660665769,16.6437556588611
0.0161129325165216,16.6447276514414
0.0134569506402909,16.6476112947534
0.0112585758061355,16.6503694077233
0.00947218308075605,16.652966864401
0.00801024456819565,16.655426789051
0.00680084857654746,16.6577754823516
0.00578645019335845,16.6600431598102
0.00492009752467756,16.6622688762954
0.00416050431043398,16.6645130378515
0.00346195520518536,16.6669004575829
0.00275013362359681,16.6697710853273
0.00235363642943039,16.6716294493178
0.0020009222024973,16.6734878133082
0.0017153614621418,16.6751692018028
0.00147306140907197,16.6767488096632
0.0012529054909828,16.6783321215595
0.0010408138410404,16.6800193222331
0.000820920108384206,16.6819749343125
0.000551234022377999,16.6847419143507
0.000253844125213465,16.6884470125344
4.59697900949319e-05,16.6916384001274
-0.000119479942184787,16.6947146234154
-0.000274222518039361,16.6982573286071
-0.000429479726055119,16.702956161134
-0.000547549604959193,16.7084795496251
-0.000592286581024258,16.7133098650793
-0.00057680273141679,16.7176915937321
-0.000503110253294719,16.7216376311418
-0.000370469239956814,16.7251968315575
-0.000176382899985396,16.7284160431097
8.31519990978903e-05,16.7313455852716
0.000414365953905357,16.7340397699248
0.000826571181310454,16.7365529784247
0.00133499666286811,16.7389458685997
0.00196676466591413,16.741294276254
0.00276869996105272,16.7436909983524
0.0038593546960709,16.7463408396253
0.00532405227456927,16.7492639981672
0.00713296542317382,16.7522734345203
0.00848789455588299,16.7542201437521
0.0100229467441923,16.7561668529839
0.0115806086019933,16.7578977401428
0.0132481715060241,16.7595170378185
0.0150397249776365,16.7610304398176
0.0170173935537284,16.7624780479781
0.0192098767965164,16.7638635741953
0.0216589781633184,16.7651964532424
0.0244004650108657,16.7664792797468
0.0274717311097128,16.7677139854383
0.0309191644653852,16.7689044762582
0.0347871849327289,16.7700520443875
0.0391325845638379,16.7711601281845
0.0440202769568185,16.7722319728083
0.0495245113925247,16.7732706092578
0.0557323938540954,16.7742791883746
0.0627475139487515,16.775261069202
0.0706975799541247,16.7762202282913
0.079736256712536,16.7771606715116
0.0900533635347236,16.7780868218698
0.101887394828847,16.779003699626
0.11554347365029,16.7799171467202
0.131423876649055,16.7808343640999
0.150075749657565,16.7817645907632
0.172279835672221,16.7827205578476
0.198023418786213,16.7836797006766
0.227895144678283,16.7846484680702
0.262738776130026,16.7856394290167
0.303781585993084,16.786673472832
0.353184632947989,16.7877943915906
0.395797674896901,16.7887015706104
0.430647961106082,16.7894344640103
0.460754162044589,16.7900874357842
0.487108658416404,16.7907034549514
0.509825264141615,16.7913083463464
0.528537328599575,16.7919249790891
0.542329428874109,16.7925815890206
0.549175910782883,16.7933273124232
0.545529587937805,16.7941139302774
0.529905494185605,16.7949295578173
0.500759559849312,16.7957916782078
0.456035958781262,16.7967131092755
0.395267184497871,16.7976761251829
0.348432084986169,16.7983065754515
0.296951399849434,16.7989370257202
0.251502226427156,16.7994627965531
0.212810093603883,16.7999010716105
0.178964646121236,16.8002862307948
0.148731466239354,16.8006387091638
0.121375309160766,16.8009709552983
0.0963967548709526,16.8012919260772
0.0733921157040103,16.8016095811044
0.0519422712503378,16.8019333130926
0.0313874398719883,16.8022797130496
0.00949827566756266,16.8027075685119
-0.000279562146074065,16.802927598153
-0.00909803826825235,16.8031476277942
-0.0156758992514597,16.8033289135347
-0.0217199204112888,16.8035119506604
-0.0277957816125065,16.8037161497279
-0.0336561932866548,16.8039380459073
-0.0391431743351787,16.8041755387136
-0.0441689892307559,16.8044278965811
-0.0486880345710706,16.8046953004728
-0.0526801443986046,16.8049785893682
-0.0561407598275661,16.8052791392867
-0.0592506558250098,16.8056223328509
-0.0615882736042098,16.8059623666294
-0.0634179282579786,16.8063265017744
-0.0647568717285108,16.8067187189388
-0.0656191162216192,16.8071435583957
-0.0660163443406216,16.8076066934161
-0.0659561864936311,16.8081153310021
-0.0654399307715517,16.8086788770626
-0.0644565715426066,16.8093113694253
-0.0629789177014745,16.810031227929
-0.0609513959421734,16.8108666292067
-0.0582568785623375,16.8118671121446
-0.0545850773335444,16.8131495221804
-0.0504636358844237,16.8145511174109
-0.0464732978290103,16.8159080075365
-0.0426636245415859,16.8172247385336
-0.0390591410247168,16.8185034426522
-0.0356726277558261,16.8197448488109
-0.0325099473948501,16.8209489796351
-0.0295722117312251,16.8221155226422
-0.0268569555364468,16.8232440257944
-0.0243589143190535,16.8243339982384
-0.0220706313374738,16.8253849575947
-0.0199829803446525,16.8263964453415
-0.0180856334926583,16.8273680218951
-0.0163674820876741,16.8282992477921
-0.0147766954027467,16.8292135306132
-0.0132441809046813,16.8301511371601
-0.0117746631222445,16.8311134840829
-0.0103721003777992,16.8321026232686
-0.00904026468918778,16.8331209577206
-0.00778268717548666,16.8341713307118
-0.00660260592053139,16.8352571391848
-0.00550291135852383,16.8363824859191
-0.00448608907488705,16.8375523883281
-0.00355415946036972,16.8387730726153
-0.00270861293524274,16.8400524013371
-0.00195033816224521,16.8414005186777
-0.00127953824573298,16.842830870279
-0.000695624959256151,16.8443619115642
-0.000206301139976998,16.8459852414333
0.000180424794782707,16.8476526235137
0.000481363509770942,16.8493823520631
0.000711340187736333,16.8511948707459
0.000884263226386855,16.8531173203491
0.00101353601509541,16.8551878149853
0.00111267428064814,16.8574642552204
0.00119646141324871,16.8600452974759
0.00128405731544991,16.8631353468197
0.0013968416048202,16.8668683217296
0.00153653914244553,16.8707989669436
0.0017245071982919,16.8753242623477
0.00195068770929205,16.8802178093571
0.00217871123835826,16.8848874519513
0.00238336991818905,16.8889883319608
0.00257805316963417,16.8928624163773
0.00276908785583345,16.8966503407547
0.00296051275960947,16.9004270116923
0.0031555950734388,16.9042424487971
0.0033573229167183,16.9081355324497
0.0035685964252197,16.9121393986136
0.0037923771716167,16.9162848511167
0.00403180814022423,16.9206023963597
0.00429034383691475,16.92512361045
0.00457195531936598,16.9298824996552
0.00488147559164287,16.9349168673266
0.00522516898303598,16.9402694685824
0.00558341613746048,16.9455771022839
0.00595654270269984,16.9508093092756
0.00634674630687956,16.9559564522206
0.00675739568402313,16.961019074382
0.00719274312880329,16.9660035196732
0.00765758743846931,16.9709168374834
0.00815717116165347,16.9757647935275
0.00869714034670657,16.9805507293352
0.00928363084438199,16.9852758095683
0.00992336213836556,16.9899393390444
0.0106255287460854,16.9945504517964
0.0114149897343062,16.999195996777
0.012306226225067,17.0038664376604
0.0133219739543616,17.0085790693561
0.01449425298724,17.0133675571425
0.0158764349027259,17.0183129398638
0.0175827520833343,17.0236346374251
0.0200221968093304,17.0302197782611
0.0216625560339972,17.0342295941932
0.0233667604202409,17.0382394101253
0.024848200085161,17.0417596230594
0.0260960310806872,17.0449241484121
0.0271370461217959,17.047931300218
0.0279401381301333,17.0508248348648
0.0284760325248308,17.0536123267874
0.0287401524685925,17.0564150507446
0.0286954289761908,17.0593984474833
0.0282051704978481,17.0629581913474
0.0274060206735405,17.0661212129477
0.0263218794048849,17.069284234548
0.0252373859200129,17.0719451930373
0.024164918882998,17.0743342994003
0.0230923482691115,17.0765903437716
0.0220191062012642,17.0787740705073
0.0209482036058625,17.0809182575961
0.019883338006236,17.0830439717485
0.0188282127672413,17.0851662952024
0.0177862703982037,17.0872968574483
0.0167606494771407,17.0894451619198
0.0157542088624369,17.0916193565252
0.0147695364605186,17.0938267235476
0.0138089595803185,17.0960740178132
0.0128745593132382,17.0983677057162
0.0119681785806414,17.1007141637244
0.011091431206746,17.103119843117
0.0102457172341228,17.1055913995866
0.00943222356185685,17.1081358571067
0.00864655543244788,17.1107795538284
0.00787270078239478,17.1135992549271
0.00711446760494018,17.1166150114877
0.00637564859841122,17.1198508792114
0.0056602627857697,17.1233346610257
0.00497252390842569,17.1270985988203
0.00431677819880683,17.1311802693725
0.00369740149855928,17.1356238202456
0.00311861761694701,17.1404820724029
0.00258424580769322,17.1458202293137
0.00209739514430268,17.1517226773708
0.0016603126881575,17.1583030281026
0.0012885780328429,17.1654102242578
0.000978358204675809,17.1730964742163
0.000760078518058062,17.1805630846613
0.000590215199607149,17.1885564096069
0.000440029830940219,17.198270490363
0.000331637914199391,17.2082598789791
0.000256291623369002,17.2182598789791
0.000204640526853654,17.2282598789791
0.000169794185003262,17.2382598789791
0.000146720219906021,17.2482598789791
0.000131845316284942,17.2582598789791
0.000122706295366171,17.2682598789791
0.000117633884254785,17.2782598789791
0.000115501934430024,17.2882598789791
0.000115550763800522,17.2982598789791
0.000117270842724681,17.3082598789791
0.000120327403038081,17.3182598789791
0.000124510659847364,17.3282598789791
0.000129702188012755,17.3382598789791
0.000135852167976754,17.3482598789791
0.000142964469248515,17.3582598789791
0.000151087651064402,17.3682598789791
0.000160310594168182,17.3782598789791
0.000170761959835358,17.3882598789791
0.000182613109076852,17.3982598789791
0.000196084540520398,17.4082598789791
0.000211456356720881,17.4182598789791
0.000229083810242494,17.4282598789791
0.000249419716097671,17.4382598789791
0.000273046609704262,17.4482598789792
0.000300723252383074,17.4582598789792
0.000333452920544797,17.4682598789792
0.000372585746788714,17.4782598789792
0.000419975912378239,17.4882598789792
0.000476383027410414,17.49796935217
0.000540642758114522,17.5069459706867
0.000613650587926312,17.5152285650303
0.000696564795487615,17.5228708163644
0.000790725200678812,17.5299231781315
0.000897656651245875,17.5364324715378
0.00101908755194506,17.542442152444
0.00115697520886359,17.5479925680192
0.00131353659705725,17.553121176479
0.00149128281214401,17.5578627537452
0.00169305993479254,17.5622495977803
0.00192209693357589,17.5663117277196
0.00218206414324839,17.5700770669442
0.00247714248294427,17.5735716197372
0.00281211252319627,17.5768196570054
0.00319246637063736,17.5798439106549
0.00362455403594669,17.5826657746432
0.00411578077982152,17.5853055345442
0.00467488074730223,17.5877826450894
0.0053123125098951,17.5901160810769
0.00603273893453195,17.5923023575169
0.00682860888413695,17.5943177865407
0.00771027950570258,17.5961966572714
0.00869345859340497,17.5979735879882
0.00980295768173566,17.5996862661519
0.0110837197772201,17.6013851836911
0.0126835350497198,17.6032128646767
0.0151047388339619,17.6055764056416
0.0166990964968047,17.6069702110415
0.0183759429873592,17.6083640164414
0.0199032211529605,17.6096163876124
0.0212684553565787,17.6107661289122
0.0224921933247858,17.6118706292082
0.023570802054702,17.6129704316662
0.0244833760990306,17.61410496874
0.0251886711936179,17.6153289532057
0.0256007840342634,17.6167542161874
0.0253985535370376,17.6188615680664
0.024714615882306,17.6203783157206
0.0236791385818,17.6218950633747
0.0224935806073011,17.6232961265467
0.0211626660759452,17.6246964771736
0.0196951398358508,17.6261473080052
0.0180999384426747,17.6276860075258
0.0170934069217493,17.6286579992936
0.0161129726198611,17.6296299910614
0.0134569802403278,17.6325136403496
0.0112585971782544,17.6352717588489
0.00947219844184717,17.6378692202634
0.00801025564741011,17.6403291488197
0.00680085670610327,17.6426778451156
0.0057864564288623,17.6449455244702
0.00492010277670153,17.6471712413216
0.00416050954431859,17.6494154006073
0.00346196203760709,17.6518028115742
0.00275013961288722,17.6546734377825
0.00235364000984778,17.6565318102555
0.00200092382771412,17.6583901827284
0.00171536185803538,17.6600715775941
0.00147306151153815,17.6616511869322
0.00125290581972092,17.66323449672
0.00104081486303812,17.6649216908992
0.000820922620613347,17.666877287237
0.000551241599839102,17.6696442053495
0.000253844245591512,17.6733493841762
4.59654206701539e-05,17.6765408446421
-0.000119485310793248,17.6796171000499
-0.000274227934975209,17.6831598281833
-0.000429485121170253,17.6878587012018
-0.000547553102290593,17.693382072277
-0.000592288828403302,17.6982123801857
-0.000576803868268855,17.7025941007024
-0.000503110344827062,17.7065401304817
-0.000370468264847491,17.7100993247233
-0.000176380833146405,17.7133185304744
8.31552804211083e-05,17.71624806823
0.000414370598128972,17.7189422493536
0.000826577371570498,17.7214554550202
0.00133500470859868,17.7238483432847
0.0019667755310572,17.7261967516267
0.00276871506469087,17.7285934767076
0.00385937643287433,17.7312433235586
0.0053240803746749,17.7341664838021
0.0071329997018441,17.7371759197102
0.00848793119892365,17.7391226253491
0.0100229862450102,17.741069330988
0.0115806480968809,17.742800211593
0.0132482170862251,17.7444195089788
0.0150397734405534,17.7459329074355
0.0170174480033069,17.7473805142509
0.0192099375263704,17.7487660388858
0.0216590462293061,17.7500989165655
0.0244005414897547,17.7513817418399
0.0274718168886335,17.7526164463041
0.0309192607219899,17.7538069359735
0.0347872932366992,17.7549545031001
0.0391327062358594,17.7560625859062
0.0440204137960589,17.7571344296237
0.0495246655268713,17.7581730652566
0.0557325681283554,17.7591816437001
0.0627477111225341,17.7601635239062
0.0706978036791483,17.761122682476
0.0797365114870259,17.7620631252899
0.0900536549718682,17.7629892753685
0.101887730062232,17.7639061529916
0.11554386208663,17.7648196001371
0.131424330643341,17.7657368177834
0.150076286530375,17.7666670450075
0.172280481041008,17.7676230130795
0.198024166412,17.7685821560969
0.227896014325925,17.7695509239695
0.262739794847621,17.7705418858323
0.303782796671461,17.7715759313721
0.353185987527354,17.7726968508429
0.395798748532049,17.7736040230637
0.430648863732424,17.774336913206
0.460754945632152,17.7749898834906
0.487109335391472,17.7756059020555
0.509825830377728,17.7762107935079
0.528537766626093,17.776827426999
0.542329700830934,17.7774840386719
0.549175927824815,17.7782297658694
0.545529256131728,17.77901638435
0.529904775974197,17.7798320130912
0.500758400356587,17.7806941351378
0.456034291262151,17.7816155681491
0.395265186482441,17.7825785828837
0.348430289253529,17.7832090276749
0.296949926655278,17.7838394724662
0.251501013040818,17.7843652397588
0.212809050826116,17.7848035128293
0.178963723877096,17.7851886708355
0.148730637230805,17.785541148474
0.121374556235994,17.7858733941714
0.0963960653764535,17.7861943647466
0.0733914782836061,17.786512019805
0.0519416720772299,17.7868357521516
0.0313868510528122,17.7871821531899
0.00949754754135576,17.7876100136986
-0.000279930546061802,17.7878300364817
-0.00909810846615112,17.7880500592648
-0.0156759471519186,17.7882313445543
-0.0217199694491834,17.7884143818726
-0.0277958296354025,17.7886185811085
-0.0336562385754133,17.7888404774319
-0.0391432159153025,17.7890779703714
-0.0441690265813086,17.7893303283708
-0.0486880674433525,17.7895977323991
-0.0526801727093195,17.7898810214408
-0.0561407835953115,17.7901815715197
-0.059250683584351,17.7905247664073
-0.0615882952370017,17.7908648004827
-0.0634179438442285,17.7912289359504
-0.0647568814511627,17.7916211534865
-0.065619120245694,17.7920459933761
-0.0660163427930544,17.7925091289059
-0.0659561794403725,17.7930177670995
-0.0654399181655996,17.793581313913
-0.0644565531757142,17.794213807212
-0.0629788931217228,17.7949336669188
-0.0609513642307916,17.7957690698282
-0.0582568376648329,17.7967695552226
-0.0545850207160459,17.798051970104
-0.0504635806188117,17.7994535646757
-0.0464732447395723,17.8008104542527
-0.0426635740595863,17.8021271847412
-0.0390590933767797,17.8034058883665
-0.0356725830564391,17.8046472940347
-0.0325099056856247,17.8058514243654
-0.0295721730004592,17.8070179668732
-0.0268569197310343,17.8081464695194
-0.0243588813531996,17.8092364414506
-0.0220706011000111,17.8102874002878
-0.019982952705539,17.8112988875096
-0.0180856083088274,17.8122704635323
-0.0163674592082992,17.8132016888923
-0.0147766732756541,17.8141159720174
-0.0132441595997369,17.8150535788824
-0.0117746426935359,17.8160159261488
-0.010372080877317,17.8170050657075
-0.00904024616605179,17.8180234005674
-0.00778266967526708,17.8190737740079
-0.00660258948454546,17.8201595829797
-0.00550289602308661,17.8212849302733
-0.00448607487053832,17.8224548333159
-0.00355414641104616,17.8236755183295
-0.00270860105738103,17.8249548478963
-0.00195032746377231,17.8263029662365
-0.00127952872484612,17.8277333190455
-0.000695616602814181,17.8292643618297
-0.000206294273321866,17.8308876921688
0.000180430412333457,17.8325550749593
0.000481368081472636,17.8342848044558
0.000711343902503052,17.8360973243939
0.000884266263296965,17.8380197756706
0.00101353854987957,17.8400902725873
0.00111267649608064,17.8423667160675
0.0011964635214939,17.8449477633286
0.00128405963063656,17.8480378218151
0.00139684409279376,17.8517707967941
0.0015365420972689,17.8557014473526
0.00172451087054183,17.8602267527391
0.00195069170086703,17.8651203019508
0.00217871471211657,17.8697899319915
0.00238337318977358,17.8738908074669
0.00257805635940936,17.8777648900646
0.0027690910287656,17.8815528138755
0.00296051596378589,17.8853294850108
0.00315559835099242,17.8891449228731
0.00335732630771556,17.8930380077408
0.00356859996988636,17.8970418755267
0.00379238091235188,17.9011873300446
0.00403181212320625,17.9055048777005
0.00429034811430173,17.9100260946234
0.00457195995295457,17.9147849871214
0.00488148065883114,17.9198193586013
0.00522517458677862,17.925171964253
0.00558342185456537,17.9304795951258
0.00595654871119047,17.935711801381
0.00634675259999717,17.9408589428169
0.00675740233801984,17.9459215637707
0.00719275020708166,17.95090600789
0.00765759501930894,17.9558193246466
0.00815717932754571,17.9606672796966
0.00869714918815945,17.9654532145427
0.00928364046043,17.9701782938145
0.00992337263856926,17.9748418223075
0.0106255405073154,17.9794529356168
0.0114150029482607,17.9840984809091
0.0123062412014069,17.9887689223086
0.0133219911027231,17.9934815548538
0.0144942729331447,17.9982700442853
0.0158764587831792,18.003215430599
0.0175827827497897,18.0085371376107
0.0200222278878051,18.0151222674594
0.02166258294633,18.0191320691125
0.0233667816796216,18.0231418707656
0.0248482176367529,18.0266620765804
0.0260960458581827,18.0298265987707
0.0271370582396265,18.0328337495047
0.0279401467500309,18.0357272820166
0.0284760377249505,18.0385147733101
0.0287401540344936,18.0413174983526
0.0286954260749478,18.0443008990034
0.0282051596318639,18.0478606563196
0.0274060080930373,18.051023665686
0.0263218681336537,18.0541866750524
0.0252373751808396,18.0568476288338
0.0241649082021637,18.0592367333142
0.0230923375750757,18.0614927767277
0.0220190955130711,18.0636765029317
0.0209481929590784,18.0658206897432
0.0198833274381965,18.0679464037928
0.0188282023136746,18.0700687272739
0.0177862600920193,18.0721992896506
0.0167606393484526,18.0743475943396
0.0157541989385569,18.0765217892386
0.0147695267661517,18.0787291566235
0.0138089501376381,18.0809764513167
0.0128745501419255,18.0832701397106
0.0119681696981628,18.0856165982723
0.0110914226282946,18.0880222782828
0.0102457089727474,18.0904938354371
0.00943221562858438,18.0930382937128
0.00864654759989006,18.0956819921078
0.00787269308832435,18.0985016950651
0.00711446008626859,18.1015174537091
0.0063756412944659,18.1047533237754
0.00566025573806241,18.1082371082322
0.0049725171600918,18.1120010490181
0.00431677179392037,18.1160827229692
0.00369739548078197,18.120526277723
0.00311861202721111,18.1253845343451
0.00258424068130794,18.1307226964572
0.00209739050815799,18.1366251506915
0.00166030856087148,18.1432055089268
0.00128857456775175,18.1503127105042
0.000978355333689604,18.1579989669626
0.000760081052908396,18.165465397852
0.000590214847096994,18.1734588404648
0.000440029906263198,18.1831728961905
0.000331637728497116,18.1931623091883
0.000256291488684643,18.2031623091883
0.000204640430985045,18.2131623091883
0.000169794117129279,18.2231623091883
0.000146720171499659,18.2331623091883
0.000131845281339133,18.2431623091883
0.000122706269923673,18.2531623091883
0.00011763386576252,18.2631623091883
0.000115501921225235,18.2731623091884
0.000115550754788387,18.2831623091884
0.000117270837193718,18.2931623091884
0.000120327400551638,18.3031623091884
0.00012451066017327,18.3131623091884
0.000129702191074563,18.3231623091884
0.000135852173820378,18.3331623091884
0.00014296447802143,18.3431623091884
0.000151087663005291,18.3531623091884
0.000160310609605359,18.3631623091884
0.000170761979192925,18.3731623091884
0.000182613132888479,18.3831623091884
0.00019608456945156,18.3931623091884
0.000211456391601512,18.4031623091884
0.000229083852113417,18.4131623091884
0.000249419766276245,18.4231623091884
0.000273046669877763,18.4331623091884
0.000300723324743398,18.4431623091884
0.00033345300798649,18.4531623091884
0.000372585853206844,18.4631623091884
0.000419976043128643,18.4731623091884
0.000476383179223574,18.4828717808389
0.000540642933341417,18.4918483978623
0.000613650789598477,18.5001309908165
0.000696565027115549,18.5077732408614
0.000790725466260899,18.5148256014338
0.000897656955313536,18.5213348937346
0.0010190878996291,18.5273445736192
0.00115697560597355,18.5328949882517
0.00131353705017593,18.5380235958431
0.0014912833287312,18.5427651723107
0.00169306052331604,18.5471520156129
0.00192209760366002,18.5512141448812
0.00218206490586201,18.5549794834934
0.0024771433506283,18.5584740357292
0.00281211351035315,18.5617220724927
0.00319246749391125,18.5647463256875
0.00362455531471925,18.5675681892696
0.0041157822368994,18.5702079488116
0.0046748824098954,18.5726850590445
0.00531231441106109,18.5750184947676
0.0060327410367782,18.5772047707865
0.00682861121308342,18.579220199483
0.00771028210074471,18.5810990699834
0.00869346151451483,18.5828760005728
0.00980296103021823,18.5845886787373
0.011083723755418,18.5862875964837
0.0126835404532929,18.5881152784145
0.015104747245465,18.5904788214199
0.0166991042482237,18.5918726258937
0.0183759496991192,18.5932664303676
0.0199032268451223,18.5945188008979
0.0212684602462064,18.5956685419251
0.0224921974532253,18.5967730421667
0.0235708053666862,18.5978728447474
0.0244833784598335,18.5990073821508
0.0251886723429395,18.6002313672857
0.0256007833543193,18.6016566317882
0.0253985470884779,18.6037639914178
0.0247146063465264,18.6052807374749
0.0236791276051444,18.6067974835321
0.0224935684051727,18.6081985464275
0.0211626527252996,18.6095988973443
0.0196951254395379,18.6110497287926
0.0180999230769505,18.6125884292367
0.0170933914204186,18.6135604213128
0.0161129574037667,18.6145324133889
0.0134569690083221,18.6174160604109
0.011258589067379,18.6201741768133
0.00947219261128304,18.6227716364315
0.00801025144130622,18.6252315635066
0.00680085361914998,18.6275802586667
0.00578645406066455,18.6298479373023
0.00492010078187924,18.6320736540149
0.00416050755673673,18.6343178141618
0.00346195944414048,18.6367052284526
0.00275013733944562,18.6395758552439
0.00235363865014855,18.6414342245
0.00200092320968408,18.6432925937561
0.00171536170636564,18.6449739862057
0.00147306147127166,18.6465535949834
0.00125290569375318,18.6481369055708
0.0010408144742621,18.649824102213
0.000820921666787799,18.6517797045208
0.000551238725225689,18.6545466461177
0.000253844199324839,18.6582517943588
4.59670773656561e-05,18.6614432271852
-0.000119483275042239,18.6645194704094
-0.00027422588081061,18.6680621898395
-0.00042948307518841,18.6727610474957
-0.000547551776250555,18.6782844251784
-0.000592287976566666,18.6831147359499
-0.000576803437760258,18.6874964595534
-0.000503110310920776,18.6914424922275
-0.000370468635635151,18.6950016888116
-0.000176381618148331,18.6982208967637
8.31540346365827e-05,18.701150436191
0.000414368835269419,18.7038446186538
0.000826575022155748,18.7063578253953
0.00133500165523268,18.7087507143846
0.00196677140807681,18.7110991224658
0.00276870933369539,18.7134958464152
0.00385936818516334,18.7161456911493
0.00532406971280469,18.7190688507471
0.00713298669596486,18.7220782868237
0.00848791729669729,18.7240249938265
0.010022971259417,18.7259717008292
0.011580633113408,18.72770258392
0.0132481997946329,18.729321881416
0.0150397550553984,18.7308352812165
0.017017427347255,18.7322828885422
0.0192099144879729,18.7336684137774
0.0216590204080251,18.7350012919758
0.0244005124770934,18.7362841177168
0.0274717843480519,18.7375188226466
0.030919224206738,18.7387093127524
0.0347872521512999,18.7398568802594
0.0391326600793222,18.7409649634414
0.0440203618858526,18.7420368075027
0.0495246070557886,18.7430754434454
0.0557325020172093,18.7440840221444
0.0627476363244674,18.7450659025862
0.0706977188088987,18.7460250613531
0.0797364148381952,18.7469655043212
0.090053544415126,18.7478916545058
0.101887602891479,18.7488085321795
0.115543714733497,18.7497219793055
0.131424158421086,18.7506391968507
0.150076082868639,18.7515694238621
0.172280236222161,18.7525253915595
0.198023882802401,18.7534845345055
0.227895684427978,18.7544533021964
0.262739408400907,18.7554442637117
0.30378233740593,18.7564783085974
0.353185473671482,18.757599227798
0.395798341245001,18.7585064025979
0.430648521313522,18.759239293976
0.460754648367896,18.7598922648256
0.487109078568171,18.760508283619
0.509825615560766,18.7611131750497
0.528537600442773,18.7617298082569
0.542329597643214,18.7623864192692
0.549175921335604,18.7631321450272
0.545529381974039,18.7639187632702
0.529905048395476,18.7647343915557
0.50075884017407,18.7655965129741
0.45603492379568,18.7665179452481
0.395265944383198,18.7674809604276
0.348430970424573,18.7681114072966
0.296950485479989,18.7687418541656
0.251501473314033,18.7692676228012
0.212809446383298,18.7697058966254
0.178964073712957,18.7700910550785
0.148730951700088,18.7704435329941
0.121374841844849,18.7707757788573
0.0963963269245551,18.7710967495097
0.0733917200787696,18.7714144045563
0.0519418993645255,18.771738136767
0.0313870744131626,18.7720845373951
0.00949782374819156,18.7725123959895
-0.000279790793290444,18.772732421374
-0.00909808182999259,18.7729524467585
-0.0156759289747674,18.7731337322191
-0.0217199508402272,18.7733167694644
-0.0277958114114931,18.7735209686363
-0.033656221388875,18.7737428649051
-0.0391432001359214,18.7739803577941
-0.0441690124067989,18.7742327157434
-0.0486880549680861,18.7745001197199
-0.0526801619649177,18.7747834087061
-0.0561407745747345,18.7750839587241
-0.0592506730501777,18.7754271531097
-0.0615882870273328,18.7757671870724
-0.0634179379287047,18.7761313224177
-0.0647568777603682,18.7765235398128
-0.0656191187170233,18.7769483795382
-0.0660163433783505,18.7774115148747
-0.0659561821146185,18.7779201528378
-0.0654399229466329,18.7784836993656
-0.0644565601425506,18.7791161923094
-0.06297890244584,18.7798360515597
-0.0609513762608014,18.78067145385
-0.0582568531802701,18.7816719383124
-0.0545850421960595,18.7829543513552
-0.0504636015859515,18.7843559461769
-0.0464732648810948,18.785712835962
-0.0426635932118652,18.7870295666435
-0.0390591114538321,18.7883082704559
-0.0356726000148254,18.7895496763102
-0.0325099215095571,18.7907538068282
-0.0295721876943775,18.7919203495254
-0.026856933315087,18.7930488523636
-0.0243588938599337,18.7941388244894
-0.0220706125716036,18.7951897835235
-0.0199829631913283,18.7962012709445
-0.0180856178630917,18.7971728471686
-0.0163674678882634,18.7981040727323
-0.0147766816702086,18.7990183557421
-0.0132441676823738,18.7999559624864
-0.0117746504437331,18.8009183096224
-0.0103720882753484,18.8019074490397
-0.00904025319328348,18.8029257837448
-0.00778267631440994,18.8039761570148
-0.0066025957199219,18.8050619657974
-0.00550290184091996,18.8061873128788
-0.00448608025924254,18.807357215681
-0.00355415136153834,18.808577900419
-0.002708605563426,18.8098572296652
-0.00195033152236237,18.8112053476262
-0.00127953233666569,18.812635699977
-0.000695619772849042,18.8141667421925
-0.000206296878138604,18.8157900723532
0.000180428281420691,18.8174574548743
0.000481366347349674,18.8191871840115
0.000711342493496844,18.8209997034733
0.000884265111466162,18.8229221541151
0.00101353758855268,18.8249926501666
0.00111267565591417,18.8272690924156
0.00119646272199384,18.8298501377776
0.00128405875262404,18.8329401927954
0.00139684314922838,18.8366731677482
0.00153654097658581,18.840603816279
0.00172450947767522,18.8451291178782
0.00195069018687316,18.8500226662546
0.00217871339448055,18.8546923010558
0.00238337194881138,18.8587931782506
0.00257805514948129,18.8626672615381
0.00276908982523636,18.8664551855637
0.00296051474841949,18.8702318566241
0.00315559710781013,18.8740472941992
0.00335732502152199,18.8779403786061
0.00356859862542561,18.8819442457769
0.00379237949354406,18.8860896995307
0.0040318106125383,18.8904072462716
0.00429034649199298,18.8949284621204
0.0045719581955692,18.8996873533697
0.00488147873701685,18.9047217234054
0.00522517246149117,18.9100743273901
0.00558341968628725,18.9153819593356
0.00595654643240971,18.9206141658702
0.00634675021327496,18.9257613078784
0.00675739981443683,18.9308239292901
0.00719274752259349,18.9358083738539
0.00765759214422804,18.9407216910101
0.00815717623058718,18.9455696464371
0.00869714583499747,18.9503555816479
0.0092836368135062,18.9550806612843
0.00992336865633247,18.9597441901501
0.0106255360468378,18.9643553032481
0.01141499793684,18.9690008484221
0.0123062355216041,18.9736712896259
0.013321984599184,18.9783839218489
0.0144942653686396,18.9831724106565
0.0158764497264973,18.9881177956078
0.0175827711195137,18.9934394990354
0.0200222161012751,19.000024633051
0.0216625727398049,19.0040344401194
0.0233667736169731,19.0080442471878
0.0248482109802842,19.0115644557026
0.0260960402537924,19.0147289790922
0.0271370536439178,19.0177361302328
0.0279401434809174,19.0206296635543
0.0284760357527922,19.0234171550864
0.0287401534406177,19.0262198797174
0.0286954271752435,19.0292032788844
0.0282051637528081,19.0327630310989
0.0274060128642157,19.035926045105
0.0263218724082925,19.0390890591111
0.0252373792536963,19.041750014678
0.0241649122528952,19.0441391198724
0.0230923416308139,19.0463951636491
0.0220190995665926,19.0485788900548
0.0209481969968954,19.0507230769715
0.0198833314461488,19.05284879106
0.0188282062782129,19.0549711145308
0.0177862640006635,19.0571016768579
0.0167606431897803,19.0592499814645
0.0157542027022108,19.0614241762521
0.0147695304427627,19.0636315434995
0.0138089537187963,19.0658788380305
0.0128745536201666,19.0681725262383
0.0119681730668628,19.0705189845901
0.0110914258816912,19.0729246643662
0.0102457121058918,19.0753962212608
0.00943221863729413,19.07794067925
0.00864655057040363,19.0805843770104
0.00787269600631603,19.0834040792628
0.00711446293773968,19.0864198371167
0.00637564406450139,19.0896557062946
0.00566025841091942,19.0931394897492
0.00497251971941046,19.0969034294006
0.0043167742229857,19.1009851020627
0.00369739776303525,19.1054286553447
0.00311861414712895,19.1102869102735
0.00258424262549905,19.1156250704129
0.00209739226642425,19.1215275223046
0.00166031012615188,19.1281078776941
0.00128857588189322,19.1352150772151
0.00097835642251537,19.1429013312084
0.000760080091688977,19.1503678301897
0.000590214980836578,19.1583612281795
0.000440029877740929,19.1680752933974
0.000331637798950017,19.1780646971491
0.000256291539781999,19.1880646971491
0.000204640467356793,19.1980646971491
0.000169794142880831,19.2080646971491
0.000146720189865888,19.2180646971491
0.000131845294598908,19.2280646971491
0.000122706279578254,19.2380646971491
0.000117633872780491,19.2480646971491
0.000115501926237422,19.2580646971491
0.000115550758210156,19.2680646971491
0.000117270839295002,19.2780646971491
0.000120327401498108,19.2880646971491
0.000124510660053025,19.2980646971491
0.000129702189916626,19.3080646971491
0.000135852171607358,19.3180646971491
0.000142964474697412,19.3280646971491
0.000151087658479765,19.3380646971491
0.00016031060375382,19.3480646971491
0.000170761971854539,19.3580646971491
0.000182613123860858,19.3680646971491
0.000196084558482332,19.3780646971491
0.000211456378375934,19.3880646971491
0.000229083836236771,19.3980646971491
0.000249419747248941,19.4080646971491
0.000273046647059926,19.4180646971491
0.000300723297303786,19.4280646971491
0.000333452974827397,19.4380646971491
0.000372585812851136,19.4480646971491
0.000419975993545225,19.4580646971491
0.000476383121652124,19.4677741693837
0.000540642866890306,19.4767507869734
0.000613650713118002,19.4850333804544
0.000696564939274358,19.4926756309883
0.000790725365542628,19.4997279920137
0.00089765683999969,19.5062372847337
0.00101908776777381,19.5122469650057
0.00115697545537358,19.5177973799957
0.00131353687833474,19.5229259879164
0.00149128313281968,19.5276675646868
0.00169306030012286,19.532054408267
0.00192209734953506,19.5361165377897
0.00218206461664543,19.5398818766341
0.00247714302156396,19.5433764290812
0.00281211313597916,19.5466244660361
0.00319246706791529,19.5496487194034
0.00362455482975099,19.5524705831395
0.00411578168430904,19.5551103428176
0.00467488177936363,19.557587453169
0.00531231369005086,19.5599208889923
0.00603274023950831,19.5621071651709
0.00682861032983762,19.5641225939915
0.00771028111658143,19.5660014645792
0.00869346040668945,19.5677783952169
0.00980295976031025,19.5694910733811
0.0110837222466864,19.5711899910489
0.0126835384039757,19.5730176726213
0.0151047440553606,19.5753812148527
0.0166991013084756,19.5767750196778
0.0183759471536897,19.5781688245029
0.0199032246863994,19.5794211952761
0.0212684583918651,19.5805709364068
0.022492195887584,19.5816754366689
0.0235708041107057,19.5827752392031
0.0244833775646083,19.5839097764815
0.025188671907192,19.5851337613626
0.0256007836123528,19.5865590252883
0.0253985495343485,19.5886663819784
0.0247146099632697,19.5901831286412
0.0236791317683615,19.591699875304
0.0224935730331659,19.5931009383043
0.021162657788881,19.5945012891111
0.0196951308996995,19.5959521203256
0.0180999289047673,19.5974908204194
0.0170933972996569,19.5984628123786
0.0161129631748169,19.5994348043377
0.0134569732681473,19.6023184522194
0.0112585921433269,19.6050765694173
0.00947219482230478,19.607674029717
0.00801025303618504,19.610133957354
0.00680085478956333,19.612482652945
0.005786454958492,19.6147503318534
0.0049201015381325,19.6169760486186
0.00416050831030367,19.6192202084388
0.00346196042760994,19.6216076214687
0.00275013820155681,19.6244782480389
0.00235363916566118,19.6263366185153
0.00200092344387113,19.6281949889918
0.00171536176366152,19.6298763823579
0.00147306148632654,19.6314559913482
0.0012529057413371,19.6330393016323
0.00104081462156062,19.6347264973401
0.000820922028457514,19.6366820973832
0.000551239815578726,19.6394490300712
0.000253844216780358,19.6431541899147
4.59664488320763e-05,19.6463456332257
-0.000119484047353281,19.6494218810715
-0.000274226660093836,19.6529646038028
-0.00042948385135361,19.6576634672859
-0.000547552279336029,19.6631868424624
-0.000592288299785326,19.668017152148
-0.000576803601171618,19.6723988745807
-0.000503110323905345,19.6763449061568
-0.000370468495125209,19.6799041018524
-0.000176381320532072,19.6831233089697
8.31545070207846e-05,19.6860528477629
0.000414369503776907,19.6887470297177
0.000826575913126188,19.6912602360515
0.0013350028132181,19.6936531247659
0.00196677297177817,19.6960015329461
0.00276871150732058,19.6983982573247
0.00385937131337761,19.7010481028617
0.00532407375672181,19.7039712627044
0.00713299162897434,19.7069806987171
0.00848792256978998,19.7089274052026
0.0100229769435563,19.7108741116882
0.0115806387967333,19.7126049938361
0.0132482063535143,19.7142242912903
0.0150397620290881,19.715737690581
0.017017435182352,19.7171852977131
0.0192099232267445,19.7185708227207
0.0216590302024038,19.7199037007223
0.0244005234820212,19.7211865262863
0.0274717966911853,19.7224212310395
0.0309192380575397,19.7236117209798
0.0347872677356405,19.7247592883425
0.0391326775872317,19.7258673713819
0.0440203815762297,19.7269392153128
0.0495246292348154,19.727977851138
0.0557325270942423,19.7289864297401
0.062747664696605,19.7299683100925
0.0706977510015851,19.7309274687846
0.0797364514987191,19.7318679116942
0.0900535863511669,19.7327940618386
0.101887651129509,19.7337109394932
0.115543770627067,19.7346243866265
0.131424223747992,19.7355416042101
0.150076160121154,19.7364718313022
0.172280329086392,19.7374277991417
0.19802399038069,19.7383869421148
0.227895809564301,19.7393557098746
0.262739554987235,19.7403466715217
0.303782511613907,19.7413807166556
0.353185668586259,19.7425016359587
0.395798495735479,19.7434088097802
0.430648651197888,19.7441417006896
0.460754761124003,19.7447946713249
0.487109175983989,19.7454106900315
0.509825697042559,19.7460155814705
0.528537663476712,19.7466322147854
0.542329636781425,19.7472888260483
0.549175923793982,19.7480345523523
0.545529334236287,19.7488211706854
0.529904945057293,19.7496367991438
0.500758673339073,19.7504989208005
0.456034683859613,19.7514203533542
0.395265656892385,19.7523833683649
0.348430712039447,19.7530138144458
0.296950273504251,19.7536442605266
0.251501298721421,19.7541700286528
0.212809296339124,19.7546083021911
0.178963941012009,19.7549934604747
0.148730832414467,19.7553459382851
0.121374733506688,19.7556781840854
0.0963962277133985,19.7559991547086
0.0733916283605079,19.7563168097597
0.051941813149507,19.7566405420219
0.0313869896877251,19.7569869428056
0.00949771897715388,19.7574148021261
-0.000279843803834165,19.7576348265239
-0.00909809193252973,19.7578548509216
-0.0156759358687406,19.7580361363173
-0.0217199578979814,19.7582191735903
-0.027795818323165,19.7584233727865
-0.0336562279070611,19.7586452690759
-0.0391432061204271,19.7588827619841
-0.0441690177826116,19.7591351199524
-0.0486880596994124,19.7594025239485
-0.0526801660397406,19.7596858129558
-0.0561407779957552,19.7599863629969
-0.0592506770454081,19.7603295575729
-0.0615882901409031,19.7606695915784
-0.0634179401721361,19.7610337269701
-0.0647568791599993,19.7614259444187
-0.0656191192965967,19.7618507842064
-0.0660163431561269,19.7623139196162
-0.0659561811000872,19.7628225576667
-0.0654399211330285,19.7633861043029
-0.064456557499904,19.7640185973814
-0.0629788989091135,19.7647384568048
-0.0609513716977676,19.7655738593299
-0.0582568472952748,19.7665743441458
-0.0545850340488043,19.767856757886
-0.0504635936332308,19.7692583526128
-0.0464732572415249,19.770615242319
-0.0426635859475124,19.7719319729273
-0.0390591045973017,19.7732106766688
-0.0356725935825991,19.7744520824525
-0.0325099155076221,19.7756562128994
-0.0295721821210461,19.7768227555248
-0.0268569281627192,19.7779512582902
-0.0243588891161863,19.7790412303422
-0.0220706082204774,19.7800921893016
-0.0199829592141109,19.781103676647
-0.018085614239197,19.7820752527947
-0.0163674645959842,19.7830064782812
-0.0147766784861828,19.7839207613347
-0.013244164616656,19.7848583681248
-0.0117746475041081,19.7858207153102
-0.010372085469298,19.7868098547812
-0.00904025052787417,19.787828189545
-0.00778267379619964,19.7888785628797
-0.00660259335485775,19.789964371734
-0.00550289963422713,19.7910897188959
-0.0044860782153166,19.7922596217893
-0.0035541494838232,19.7934803066318
-0.00270860385428653,19.7947596359996
-0.00195032998293846,19.7961077541045
-0.00127953096669764,19.797538106629
-0.000695618570446955,19.7990691490602
-0.000206295890119368,19.8006924792886
0.00018042908969206,19.8023598619119
0.000481367005122067,19.8040895911854
0.000711343027955392,19.8059021108278
0.000884265548380204,19.8078245617104
0.00101353795321032,19.8098950580901
0.00111267597461686,19.8121715008061
0.00119646302527239,19.8147525468884
0.00128405908568211,19.8178426032218
0.00139684350715085,19.8215755781845
0.00153654140168846,19.8255062274844
0.00172451000601609,19.8300315305201
0.00195069076116012,19.8349250792134
0.00217871389427971,19.8395947122088
0.00238337241952589,19.8436955887513
0.00257805560842495,19.8475696717771
0.00276909028175456,19.8513575957213
0.00296051520943005,19.85513426681
0.00315559757937435,19.8589497044941
0.00335732550940395,19.8628427890758
0.00356859913541255,19.8668466564799
0.00379238003173564,19.8709921105236
0.00403181118557785,19.8753096576116
0.00429034710738424,19.8798308738679
0.00457195886220237,19.8845897655909
0.00488147946602645,19.8896241361745
0.00522517326768836,19.8949767407915
0.00558342050879337,19.9002843723301
0.00595654729683519,19.9055165787586
0.00634675111864784,19.9106637205498
0.00675740077172768,19.9157263417878
0.00719274854092293,19.920710786183
0.00765759323485856,19.9256241031876
0.00815717740538519,19.9304720584716
0.00869714710698537,19.935257993544
0.00928363819693079,19.9399830730421
0.00992337016695641,19.9446466017665
0.0106255377388791,19.9492577149446
0.0114149998378779,19.9539032601636
0.0123062376761873,19.9585737014416
0.0133219870662453,19.9632863337868
0.0144942682381698,19.9680748228311
0.0158764531620731,19.9730202082991
0.017582775531361,19.9783419130863
0.0200222205723963,19.9849270455213
0.0216625766115637,19.9889368505354
0.0233667766754694,19.9929466555496
0.0248482135053576,19.9964668630402
0.025559581772178,19.9982334315201
0.026232808305025,20
