ecg,time
0.0127912287358789,15.0012045026298
0.015262408302247,15.0036006280784
0.016847107932289,15.0049795269213
0.018508381980984,15.0063584257643
0.02002071920335,15.0076006922638
0.0213742358404512,15.0087460392973
0.0225868067733159,15.0098495673653
0.0236533202967802,15.0109512163931
0.0245516235340543,15.0120909282648
0.0252384515730222,15.0133256154191
0.0256219755132585,15.0147757552571
0.0253381906130488,15.0169683129999
0.0246146332598597,15.0184640633658
0.0235611658144745,15.0199598137317
0.0223598584354337,15.0213576124226
0.0210142710699501,15.0227621619563
0.01953352619509,15.0242216135178
0.0179262091366434,15.0257731706768
0.0168654117872946,15.0268013596522
0.0158426059314823,15.0278295486277
0.0135260085504092,15.030364760506
0.0115657745511033,15.0328021306839
0.00992486379230669,15.0351268190118
0.00853808666312801,15.0373660614482
0.00734892082646431,15.0395552375616
0.00630661380105167,15.0417466559534
0.00535684608599832,15.0440400071967
0.00442321590783035,15.0466695230651
0.00381343686392144,15.0486584860749
0.00327623029319146,15.0506474490846
0.00286572128290912,15.0523585085025
0.0025266653194918,15.0539284717951
0.00222358899062406,15.0554795090641
0.00193627704728749,15.0571075719634
0.00164539624363161,15.0589495619041
0.00131202088044644,15.0613684655302
0.000901041815237748,15.0649819314217
0.000601566741609514,15.0682764533495
0.000374542464407971,15.0713589900976
0.000171565771371595,15.0748000542492
-2.61538681104294e-05,15.0792691969179
-0.000183939256459658,15.0847818416052
-0.000250111507742438,15.0897288104554
-0.000243995597493094,15.0942036597692
-0.000173271535965532,15.0982342236468
-4.07585973564841e-05,15.1018650630914
0.000153695706820566,15.1051437593354
0.000412218392680533,15.108118324989
0.000739219428465459,15.1108408755757
0.00114217456426201,15.1133651868543
0.00163326442873788,15.1157474392365
0.00223322964737349,15.1180522978002
0.00297805209966868,15.1203591412095
0.003948582514401,15.1228134011599
0.00530925196175865,15.125638498009
0.0070078174634601,15.1285684440634
0.00839273330565442,15.1306275703269
0.0099667067649454,15.1326866965904
0.0115392271044931,15.1344869542046
0.0131926400194052,15.136141457518
0.0149474490985439,15.1376704381955
0.0168788101082601,15.1391297651635
0.019013022022858,15.1405223183773
0.0213951580305105,15.1418606550188
0.0240618372941292,15.1431480706855
0.0270506867023158,15.144386743576
0.030408678136974,15.145580989552
0.0341781215367625,15.1467315448437
0.0384165791661247,15.1478423971454
0.0431868109008757,15.1489165218267
0.048560767567411,15.1499568309232
0.0546206936033748,15.1509660702965
0.0614692328660891,15.1519480058806
0.0692278243203972,15.1529062971818
0.0780430424238551,15.153844778802
0.0880949454917137,15.1547676527981
0.0996081328236001,15.1556796306749
0.11286650315887,15.1565860574969
0.128241441669823,15.1574935108783
0.146228023292855,15.1584101085807
0.167515182374216,15.1593466505781
0.192483588124162,15.160296266435
0.221410361872206,15.1612515743075
0.255062098255789,15.1622232028438
0.294505338324201,15.1632278758023
0.341535563445474,15.164299374645
0.377548785028018,15.1650620415237
0.414716112146609,15.1658247084023
0.447727161922194,15.1665056417796
0.476652342361806,15.167130727028
0.501933900516796,15.1677307259013
0.52349085015283,15.1683292284533
0.540770410964894,15.1689504086094
0.552521730837402,15.1696288608375
0.555826869178906,15.1704005131612
0.547712792589824,15.1711905756702
0.526969898132779,15.1720189203602
0.491781547006872,15.1729020157973
0.439867997623344,15.173850961899
0.375766072416429,15.1747823281393
0.330489091389895,15.1753568173867
0.281762362119197,15.1759313066341
0.238618492395973,15.1764194268344
0.201459495817986,15.1768354124388
0.168706488147602,15.1772066161478
0.139322444636442,15.1775499719352
0.112659349345745,15.1778764147556
0.0882529065454373,15.1781943536265
0.0657000111748816,15.1785119474279
0.0445288820423884,15.1788401146326
0.0238225523351446,15.179202247023
0.00771644025692233,15.1795254028764
-0.00125733083952203,15.1797277354346
-0.00941100477481326,15.1799300679929
-0.0159788214053271,15.1801092970456
-0.0220407540022297,15.1802909823346
-0.0281416501847018,15.1804938447076
-0.0340304540725812,15.1807143826095
-0.0395470784889032,15.1809504812788
-0.044602474708632,15.1812013959566
-0.0491502370424344,15.1814672950372
-0.0531697245712406,15.1817490050297
-0.0566561154397556,15.1820478890298
-0.0596067788934325,15.182365807403
-0.062015523659379,15.1827036544295
-0.0639029729108572,15.1830639706181
-0.0652968923457521,15.1834519155674
-0.0662116186120838,15.1838719520259
-0.0666592009409522,15.184329634247
-0.0666477830823878,15.1848320099844
-0.0661794095756453,15.1853882194473
-0.0652443976322357,15.1860118633512
-0.063817120713474,15.1867208694426
-0.061844922517041,15.1875423311379
-0.0592175924677725,15.1885232042384
-0.0556516093972593,15.1897705540775
-0.0515034008567625,15.1911789368526
-0.0474785497992278,15.1925419135616
-0.043629995061512,15.1938646390124
-0.0399842423415449,15.1951493944268
-0.0365552392423269,15.1963969730892
-0.0333496709126968,15.1976074196365
-0.0303692928648861,15.1987804222058
-0.0276121649095259,15.1999155192181
-0.0250734509009986,15.2010122064096
-0.0227460349055195,15.2020699879061
-0.0206210495899192,15.2030883940814
-0.0186883497785106,15.2040669783999
-0.0169369398080688,15.2050052999788
-0.0153337962446182,15.2059155071847
-0.0137879228508074,15.2068488535655
-0.0123042550078154,15.2078066071844
-0.0108867752430764,15.2087907645709
-0.00953928953792056,15.2098036593452
-0.00826537140143446,15.2108480482919
-0.00706830995754817,15.2119272191611
-0.00595105547561243,15.2130451348093
-0.00491616227693112,15.2142066301406
-0.00396572849998802,15.2154176881677
-0.00310133152472812,15.2166858388757
-0.00232395662596065,15.2180207568226
-0.00163391416207231,15.2194351971477
-0.00103073603598312,15.2209465455603
-0.000517438494275812,15.2225638015781
-0.000109965218984081,15.2242219353177
0.000209044946588324,15.2259393189723
0.000454640721376771,15.2277354844983
0.000640903471856106,15.2296361635679
0.000781337627466502,15.2316770767724
0.000889449667438784,15.2339116381432
0.000979781750397828,15.2364286860635
0.00107050443259406,15.2394042867001
0.00118767654387356,15.2431413008412
0.00132739660002209,15.2470054312149
0.00151229935653993,15.2514080147528
0.00174387158872786,15.2563580445555
0.00198585914872753,15.2612468341219
0.00223951833253422,15.2662713866784
0.00245595110427507,15.2705350499615
0.0026558404355718,15.274472792988
0.00284954830875622,15.2782807614437
0.00304259988698569,15.2820518617738
0.00323888637983032,15.2858434992043
0.00344165587434568,15.289697972958
0.00365391313544139,15.2936501946289
0.00387864106593312,15.2977314567688
0.00411898392545919,15.3019720868147
0.00437839550473362,15.3064029342159
0.00466082870070066,15.3110566648998
0.00497103860297045,15.3159691455815
0.00531508096188933,15.3211806370867
0.005683099247859,15.326481297673
0.00606428119331332,15.3316735116765
0.0064644620841812,15.3368014908452
0.00688537195611686,15.3418432075944
0.00733168196043851,15.3468090830247
0.00780813074668965,15.3517034596905
0.00832021671857486,15.3565325369253
0.00887383706504634,15.3612996169455
0.00947541787878568,15.3660059395075
0.0101319963657449,15.3706509318826
0.0108584950482801,15.3752761982954
0.0116758485342578,15.3799322788125
0.0126010320450278,15.384619033242
0.0136589948410649,15.3893571519771
0.0148866023172345,15.3941911142237
0.0163492251083569,15.3992296969338
0.0182051185755243,15.4047946330107
0.0206421397890642,15.4111726639762
0.0222088117963116,15.4149512507602
0.0238094297612855,15.4187298375441
0.0252053857579617,15.422115351543
0.0263836865624438,15.4252228289372
0.0273561801673207,15.4282195668374
0.0280716727803701,15.4310776332429
0.0285208707860308,15.433865604149
0.0286914195925423,15.4367128334873
0.0285281766885806,15.4398211723921
0.0277969387448021,15.443838633058
0.0269509172324761,15.4467297369696
0.0258887332266014,15.4496208408812
0.0248135464731583,15.452170084545
0.0237412409707828,15.4545148588724
0.0226677819920929,15.4567515202608
0.0215946090570401,15.458928257346
0.0205251127010898,15.4610731704092
0.0194630146251087,15.4632050825223
0.0184119092173629,15.4653378341721
0.0173751397072409,15.4674823141334
0.0163557893426547,15.4696475672095
0.0153566821718299,15.4718414587591
0.0143803295289346,15.4740711028487
0.0134289816607748,15.4763431691663
0.0125046453653249,15.4786641038203
0.0116090944817574,15.4810403081082
0.0107438749366511,15.4834783046739
0.00991032036776884,15.4859848616899
0.00910955490807419,15.4885671485892
0.00833050169693514,15.4912762783835
0.00756472824856725,15.4941682059392
0.00681602164509087,15.4972642801563
0.00608824099874774,15.5005897274013
0.00538545606241666,15.5041737233568
0.00471190557397772,15.5080501372341
0.00407192346514259,15.5122585030228
0.00346980860447851,15.5168454926396
0.00290961466321189,15.5218674955899
0.00239487890099917,15.5273952088246
0.00192835254325621,15.5335215401159
0.00151461338723656,15.5403230261857
0.00116671361365684,15.5476428172059
0.000877814190452529,15.5555852128971
0.000700907028840323,15.5622959391184
0.000530241825976613,15.5711048276819
0.000397763144231173,15.5806646348759
0.000300107465467859,15.5906646348759
0.000232361001670376,15.6006646348759
0.000185974960922608,15.6106646348759
0.000154727782343659,15.6206646348759
0.0001340819046245,15.6306646348759
0.000120822386198109,15.6406646348759
0.00011273589832492,15.6506646348759
0.000108322436673349,15.6606646348759
0.000106569040544837,15.6706646348759
0.000106791413806403,15.6806646348759
0.000108529832571353,15.6906646348759
0.000111481540584654,15.7006646348759
0.000115455932724903,15.7106646348759
0.000120344151588477,15.7206646348759
0.000126098411109791,15.7306646348759
0.000132718325612388,15.7406646348759
0.000140242489261169,15.7506646348759
0.000148744106514535,15.7606646348759
0.000158329894648827,15.7706646348759
0.000169141850468549,15.7806646348759
0.000181361818902634,15.7906646348759
0.000195219146609617,15.8006646348759
0.000211002093329247,15.8106646348759
0.000229074175413321,15.8206646348759
0.000249897331613884,15.8306646348759
0.000274064892855985,15.8406646348759
0.000302349080234685,15.8506646348759
0.000335770638350825,15.8606646348759
0.000375703141064423,15.8706646348759
0.000424033227676176,15.8806646348759
0.000481372455920328,15.8903494948634
0.000546621086082039,15.8993019509432
0.000620683336382834,15.9075618358485
0.000704723484445303,15.915182852924
0.000800087322551242,15.9222154224876
0.000908306161235608,15.9287063185174
0.00103111573186353,15.9346989425158
0.0011704817385341,15.9402335838232
0.00132863098627306,15.945347639077
0.00150808592568393,15.9500758201104
0.00171170608362071,15.9544503609735
0.0019427362595807,15.9585012200954
0.00220486583276,15.9622562634834
0.00250229838223929,15.9657414412949
0.00283984192907933,15.9689809753786
0.00322302227744373,15.971997555659
0.00365823110544688,15.974812541566
0.00415292637709475,15.9774461937923
0.00471591054270028,15.9799179558008
0.00535773326539414,15.9822468094788
0.00608195708674519,15.9844261237107
0.00688199436169046,15.9864360605801
0.00776841743232973,15.9883109453794
0.0087572542594234,15.9900854699462
0.00987395592182052,15.9917976961586
0.0111650266073851,15.9934992869001
0.0127875201502211,15.9953409475474
0.015256465754482,15.9977354782851
0.0168416898788969,15.999115032044
0.018503763098504,16.000494585803
0.0200168506515212,16.0017372795476
0.0213709709335541,16.0028827986537
0.0225841208315896,16.0039863442165
0.0236512567709963,16.0050878812539
0.0245502846981183,16.0062273257907
0.0252380366017463,16.0074614837673
0.0256229734954852,16.0089104094891
0.025342853252522,16.0110998959089
0.0246209717338076,16.0125964589502
0.0235682953549799,16.0140930219915
0.0223676866533626,16.0154909153207
0.02102274388038,16.016895257452
0.0195425776078511,16.0183543180153
0.0179357907210077,16.0199053049574
0.0168790027559039,16.0209294294219
0.0158595045769969,16.0219535538864
0.0135392380872363,16.0244906879579
0.0115760137105446,16.0269298513096
0.00993288185262381,16.0292559669158
0.00854452852641012,16.0314961975709
0.00735434730930826,16.0336857735151
0.00631158725460984,16.0358766362135
0.00536216864037967,16.0381673173514
0.00442788985672118,16.040796263349
0.0038151844744752,16.0427934035292
0.00327567923993884,16.0447905437094
0.00286460080206276,16.0465042910422
0.00252549364297529,16.0480749490322
0.00222256355687815,16.049625707285
0.00193555120099476,16.0512524781757
0.00164519949274053,16.0530913066919
0.00131309890184937,16.0555001883424
0.00090194216283714,16.0591126757838
0.00060184458948255,16.0624119674202
0.000374725769569585,16.0654941425185
0.000171901740409552,16.0689298207131
-2.55543512173605e-05,16.0733852940695
-0.000183780360717339,16.0788938396477
-0.000250576061443976,16.0838463032332
-0.000245004247684473,16.0883252719391
-0.000174806617267258,16.0923597151054
-4.28249754609529e-05,16.0959940075617
0.000151078256225429,16.0992757075077
0.000409015469440726,16.1022528007898
0.000735380032887306,16.1049774175021
0.00113761419916323,16.1075032888771
0.00162784013557888,16.1098865313101
0.0022267140946954,16.1121917694859
0.00296997731438643,16.1144980015229
0.00393780616646388,16.1169496853207
0.00529579270185904,16.1197736659295
0.00699148504105116,16.1227027228539
0.00837717038392759,16.1247655698562
0.00995223947544395,16.1268284168585
0.0115249508319243,16.1286307898586
0.0131780806086643,16.130286765858
0.0149316236896262,16.1318163233982
0.0168616851989214,16.1332763468182
0.0189939976944585,16.134669314976
0.0213740633948636,16.1360081223601
0.0240381981855594,16.1372959078946
0.0270242717909993,16.1385349853075
0.0303791089346762,16.1397296139592
0.0341448755470122,16.1408804983062
0.0383792643661593,16.1419916850501
0.0431448710020963,16.1430661190511
0.048513551272528,16.1441067103722
0.0545673186603089,16.1451161848523
0.0614088865729903,16.1460983440941
0.0691594169714681,16.1470568291907
0.0779652434602887,16.1479954719726
0.0880061129939991,16.1489184713294
0.0995062073282946,16.149830534089
0.112748837579486,16.1507369976684
0.128104588076026,16.1516444312133
0.146067319377149,16.1525609370671
0.167324019357384,16.153497288504
0.192262494664137,16.1544469117026
0.221153898216969,16.1554021579531
0.254763104972854,16.156373625363
0.294153279617293,16.1573779647345
0.341110211090536,16.158448726138
0.377159494031185,16.159212597535
0.41437800204233,16.159976468932
0.447431352001417,16.1606581550289
0.476390651741738,16.1612836209346
0.501704762700571,16.1618837582076
0.523297095888464,16.1624821887202
0.540619650899921,16.1631030439833
0.552430665071797,16.163780746277
0.5558309352453,16.1645523474232
0.54782012388382,16.1653421738949
0.52719387859014,16.1661701174211
0.492140736468872,16.1670526828685
0.440377637583637,16.1680011198566
0.376334060192192,16.1689332083864
0.331001377831823,16.1695090300765
0.282191546543086,16.1700848517666
0.238979361582271,16.1705738682011
0.201773737005691,16.1709903786493
0.168986649712559,16.171361903072
0.139575735886024,16.1717054591637
0.112890539396135,16.1720320180729
0.0884657315721427,16.1723500009226
0.0658981572662617,16.1726675582888
0.0447176123466442,16.1729955598139
0.0240157048703619,16.1733571664507
0.00778767832432076,16.1736824178698
-0.00121438807040197,16.173885273943
-0.00939196465353844,16.1740881300163
-0.0159631727977953,16.1742674134274
-0.0220245446168159,16.1744490412371
-0.0281256372710203,16.1746518567249
-0.0340151684071082,16.1748723555732
-0.0395328223815665,16.1751084187037
-0.0445894130932262,16.1753592985495
-0.0491384523275867,16.1756251615741
-0.0531592490423067,16.1759068328281
-0.0566469503300178,16.1762056741354
-0.0595989297020295,16.1765235446132
-0.062009532352294,16.1768614299513
-0.0638980986395078,16.1772216918759
-0.0652930980334383,16.1776095726532
-0.0662088764026366,16.1780295338492
-0.0666574896138582,16.1784871268361
-0.0666470923658326,16.1789893953956
-0.0661797460891411,16.1795454740394
-0.0652458022975091,16.1801689511058
-0.063819678528216,16.1808777415839
-0.0618488036890017,16.1816989097925
-0.0592231699070887,16.1826793416796
-0.0556600117665326,16.1839258411548
-0.0515116260560056,16.1853343425591
-0.0474864513687016,16.1866974121281
-0.0436374925617444,16.1880202219889
-0.0399912938093698,16.1893050582558
-0.0365618230823331,16.190552716684
-0.0333557783372796,16.191763243142
-0.0303749242303784,16.1929363263433
-0.0276173275902717,16.1940715049398
-0.0250781577790641,16.1951682747215
-0.022750303146262,16.1962261397894
-0.020624899565919,16.1972446304725
-0.0186918041066966,16.19822330021
-0.0169400224844002,16.1991617081402
-0.0153367619946688,16.2000718665153
-0.0137907603321051,16.2010051618349
-0.0123069554983775,16.2019628603652
-0.0108893303516328,16.2029469579811
-0.00954169132808424,16.2039597874811
-0.00826761250236961,16.2050041046236
-0.00707038368069231,16.2060831958639
-0.00595295593688478,16.2072010224001
-0.00491788452557043,16.2083624169755
-0.00396726865579331,16.2095733597287
-0.00310268692771151,16.2108413767233
-0.00232512600576662,16.2121761369967
-0.00163489784191045,16.2135903876037
-0.00103153620050274,16.2151015017951
-0.000517997998509904,16.216718687597
-0.000110323980621921,16.2183767129527
0.000208853565235997,16.22009395157
0.000454585727357058,16.2218899247855
0.000640955543487394,16.2237903479884
0.000781468099084223,16.225830914304
0.000889628960791466,16.2280649868252
0.000979976178504416,16.2305812944197
0.00107066668142989,16.2335555978875
0.00118781233525104,16.2372927237904
0.00132745721451425,16.2411561062662
0.0015122498438175,16.245557327231
0.00174376912019997,16.2505070913396
0.00198573658062149,16.2553958605726
0.00223937088563222,16.2604200346892
0.00245583899949745,16.2646844042661
0.00265574453195251,16.2686224480359
0.00284945860501465,16.2724305269352
0.00304251005808762,16.276201630826
0.00323879158947458,16.2799931984637
0.00344155197039969,16.2838475445701
0.00365379627828538,16.2877995884728
0.00387850747368563,16.2918806258336
0.00411882967425123,16.296120984271
0.00437821632827713,16.300551511325
0.00466061969316687,16.305204868949
0.00497079371447148,16.3101169177412
0.00531479215936978,16.3153279106947
0.00568281006027481,16.3206287646591
0.00606397630355609,16.325820973623
0.00646414528184328,16.3309490385061
0.00688503835045691,16.3359908198788
0.00733132772695319,16.3409567594925
0.00780775090034658,16.3458511915531
0.0083198060915472,16.3506803187995
0.00887339019441011,16.3554474456957
0.00947492898340254,16.3601538143327
0.0101314592344576,16.3647988536341
0.0108578891195569,16.3694240890375
0.0116751629261842,16.3740801490552
0.0126002494482796,16.3787668707419
0.0136580916509007,16.3835049344012
0.0148855408441663,16.3883387881216
0.0163479311503578,16.3933771255313
0.0182033725457502,16.3989413455437
0.0206403832740362,16.4053199372581
0.0222072009260079,16.4090990459445
0.0238080403749242,16.4128781546309
0.025204217664916,16.4162640374059
0.0263827079157575,16.4193716854456
0.0273553937193867,16.4223684619922
0.028071135476257,16.4252266452942
0.0285205835646334,16.4280146253727
0.0286914082837887,16.4308617256945
0.0285285307567255,16.4339696620089
0.0277981731166597,16.4379853365458
0.0269522971244233,16.4408772355466
0.0258900686277059,16.4437691345473
0.0248148595112276,16.4463187555551
0.023742553052817,16.448663708752
0.0226690951005267,16.4509004666165
0.0215959198025731,16.4530772568679
0.0205264166282881,16.4552221956971
0.0194643072634471,16.4573541141713
0.0184131863584041,16.4594868573371
0.0173763974784234,16.4616313167559
0.0163570240227897,16.4637965389999
0.015357890546369,16.4659903905488
0.0143815087620209,16.4682199861568
0.0134301292184372,16.470491995883
0.012505759006933,16.4728128659487
0.0116101722417937,16.4751889975737
0.010744915117792,16.4776269131261
0.00991132153326768,16.4801333803134
0.00911051586314569,16.4827155679408
0.0083314486493979,16.4854244856358
0.00756565652500861,16.4883161774334
0.00681692668636195,16.4914119871635
0.00608911796741284,16.4947371367715
0.00538629988442569,16.4983207966857
0.00471271100790018,16.5021968298309
0.00407268521832219,16.5064047625116
0.00347052153686546,16.5109912566572
0.0029102740812979,16.5160126877262
0.00239548094052662,16.5215397309878
0.00192889437837296,16.5276652611773
0.00151507164390976,16.5344661805347
0.00116709691242425,16.541785293665
0.000878130762237832,16.5497268639071
0.000700787056793262,16.556452535489
0.000530340113411017,16.5652504400062
0.000397724740022619,16.574819097467
0.000300080984136163,16.584819097467
0.000232342331644552,16.594819097467
0.00018596133024877,16.604819097467
0.000154717529934307,16.614819097467
0.000134074042483274,16.624819097467
0.000120816283135134,16.634819097467
0.000112731119251334,16.644819097467
0.000108318673573492,16.654819097467
0.000106566079952476,16.664819097467
0.000106789114557685,16.674819097467
0.000108528107176602,16.684819097467
0.000111480340217981,16.694819097467
0.000115455236359105,16.704819097467
0.000120343958856864,16.714819097467
0.000126098737986568,16.724819097467
0.000132719202066044,16.734819097467
0.00014024395831635,16.744819097467
0.000148746224424924,16.754819097467
0.000158332732071239,16.7648190974671
0.000169145494658655,16.7748190974671
0.000181366377065809,16.7848190974671
0.000195224750668997,16.7948190974671
0.00021100890654428,16.8048190974671
0.000229082401527904,16.8148190974671
0.000249907227583596,16.8248190974671
0.000274076786784187,16.8348190974671
0.000302363397087555,16.8448190974671
0.000335787937594116,16.8548190974671
0.000375724173080984,16.8648190974671
0.000424059020678453,16.8748190974671
0.000481402522671959,16.8845036927206
0.000546655917308282,16.8934558909461
0.000620723550256929,16.901715534844
0.000704769793778927,16.9093363274034
0.000800140538187262,16.9163686881763
0.000908367201707366,16.9228593903729
0.00103118563692384,16.9288518347495
0.00117056168526933,16.9343863099266
0.00132872230839971,16.9395002118436
0.00150819013475748,16.9442282516674
0.00171182489595866,16.9486026628231
0.00194287162690902,16.9526534031619
0.00220501998104892,16.9564083381592
0.0025024738588794,16.9598934174952
0.00284004166300902,16.9631328626089
0.0032232496584167,16.9661493630954
0.00365849008773884,16.9689642781516
0.00415322162372174,16.9715978683668
0.00471624763163704,16.9740695772772
0.00535811899521409,16.9763983870973
0.00608238386767876,16.9785776256049
0.00688246763700111,16.9805875054386
0.00776894561389368,16.9824623528665
0.00875785027637122,16.9842368613869
0.00987464186937651,16.985949098982
0.0111658473177289,16.9876507466437
0.012788652903247,16.9894926286958
0.0152582784198005,16.991887642957
0.0168433438624504,16.9932669970345
0.0185051749113313,16.9946463511121
0.0200180349643163,16.9958889143728
0.0213719723589081,16.9970343806775
0.0225849468665697,16.9981379204795
0.0236518941890604,16.9992394911358
0.0245507023890959,17.000379016506
0.0252381740110849,17.0016133348557
0.0256226820505754,17.0030626288726
0.0253414493682515,17.0052530470255
0.0246190586937161,17.0067493618975
0.0235661423112746,17.0082456767694
0.0223653213543631,17.009643540789
0.0210201825648343,17.0110479455201
0.0195398401928694,17.0125071244795
0.017932891804719,17.0140582842495
0.0168748930789763,17.0150836356447
0.015854395991133,17.0161089870399
0.0135352269882147,17.0186455535935
0.0115728988590627,17.0210841869918
0.00993043435128324,17.0234098808116
0.00854255636921787,17.0256498194681
0.00735268359305554,17.0278392772617
0.0063100649822253,17.0300303038677
0.00536055076487667,17.0323217718633
0.00442646910109881,17.0349508901188
0.00381463831161216,17.0369455968461
0.00327582017177744,17.0389403035734
0.00286491231225823,17.0406532558596
0.00252582191862418,17.0422237091385
0.00222285028544285,17.043774549383
0.00193575127071975,17.0454016997908
0.00164524564732563,17.0472414558881
0.0013127735616541,17.049653269157
0.000901670034866988,17.0532660484372
0.000601757613107913,17.0565639253758
0.000374668134737513,17.059646192265
0.000171800402568315,17.0630834356151
-2.57318497265228e-05,17.0675428840892
-0.000183829299323274,17.0730526281792
-0.000250442959546915,17.0780034870592
-0.000244712402052329,17.0824812534321
-0.000174361224215496,17.0865145643208
-4.22246476759567e-05,17.0901478485791
0.000151839296871409,17.0934286718709
0.00040994730229066,17.0964050278467
0.000736497483825163,17.0991290413068
0.00113894189471468,17.1016544570716
0.00162941974788595,17.1040374102554
0.00222861161647004,17.1063425363458
0.00297232852008442,17.1086489439436
0.00394094305486954,17.1111013750108
0.00529971131744184,17.113925680581
0.00699624146773306,17.1168549970348
0.00838170230218195,17.1189167579556
0.00995645164157891,17.1209785188763
0.0115291070550112,17.1227802743825
0.0131823181044806,17.124435819515
0.0149362306014942,17.1259652092258
0.0168666702820947,17.1274250291592
0.0189995368922863,17.1288178767645
0.0213802058753563,17.1301565469248
0.0240450826516568,17.1314442249337
0.027031965177634,17.132683184491
0.0303877214740577,17.1338777016592
0.0341545591080629,17.1350284900697
0.0383901334047084,17.1361395794004
0.0431570875630976,17.1372139233176
0.0485273050481031,17.1382544324555
0.054582865593069,17.1392638383301
0.061426464253203,17.1402459324642
0.0691793428363666,17.1412043611648
0.0779879050887351,17.1421429570669
0.0880319886798304,17.1430659199845
0.0995358981737434,17.1439779581971
0.112783113686236,17.1448844111768
0.12814445414593,17.1457918506421
0.146114133930934,17.14670838343
0.167379708184968,17.1476447906064
0.192326902938881,17.1485944118118
0.221228610872795,17.1495496761945
0.254850207951444,17.1505211907647
0.294255841671924,17.1515256275623
0.341234118783022,17.152596603939
0.377272874134729,17.1533601239211
0.414476442378234,17.1541236439032
0.447517447471791,17.1548051104482
0.476466796340232,17.1554304654019
0.501771417938165,17.1560305623504
0.523353441020043,17.1566290138178
0.540663474501474,17.157249963585
0.552457116068858,17.1579278838615
0.555829690143425,17.1586994998775
0.547788821171574,17.1594893950283
0.527128628978141,17.1603174552951
0.492036144114043,17.1612001749722
0.44022748082075,17.1621487889089
0.376166624411339,17.1630806657561
0.330850377957523,17.1636560942433
0.282065072666397,17.1642315227304
0.238873044089666,17.1647202747905
0.201681171686527,17.1651366304925
0.168904132419896,17.1655080603899
0.13950113960414,17.1658515574547
0.112822457796343,17.1661780821486
0.0884030636760015,17.1664960520117
0.0658398180738188,17.16681362004
0.0446620554441265,17.1671416701819
0.0239588759296871,17.1675034309239
0.0077668755852887,17.1678280629378
-0.00122693085896994,17.168030766307
-0.00939753038207126,17.1682334696762
-0.0159677462805518,17.1684127372265
-0.0220292819893724,17.1685943818874
-0.0281303167508778,17.1687972111255
-0.0340196345734651,17.1690177214322
-0.03953698672589,17.1692537949929
-0.0445932273441424,17.1695046850629
-0.0491418923804389,17.1697705586707
-0.0531623054741054,17.170052241294
-0.0566496228113646,17.1703510951291
-0.0596012165589161,17.1706689796587
-0.0620112723769501,17.1710068534105
-0.0638995118916205,17.1713671312206
-0.0652941954118357,17.171755030785
-0.0662096660781554,17.1721750140104
-0.0666579778165058,17.1726326331106
-0.066647282125441,17.1731349330278
-0.0661796355003302,17.1736910499378
-0.0652453794344201,17.1743145757949
-0.0638189185942646,17.1750234293131
-0.0618476570130334,17.1758446833064
-0.059221527662924,17.1768252441115
-0.0556575446942542,17.1780719918977
-0.0515092110645586,17.1794804585889
-0.0474841312860676,17.1808435009797
-0.0436352909257506,17.1821662861267
-0.0399892229018707,17.1834510987155
-0.0365598892252258,17.1846987337798
-0.0333539841033692,17.1859092368287
-0.030373269514865,17.1870822964078
-0.0276158102326492,17.1882174511018
-0.0250767740051736,17.1893141966853
-0.0227490479267885,17.1903720372669
-0.0206237669315772,17.191390503189
-0.0186907874303161,17.1923691478981
-0.0169391147344728,17.1933075305264
-0.0153358885243882,17.1942177032111
-0.0137899244661604,17.1951510134937
-0.0123061597935295,17.1961087281669
-0.0108885772677846,17.1970928432977
-0.00954098319189621,17.198105691925
-0.00826695147483374,17.1991500301082
-0.00706977172292714,17.2002291446817
-0.00595239477433745,17.2013469973296
-0.00491737561026584,17.2025084214283
-0.00396681312613846,17.2037193979585
-0.00310228556466229,17.2049874541327
-0.00232477918321181,17.2063222606054
-0.00163460546696123,17.2077365667999
-0.0010312976350722,17.2092477496167
-0.000517829994987547,17.2108649559883
-0.000110214840828405,17.2125230130972
0.000208913617703951,17.2142402942065
0.000454605774355404,17.2160363237637
0.00064094417679008,17.2179368219276
0.000781433717761749,17.2199774898685
0.000889580230584315,17.2222117055984
0.000979922967609041,17.2247282300554
0.00107062284640818,17.2277029134388
0.00118777619860667,17.2314400064402
0.00132744306255709,17.2353036079497
0.00151226792030774,17.2397052279214
0.00174380268947358,17.2446550696083
0.00198577604840892,17.2495438447899
0.00223941800691974,17.2545681364378
0.00245587517490351,17.2588322864078
0.00265577574289059,17.2627702366723
0.00284948796308614,17.2665782812253
0.00304253952290699,17.2703493839927
0.00323882265626164,17.2741409733054
0.00344158592342262,17.2779953590668
0.00365383430776219,17.2819474581998
0.0038785507554136,17.2860285653992
0.00411887943164955,17.2902690082264
0.00437827389453685,17.2946996348137
0.00466068660361752,17.2993531083488
0.00497087186360311,17.3042652913297
0.00531488406227858,17.3094764391821
0.00568290216548957,17.3147772324082
0.00606407339790361,17.3199694425129
0.00646424619881387,17.3250974802832
0.00688514463015957,17.3301392411533
0.00733144057814077,17.3351051604207
0.0078078718958423,17.3399995748887
0.0083199368639088,17.3448286862272
0.0088735324716103,17.3495957981951
0.00947508459635361,17.3543021521503
0.0101316301523834,17.3589471764984
0.0108580818752502,17.363572421733
0.0116753809742844,17.3682284882415
0.0126004982866879,17.3729152203127
0.0136583787772369,17.3776533014528
0.0148858782293989,17.3824871896317
0.0163483423600207,17.3875256049358
0.018203927303744,17.3930900523172
0.0206409413515026,17.399468465904
0.0222077127455917,17.4032474088229
0.0238084818482967,17.4070263517419
0.0252045888429159,17.4104121173649
0.0263830189180156,17.4135197111916
0.0273556436742544,17.4165164754529
0.0280713062953274,17.4193746216136
0.0285206749519253,17.4221625987648
0.028691412039033,17.4250097400438
0.02852841847643,17.4281178041767
0.0277977813933716,17.4321340455873
0.0269518591899266,17.4350256920378
0.0258896448364151,17.4379173384883
0.0248144428248508,17.4404668396601
0.0237421366685369,17.4428117360587
0.0226686783876801,17.4450484632878
0.0215955038370045,17.4472252366543
0.0205260028245332,17.4493701672969
0.0194638970409044,17.4515020837445
0.0184127810533134,17.4536348295955
0.0173759983204359,17.4557792955265
0.0163566321918157,17.4579445275479
0.0153575070630629,17.4601383917833
0.0143811345273774,17.4623680027681
0.0134297650376084,17.4646400304433
0.0125054055919528,17.4669609209939
0.0116098302173607,17.4693370756637
0.0107445850234705,17.4717750169077
0.00991100382590192,17.4742815125803
0.00911021092276515,17.4768637316848
0.00833114814984841,17.4795727166902
0.00756536194978607,17.4824644833061
0.00681663948260444,17.4855603769714
0.00608883967060611,17.4888856210348
0.00538603210517955,17.4924693875919
0.00471245540997381,17.4963455415625
0.00407244348176966,17.50055361169
0.00347029529334816,17.5051402630733
0.00291006482077503,17.5101618756288
0.00239528988980818,17.515689131507
0.00192872243469096,17.5218149159286
0.00151492622790668,17.5286160151194
0.00116697528843928,17.5359353433631
0.000878030318253778,17.5438771755438
0.000700824798731365,17.5505981180729
0.000530308816815552,17.5593994994914
0.000397736730663686,17.5689653576634
0.000300089241857126,17.5789653576634
0.00023234814723362,17.5889653576634
0.000185965572814458,17.5989653576634
0.000154720719326554,17.6089653576634
0.000134076487490392,17.6189653576634
0.000120818181046718,17.6289653576634
0.000112732606242481,17.6389653576634
0.000108319846221713,17.6489653576634
0.000106567005330607,17.6589653576634
0.000106789837156675,17.6689653576634
0.000108528654728943,17.6789653576634
0.000111480728402561,17.6889653576634
0.000115455472211912,17.6989653576634
0.00012034404301608,17.7089653576634
0.000126098666057405,17.7189653576634
0.000132718965371527,17.7289653576634
0.000140243544212109,17.7389653576634
0.000148745616272434,17.7489653576634
0.000158331908905603,17.7589653576634
0.000169144430546993,17.7689653576634
0.000181365040118062,17.7789653576634
0.000195223101624278,17.7889653576634
0.000211006896804664,17.7989653576634
0.000229079970438211,17.8089653576634
0.000249904298645342,17.8189653576634
0.000274073262319158,17.8289653576634
0.000302359150586714,17.8389653576634
0.000335782802519739,17.8489653576634
0.000375717926082108,17.8589653576634
0.00042405135573583,17.8689653576634
0.000481393583672304,17.8786500315169
0.000546645557918297,17.8876023063102
0.000620711586232757,17.8958620217823
0.000704756012688698,17.9034828810258
0.000800124698392248,17.9105153038181
0.000908349029481927,17.9170060635959
0.0010311648224242,17.922998561336
0.0011705378777325,17.9285330858715
0.00132869511039389,17.933647033348
0.00150815909586141,17.9383751151298
0.00171178950473891,17.9427495648267
0.00194283130178528,17.9468003404611
0.00220497405871804,17.9505553076658
0.00250242158025347,17.9540404162621
0.00283998215529172,17.9572798878103
0.00322318191147294,17.9602964120027
0.00365841292317735,17.963111348105
0.00415313365189843,17.9657449567364
0.0047161471901709,17.9682166814105
0.0053580040578548,17.9705455042434
0.00608225669580045,17.972724765262
0.00688232660750117,17.9747346620396
0.00776878821824467,17.9766095205517
0.0087576726584344,17.9783840337994
0.00987443743830937,17.9800962679415
0.0111656026984093,17.9817978985642
0.0127883152110673,17.9836397145049
0.0152577378821506,17.9860345844072
0.0168428507166663,17.9874139980328
0.0185047540689832,17.9887934116585
0.0200176820335408,17.9900360138161
0.0213716740316363,17.9911814958467
0.0225847009067347,17.9922850373417
0.02365170454309,17.9933865979415
0.0245505783397138,17.9945260991656
0.0252381336285619,17.9957603696298
0.0256227696806367,17.9972095536916
0.0253418690813104,17.9993996936578
0.0246196303647363,18.0008960824943
0.0235667856477102,18.0023924713308
0.0223660280492474,18.0037903440583
0.0210209477581508,18.0051947300778
0.0195406579324676,18.0066538736727
0.0179337577275588,18.0082049818292
0.0168761210141932,18.0092299663505
0.0158559225943572,18.0102549508718
0.0135364245409026,18.0127916882834
0.0115738278596082,18.0152304811851
0.00993116353748691,18.0175563019642
0.00854314338883201,18.0197963285315
0.00735317856179794,18.0219858219264
0.00631051807456426,18.0241767992438
0.00536103330145686,18.0264680303622
0.00442689284077305,18.0290970971573
0.00381479979744586,18.0310925345711
0.00327577563704273,18.0330879719848
0.0028648166691067,18.0348011634514
0.00252572138436592,18.0363716784097
0.00222276240706935,18.0379224939805
0.00193568963892359,18.0395495300387
0.00164523054774548,18.0413890065111
0.00131287070190837,18.0437999351742
0.000901751242533748,18.047412626971
0.000601783231440191,18.0507109291691
0.000374685059025479,18.0537931671717
0.00017183061005046,18.0572299373432
-2.5678565160186e-05,18.0616881842322
-0.000183814830772667,18.0671975667847
-0.000250483442292691,18.0721489100294
-0.000244800817239562,18.0766270393936
-0.000174496007763029,18.080660692124
-4.24062215328351e-05,18.0842942807417
0.000151609189064284,18.0875753687166
0.000409665621531973,18.0905519473416
0.000736159750372344,18.0932761429283
0.00113854067213619,18.0958016962425
0.00162894245234161,18.0981847367496
0.00222803829572724,18.10048989659
0.00297161811204436,18.1027962509473
0.0039399951958949,18.1052484559915
0.00529852734379101,18.1080726633834
0.00699480449101951,18.1110019014561
0.00838033313604127,18.113063990255
0.0099551790480026,18.115126079054
0.0115278513698876,18.1169280209666
0.0131810378123252,18.1185836960873
0.0149348388223073,18.120113136508
0.016865164291344,18.1215730178533
0.0189978636499573,18.1229659018994
0.0213783504784573,18.124304613499
0.0240430032576587,18.125592324004
0.0270296415314085,18.1268313191569
0.0303851202810493,18.1280258699967
0.0341516344706602,18.1291766873768
0.0383868507798103,18.1302878061319
0.0431533980111456,18.1313621772608
0.0485231512778651,18.1324027112253
0.0545781702136888,18.1334121378128
0.0614211555888588,18.1343942516182
0.0691733250223121,18.1353526973607
0.0779810610772281,18.1362913074319
0.0880241740309508,18.1372142813672
0.0995269314900848,18.1381263270172
0.112772762318132,18.1390327832158
0.128132414717339,18.1399402209145
0.146099996250701,18.1408567455949
0.167362890809202,18.141793135972
0.192307452441521,18.1427427578012
0.221206048673858,18.1436980167352
0.254823904203669,18.144669517097
0.294224869719598,18.1456739245135
0.3411967006812,18.1467448360117
0.377238632451293,18.1475084620692
0.414446708648033,18.1482720881268
0.447491438908946,18.1489536209526
0.476443791063379,18.1495790094132
0.501751277053004,18.1501791185468
0.523336412683449,18.1507775636931
0.540650226934913,18.1513984849204
0.552449115259968,18.1520763393409
0.555830053365755,18.1528479508714
0.547798262261462,18.1536378252839
0.527148323251322,18.1544658502945
0.492067721952451,18.1553485233895
0.440272822011145,18.1562970838772
0.376217172429755,18.1572290247924
0.330895965626686,18.1578045719509
0.28210325869965,18.1583801191095
0.238905146627053,18.1588689509695
0.201709123137488,18.1592853533875
0.16892905059957,18.1596568118243
0.139523666485888,18.1600003267117
0.112843017901869,18.1603268617362
0.0884219894197344,18.1606448355185
0.0658574371560436,18.1609624003213
0.0446788351762928,18.1612904357664
0.0239760425156847,18.1616521499065
0.00777317343042892,18.161976968776
-0.00122313385912567,18.1621797183902
-0.0093958458597156,18.1623824680044
-0.0159663619800581,18.1625617403581
-0.0220278480762394,18.1627433799238
-0.0281289003086343,18.1629462050048
-0.0340182826161433,18.1631667118478
-0.0395357260283187,18.163402782256
-0.0445920725107293,18.1636536692359
-0.0491408507055133,18.1639195396451
-0.0531613798114041,18.1642012188321
-0.0566488132639363,18.1645000688804
-0.0596005236266392,18.1648179491624
-0.0620107445661601,18.1651558263812
-0.0638990829573692,18.1655160993858
-0.0652938620617279,18.1659039932671
-0.066209425842089,18.1663239698281
-0.0666578288116552,18.1667815810278
-0.066647223437565,18.1672838714571
-0.0661796677091119,18.1678399767882
-0.0652455061529914,18.1684634878806
-0.0638191473325515,18.1691723223204
-0.0618480028128255,18.1699935503496
-0.0592220234794035,18.1709740721311
-0.0556582902449802,18.1722207447384
-0.0515099408834057,18.1736292219323
-0.0474848324124026,18.1749922725452
-0.0436359562379855,18.176315065168
-0.0399898486843108,18.1775998849186
-0.0365604735654069,18.1788475270491
-0.0333545262229935,18.1800580371777
-0.0303737694455568,18.1812311039008
-0.0276162686277718,18.1823662658233
-0.0250771920060922,18.1834630187248
-0.0227494270544392,18.1845208667113
-0.0206241089911295,18.1855393401214
-0.018691094425866,18.1865179923993
-0.0169393887923675,18.1874563826792
-0.0153361522175718,18.1883665510367
-0.0137901767893354,18.1892998567945
-0.0123063999736175,18.1902575665861
-0.0108888045609983,18.1912416764204
-0.00954119689474963,18.1922545192636
-0.00826715093394428,18.193298851084
-0.00706995634535988,18.1943779586015
-0.00595256403843012,18.1954958033531
-0.00491752907704477,18.1966572185238
-0.00396695045147792,18.1978681848397
-0.00310240651253993,18.1991362291657
-0.00232488364071538,18.2004710216673
-0.00163469346235019,18.2018853110516
-0.00103136936149767,18.2033964731152
-0.000517880387134288,18.205013673266
-0.000110247436153025,18.2066717207721
0.000208895862819802,18.2083889890311
0.000454600113541479,18.2101850015495
0.000640948011848691,18.2120854770437
0.000781444508730103,18.2141261142509
0.000889595356796465,18.2163602866709
0.000979939444647528,18.2188767455417
0.00107063648336413,18.2218513140211
0.00118778750274799,18.2255884169587
0.00132744771469299,18.2294519522213
0.00151226282311241,18.2338534515093
0.00174379290567798,18.2388032697121
0.00198576448278056,18.2436920430971
0.002239404172257,18.2487163000278
0.00245586457747896,18.2529805148466
0.00265576661971261,18.256918492724
0.00284947939535937,18.2607265474198
0.003042530930961,18.2644976505189
0.00323881359736307,18.2682892334302
0.00344157601730796,18.2721436074803
0.00365382320226484,18.276095690302
0.00387853810298698,18.2801767768758
0.00411886487102574,18.2844171947799
0.00437825703233697,18.2888477919715
0.00466066698705273,18.2935012312739
0.00497084893409525,18.2984133746239
0.00531485707828003,18.3036244767287
0.00568287512726066,18.3089252878466
0.00606404489358916,18.3141174975839
0.00646421657363517,18.3192455433272
0.00688511343068307,18.3242873102224
0.00733140744878552,18.3292532354702
0.00780783637375358,18.3341476551071
0.00831989846879548,18.3389767711179
0.00887349069526418,18.3437438874691
0.00947503890044774,18.3484502457349
0.0101315799580688,18.3530952744732
0.0108580252631482,18.3577205168178
0.0116753169292111,18.3623765814177
0.0126004251932077,18.3670633104366
0.0136582944323416,18.3718013864394
0.0148857791156312,18.3766352644924
0.0163482215528242,18.3816736569071
0.018203764313965,18.387238037474
0.0206407773855338,18.3936165033984
0.0222075623719175,18.397395495025
0.0238083521448023,18.4011744866516
0.0252044797937207,18.4045602866956
0.0263829275500779,18.4076678964507
0.0273555702439489,18.4106646643208
0.0280712561174895,18.4135228213936
0.0285206481137365,18.4163107994037
0.0286914109503685,18.4191579286461
0.0285284514843363,18.4222659552169
0.0277978965261586,18.4262820300195
0.0269519879019572,18.4291737506762
0.025889769393889,18.4320654713329
0.024814565294868,18.4346150077182
0.023742259049637,18.4369599208074
0.0226688008650664,18.439196657039
0.0215956260944868,18.4413734353671
0.0205261244464067,18.4435183684151
0.0194640176100436,18.4456502854578
0.0184129001770329,18.4477830305191
0.0173761156373786,18.4499274945356
0.0163567473551352,18.4520927236829
0.0153576197728166,18.4542865841891
0.0143812445188251,18.456516190654
0.0134298720741766,18.4587882130531
0.0125055094644342,18.4611090975823
0.0116099307422148,18.4634852454781
0.0107446820421764,18.4659231791701
0.0099110972042494,18.4684296664692
0.00911030054911906,18.4710118763206
0.00833123647073386,18.473720841543
0.00756544852921715,18.4766125861693
0.00681672389527643,18.4797084551654
0.00608892146524949,18.4830336714676
0.00538611080844938,18.4866174066816
0.00471253053290663,18.4904935251407
0.00407251453061616,18.4947015548715
0.0034703617885866,18.4992881600414
0.0029101263245328,18.5043097192566
0.00239534604155683,18.5098369126451
0.00192877297076559,18.515962622346
0.00151496896757973,18.5227636686811
0.00116701103574601,18.5300829336999
0.000878059840889964,18.5380246888929
0.000700813698904666,18.544747021646
0.000530318012261254,18.5535473809802
0.000397733200623278,18.5631140621714
0.000300086810307125,18.5731140621714
0.000232346434536575,18.5831140621714
0.000185964323276411,18.5931140621714
0.000154719779976092,18.6031140621714
0.000134075767464367,18.6131140621714
0.000120817622305943,18.6231140621714
0.000112732168742159,18.6331140621714
0.000108319501574472,18.6431140621714
0.000106566733833904,18.6531140621714
0.000106789625755482,18.6631140621714
0.000108528495303006,18.6731140621714
0.000111480616383078,18.6831140621714
0.000115455405579068,18.6931140621714
0.000120344021639699,18.7031140621714
0.00012609869129687,18.7131140621714
0.000132719039856781,18.7231140621714
0.000140243671753438,18.7331140621714
0.000148745801871404,18.7431140621714
0.000158332158856726,18.7531140621714
0.000169144752631563,18.7631140621714
0.000181365443901804,18.7731140621714
0.000195223598882,18.7831140621714
0.000211007502110457,18.7931140621714
0.000229080701981693,18.8031140621714
0.000249905179367568,18.8131140621714
0.000274074321513613,18.8231140621714
0.000302360426194771,18.8331140621714
0.000335784344490317,18.8431140621714
0.000375719801407734,18.8531140621714
0.00042405365621064,18.8631140621714
0.000481396265906127,18.8727987124097
0.000546648665746473,18.8817509642005
0.000620715174866692,18.890010658172
0.000704760145790489,18.8976314973854
0.000800129448378277,18.90466390155
0.000908354478385577,18.9111546440342
0.00103117106310385,18.9171471257481
0.00117054501531068,18.9226816354608
0.00132870326398032,18.9277955692559
0.00150816840044719,18.9325236384381
0.00171180011360061,18.9368980765617
0.00194284338922222,18.9409488415975
0.00220498782352097,18.9447037991308
0.00250243724991789,18.9481888989406
0.00283999999138779,18.9514283625504
0.00322320221672614,18.9544448796235
0.00365843605073104,18.9572598094047
0.00415316001819564,18.9598934125039
0.00471617729337394,18.9623651324415
0.00535803850514656,18.964693951363
0.00608229480940621,18.9668732056241
0.00688236887363932,18.968883097313
0.00776883538832929,18.9707579524926
0.00875772588745081,18.9725324643123
0.00987449870018003,18.9742446994768
0.0111656759985806,18.9759463351904
0.0127884163883262,18.9777881709177
0.0152578998087128,18.9801830840325
0.0168429984611526,18.9815624798207
0.0185048801722436,18.9829418756089
0.0200177878090296,18.9841844661128
0.0213717634642461,18.9853299434291
0.0225847746658337,18.9864334844121
0.0236517614466988,18.9875350480183
0.0245506156079417,18.9886745564678
0.0252381458502735,18.9899088412653
0.0256227435776886,18.9913580582438
0.0253417435541245,18.9935482814923
0.0246194593377466,18.9950446481705
0.0235665931646311,18.9965410148487
0.0223658165943547,18.9979388849632
0.0210207187846505,18.9993432765811
0.0195404132210689,19.000802430761
0.0179334985832571,19.0023535543679
0.0168757535355603,19.0033786486726
0.0158554657368274,19.0044037429774
0.0135360659843629,19.0069404294558
0.0115735495564253,19.0093791748017
0.00993094497002116,19.0117049577299
0.00854296734776771,19.0139449580912
0.00735303008674094,19.0161344408794
0.00631038219153165,19.0183254329037
0.0053608887382224,19.0206167346579
0.00442676589179804,19.0232458168576
0.00381475116743803,19.0252410362295
0.00327578853631666,19.0272362556015
0.0028648448477769,19.0289493757394
0.00252575105057736,19.0305198723147
0.00222278832649055,19.0320706952469
0.00193570775939922,19.0336977653958
0.00164523482430471,19.0355373252142
0.00131284156298327,19.0379485174604
0.000901726875041716,19.0415612354346
0.000601775462988463,19.0448594108285
0.000374679904935335,19.0479416573656
0.000171821515886392,19.05137856848
-2.56945175486901e-05,19.0558371732656
-0.000183819210973472,19.0613466636845
-0.00025047144050425,19.0662978625591
-0.000244774528716127,19.0707758837471
-0.000174455900217129,19.0748094346031
-4.23521701049836e-05,19.0784429325165
0.000151677703756024,19.0817239416145
0.000409749505350455,19.0847004538918
0.000736260338190416,19.0874245952039
0.00113866018014119,19.0899501075275
0.00162908463054117,19.092333122011
0.00222820908798292,19.0946382717853
0.00297182974846048,19.0969446419837
0.0039402775703532,19.0993969143325
0.00529888007644702,19.1022211509698
0.00699523261922862,19.1051504123859
0.00838074107190877,19.1072124034751
0.0099555582249606,19.1092743945643
0.0115282255233701,19.111076280921
0.0131814193118405,19.1127319172969
0.0149352535653162,19.1142613426061
0.0168656130857602,19.1157212056467
0.0189983623095199,19.1171140788351
0.0213789034401378,19.118452778084
0.0240436229956269,19.1197404789059
0.0270303340789907,19.1209794634502
0.0303858955610642,19.1221740042549
0.0341525061594386,19.1233248130006
0.0383878291754722,19.1244359229868
0.0431544977001716,19.1255102860064
0.0485243893359277,19.1265508125726
0.0545795696983253,19.1275602329865
0.0614227378715553,19.1285423409305
0.0691751186770643,19.1295007815953
0.0779831009921416,19.1304393874454
0.0880265032595046,19.1313623580991
0.0995296041139088,19.1322744015358
0.112775847677041,19.133180856778
0.128136003245368,19.1340882950069
0.146104210226892,19.1350048221084
0.167367903569617,19.1359412174985
0.192313250066626,19.1368908391455
0.22121277382428,19.1378460997081
0.254831744636453,19.1388176043107
0.294234101671105,19.1398220204921
0.341207854129423,19.1408929513376
0.377248838691202,19.1416565457725
0.41445557066524,19.1424201402073
0.447499190136525,19.1431016532752
0.476450646796364,19.1437270317497
0.501757278740079,19.1443271372534
0.523341486376935,19.1449255842864
0.540654173476249,19.1455465140226
0.552451497739954,19.146224388073
0.5558299425341,19.1469960009424
0.547795445408159,19.1477858815383
0.527142450114313,19.1486139170593
0.492058306636513,19.1494966040399
0.440259304296507,19.1504451804589
0.376202101588854,19.1513771022893
0.33088237392344,19.1519526140643
0.282091874070438,19.1525281258392
0.238895575957654,19.1530169339067
0.201700790186304,19.153433322397
0.168921622046954,19.1538047723256
0.139516950911056,19.1541482818999
0.112836888728533,19.1544748138448
0.0884163475413301,19.1547927864586
0.0658521848828794,19.1551103522227
0.0446738332261248,19.1554383920478
0.0239709255176237,19.1558001200746
0.00777129744576833,19.1561248832239
-0.0012242648992302,19.1563276190642
-0.00939634764513359,19.1565303549045
-0.0159667743159324,19.1567096258277
-0.0220282751870013,19.1568912669119
-0.0281293222052681,19.157094093232
-0.034018685290206,19.1573146011076
-0.039536101502126,19.1575506724556
-0.0445924164331648,19.1578015603567
-0.0491411609036639,19.1580674317194
-0.0531616554355605,19.1583491119308
-0.0566490542840321,19.158647963108
-0.0596007298926538,19.1589658446562
-0.0620109015819895,19.1593037208356
-0.0638992105153865,19.1596639952721
-0.0652939611437281,19.1600518908468
-0.0662094971843568,19.1604718693936
-0.0666578729755074,19.1609294829472
-0.0666472406957915,19.1614317762034
-0.0661796578895113,19.1619878849841
-0.06524546817983,19.1626114004751
-0.0638190789694982,19.1633202405985
-0.0618478995803888,19.164141476362
-0.0592218755632682,19.1651220097675
-0.0556580679490712,19.1663687047664
-0.0515097232794146,19.167777178831
-0.0474846233614728,19.1691402269941
-0.0436357578619104,19.1704630173892
-0.0399896620901947,19.1717478350056
-0.0365602993230893,19.1729954750302
-0.0333543645643776,19.174205983049
-0.0303736203611954,19.175379047643
-0.0276161319229285,19.1765142074112
-0.0250770673405963,19.1776109581317
-0.0227493139750024,19.1786688039113
-0.0206240069597478,19.1796872750897
-0.0186910028452419,19.1806659251119
-0.0169393070287675,19.1816043131113
-0.0153360735433869,19.1825144827585
-0.0137901015042001,19.1834477898649
-0.0123063283079517,19.1844055011114
-0.010888736736499,19.1853896125242
-0.00954113312109803,19.1864024570913
-0.00826709140589265,19.1874467908081
-0.00706990123964768,19.1885259004285
-0.00595251351055101,19.1896437475336
-0.00491748325785275,19.1908051653651
-0.00396690944356067,19.1920161347252
-0.00310237038626566,19.1932841825824
-0.00232485242976562,19.1946189792479
-0.00163466715833523,19.1960332736422
-0.00103134790688924,19.197544441891
-0.000517865291662301,19.1991616438958
-0.000110237645519324,19.2008196942639
0.000208901229723153,19.2025369663526
0.000454601875226857,19.2043329839492
0.000640946942662026,19.2062334661997
0.000781441365654105,19.2082741125665
0.000889590920855275,19.2105082978941
0.000979934605256635,19.2130247763115
0.00107063248946485,19.215999379035
0.00118778420308815,19.2197364790101
0.00132744639671051,19.2236000340158
0.00151226441000256,19.2280015692699
0.00174379588881651,19.2329513944697
0.00198576799692723,19.2378401683905
0.00223940836854469,19.2428644357791
0.0024558677990261,19.2471286310605
0.00265576939817715,19.2510666006187
0.00284948200761142,19.2548746522586
0.00304253355155491,19.2586457552574
0.00323881635957257,19.262437340097
0.00344157903561563,19.266291717675
0.00365382658274048,19.2702438054103
0.00387854195036876,19.2743248981975
0.00411886929424644,19.2785653236096
0.00437826215006339,19.2829959296565
0.00466067293591267,19.2876493792714
0.00497085588265607,19.29256153456
0.00531486525031511,19.2977726504461
0.00568288331718686,19.3030734561612
0.0060640535272815,19.3082656660009
0.00646422554732569,19.313393709333
0.00688512288137791,19.3184354744048
0.00733141748401064,19.3234013978432
0.00780784713341808,19.3282958159155
0.00831991009811777,19.3331249305116
0.00887350334794559,19.3378920455352
0.00947505273934178,19.3425984024952
0.0101315951583293,19.3472434299037
0.0108580424058211,19.3518686731228
0.0116753363215674,19.3565247383001
0.0126004473242528,19.3612114682426
0.0136583199689465,19.3659495458003
0.0148858091225629,19.3707834269183
0.0163482581261768,19.3758218262615
0.0182038136557523,19.3813862270529
0.0206408270225488,19.3877646771342
0.0222076078943977,19.3915436540166
0.0238083914102299,19.3953226308991
0.025204512806828,19.3987084205235
0.0263829552108625,19.4018160254568
0.0273555924748232,19.4048127922345
0.0280712713095921,19.407670946004
0.0285206562406976,19.4104589237539
0.0286914112827328,19.4133060566397
0.0285284414954884,19.4164140945803
0.0277978616787652,19.4204302198127
0.0269519489440553,19.4233219180065
0.0258897316936627,19.4262136162002
0.0248145282265113,19.4287631419262
0.0237422220081522,19.4311080499631
0.0226687637943867,19.4333447834696
0.0215955890903234,19.4355215602958
0.0205260876345949,19.4376664926156
0.01946398111685,19.439798409478
0.0184128641213258,19.4419311547782
0.0173760801285451,19.4440756193741
0.0163567124981364,19.4462408493912
0.0153575856584463,19.4484347110259
0.0143812112272337,19.4506643188587
0.0134298396769883,19.4529363428546
0.0125054780249886,19.4552572292061
0.0116099003160823,19.4576333791519
0.0107446526773554,19.4600713151293
0.00991106894137988,19.4625778049624
0.00911027342200589,19.465160017614
0.00833120973870211,19.4678689888243
0.0075654223242357,19.4707607401062
0.00681669834607956,19.4738566165691
0.00608889670843121,19.477181841274
0.00538608698728553,19.4807655859747
0.00471250779540132,19.4846417151823
0.00407249302622252,19.4888497571401
0.00347034166245135,19.4934363762977
0.00291010770919644,19.4984579516577
0.00239532904614938,19.5039851639604
0.00192875767509832,19.5101108962774
0.00151495603174388,19.5169119586104
0.00116700021638366,19.5242312427657
0.00087805090564192,19.5321730212608
0.000700817047578104,19.5388949336871
0.000530315225882168,19.5476956020819
0.000397734263196232,19.557262034451
0.000300087542015656,19.567262034451
0.000232346949808867,19.577262034451
0.000185964699163394,19.587262034451
0.000154720062545865,19.597262034451
0.000134075984064449,19.607262034451
0.000120817790401398,19.617262034451
0.000112732300386307,19.627262034451
0.000108319605315523,19.637262034451
0.000106566815607551,19.647262034451
0.000106789689496918,19.657262034451
0.000108528543462223,19.667262034451
0.000111480650341444,19.677262034451
0.000115455425951347,19.687262034451
0.000120344028472763,19.697262034451
0.000126098684190352,19.707262034451
0.000132719018029243,19.717262034451
0.000140243634069846,19.727262034451
0.000148745746840236,19.737262034451
0.000158332084599883,19.747262034451
0.000169144656826688,19.757262034451
0.000181365323693555,19.767262034451
0.000195223450755364,19.777262034451
0.000211007321714624,19.787262034451
0.000229080483886437,19.797262034451
0.000249904916724192,19.807262034451
0.000274074005577063,19.817262034451
0.00030236004563846,19.827262034451
0.000335783884403299,19.837262034451
0.000375719241791514,19.847262034451
0.000424052969663567,19.857262034451
0.000481395465357795,19.8669466917349
0.000546647738105684,19.8758989503888
0.000620714103646762,19.8841586507754
0.000704758911981657,19.8917794959653
0.000800128030356865,19.898811905688
0.000908352851656374,19.9053026533324
0.00103116919993939,19.9112951398284
0.00117054288432151,19.9168296539642
0.00132870082960051,19.9219435918419
0.00150816562236869,19.9266716647838
0.00171179694605545,19.931046106361
0.0019428397801652,19.9350968745594
0.00220498371359361,19.9388518349788
0.00250243257119029,19.9423369374104
0.00283999466575552,19.9455764033891
0.00322319615379502,19.9485929225866
0.00365842914505171,19.9514078542538
0.00415315214541597,19.9540414590037
0.00471616830473911,19.9565131803544
0.00535802821934534,19.9588420004427
0.00608228342881644,19.9610212567205
0.00688235625305616,19.9630311499278
0.00776882130334381,19.9649060061014
0.00875770999311948,19.9666805183465
0.00987448040696392,19.9683927532044
0.0111656541101655,19.9700943873963
0.0127883861742582,19.9719362172128
0.0152578514508739,19.9743311174194
0.0168429543401165,19.9757105185347
0.0185048425159595,19.97708991965
0.0200177562250388,19.9783325136341
0.0213717367623224,19.9794779923579
0.0225847526460254,19.9805815334933
0.023651744462015,19.9816830962011
0.024550604488656,19.982822602492
0.0252381422125701,19.9840568830079
0.0256227513875607,19.985506090154
0.0253417810615098,19.987696288526
0.0246195104352905,19.9891926618215
0.0235666506709905,19.990689035117
0.0223658797672281,19.9920869060114
0.0210207871897934,19.9934912959568
0.0195404863264602,19.9949504469747
0.0179335759989735,19.9965015659664
0.0168758633146969,19.9975266274742
0.0158556022166279,19.9985516889821
0.0144957009917474,20
