ecg,time
0.0117341392684898,15.0011350006909
0.0128086848078065,15.0028023364943
0.0140508249085181,15.0044148545923
0.0154839807815745,15.0059717872448
0.0171305497871264,15.0074715737674
0.0190134762488955,15.0089136483485
0.021157515439616,15.0102987497025
0.0235902575936857,15.0116286861215
0.0263432258573545,15.0129060844479
0.029452850042051,15.0141340794418
0.0329611884723518,15.0153159884704
0.0369170885469282,15.0164552279372
0.0413778781668991,15.0175553367912
0.0464107047361595,15.0186198360189
0.0520947281938864,15.0196522623669
0.0585244400074263,15.0206562854367
0.0658131901740351,15.0216356930687
0.0740987604135954,15.0225945205588
0.0835507175288862,15.0235371553868
0.0943813499748612,15.0244685313082
0.106861706430711,15.0253943834995
0.121346819575502,15.0263216710851
0.138317187946123,15.027259272169
0.158453549287981,15.0282192979239
0.182037202849365,15.0291910965664
0.209394344030175,15.0301701833901
0.241278719910249,15.031168263738
0.278739530260553,15.0322031882141
0.323509215019982,15.0333092622204
0.359035634369712,15.0341230513575
0.395851848256763,15.0349368404945
0.428543048810489,15.0356599120932
0.457135170758412,15.0363190531235
0.482088005968822,15.036946701904
0.503361831077867,15.0375668327462
0.520480610472776,15.0382022972545
0.532382110857958,15.0388825095757
0.536734907098912,15.0396601401675
0.530241802907218,15.0404618150304
0.51166769135527,15.041293606711
0.479417244345324,15.0421710265642
0.431500496250159,15.043104781183
0.368525722841759,15.0440657734589
0.324859059793837,15.0446421927283
0.277692005862806,15.0452186119977
0.235682178010769,15.0457098400412
0.199331452127495,15.0461294632831
0.167196170650815,15.0465043202841
0.13831126749104,15.046851159008
0.112067601298239,15.0471808487405
0.0880262049145477,15.0475017411418
0.0658060029085591,15.0478218671144
0.0449662630566963,15.0481517565364
0.024681109220438,15.0485130828523
0.00782584491732441,15.0488579279545
-0.00117192810312048,15.0490656071081
-0.00933857819427037,15.0492732862617
-0.0158763243134828,15.049456287806
-0.0218772554572479,15.0496408615607
-0.0279111868720561,15.0498468119012
-0.0337313605928976,15.0500706137254
-0.0391802743786192,15.0503101283182
-0.0441705982541127,15.0505646077415
-0.0486569918909641,15.0508342282163
-0.0526194135774069,15.0511198301688
-0.0560503214942583,15.0514227945673
-0.0590887537567233,15.0517634817725
-0.0614090250748942,15.0521057750267
-0.0632244179310318,15.0524723181388
-0.0645514439530091,15.0528670256826
-0.065403927833481,15.0532944307599
-0.0657934072511863,15.0537601925849
-0.0657274332552464,15.0542714908919
-0.0652072946808486,15.0548377058192
-0.0642221838018138,15.0554727783376
-0.062745492937383,15.0561949516606
-0.0607230326667641,15.0570320192956
-0.0580413200034299,15.0580324992983
-0.0544042611445162,15.059308972076
-0.0503111754355495,15.0607077379359
-0.0463500622528672,15.0620612525057
-0.0425701109244805,15.0633741535998
-0.0389954872613792,15.0646486762303
-0.0356386622796985,15.0658856202549
-0.0325052050765944,15.0670850607338
-0.0295959515349012,15.0682467260236
-0.0269081883639518,15.0693701968143
-0.0244364398491708,15.0704550085795
-0.0221730813831122,15.0715006996043
-0.0201088651592494,15.0725068265661
-0.0182333881307274,15.0734729595003
-0.0165355104142221,15.074398662671
-0.0149488217208429,15.0753161777649
-0.0134208877650454,15.0762571625925
-0.0119562681384159,15.0772231501824
-0.0105588931313275,15.0782162373345
-0.009232496620353,15.0792388832015
-0.00798056190184943,15.0802940010297
-0.00680626865327795,15.0813850761655
-0.00571243720082173,15.0825163248512
-0.00470146983648641,15.0836929128527
-0.0037752883972738,15.0849212647
-0.00293526641058197,15.0862095153319
-0.00218215251367915,15.0875681956979
-0.00151597877497278,15.0890113242119
-0.000935941114339354,15.0905582521518
-0.000453293762281686,15.092186699652
-7.04826881484546e-05,15.0938617175691
0.000229009608324322,15.0956016032147
0.000459960584244553,15.0974275635381
0.000636315616969037,15.0993679354537
0.000771644525837134,15.1014628907877
0.000879852073592151,15.1037742626447
0.00097659087727489,15.1064095957735
0.0010833596935994,15.10960065029
0.00121755018976176,15.1133376120701
0.00138283096027733,15.1173277103894
0.0015698368927448,15.1213101388224
0.00176702131856152,15.125179883944
0.00197178463997699,15.1290204254698
0.00218255475682545,15.132888355892
0.00239894203188392,15.13682584005
0.00262164389845695,15.1408681353826
0.00285224150652805,15.1450473936208
0.00309299686558216,15.1493949267604
0.00334670125889071,15.1539428325287
0.00361662957709922,15.1587254618721
0.00390665765638217,15.1637807876662
0.00422161766309118,15.1691517166859
0.00456223346817372,15.1747929048991
0.0049040321211777,15.1802433393682
0.00525728012572037,15.1856304975653
0.00562169436423518,15.1909021695925
0.00600195178970063,15.1960819656879
0.0064017938301712,15.2011758448219
0.00682557356960495,15.2061944802382
0.00727768833526256,15.2111442754862
0.00776282590035741,15.2160296167023
0.00828602538216887,15.2208525917904
0.00885281304990731,15.2256135522878
0.00946930419583549,15.2303113395751
0.0101423110268572,15.2349436748432
0.0108875753521534,15.2395554965284
0.0117259107386951,15.2441930400574
0.0126747856648475,15.2488566891222
0.0137598401118809,15.253567269995
0.0150194393305273,15.2583710253288
0.0165227448408241,15.2633822283951
0.0184424186097132,15.268946390085
0.0209214065023648,15.2752228548295
0.0224985249780513,15.2789130174768
0.0241054548049499,15.2826031801241
0.0255068283163557,15.2859179437788
0.0266914186346855,15.2889728696578
0.0276688989439311,15.2919280630297
0.028382170691787,15.2947347152653
0.0288285245883545,15.2974797652275
0.0289943448448413,15.3002923989785
0.0288208674876821,15.3033795465378
0.0280474929684718,15.3074508989615
0.0272006762824693,15.3102508334408
0.0261475882207235,15.3130507679201
0.0250785873151211,15.3155372445588
0.0240101321103715,15.3178330025406
0.0229395283027863,15.3200263362394
0.0218686145658261,15.3221624268335
0.0208008869162006,15.3242679645828
0.0197400840689969,15.326360955007
0.0186897856479508,15.3284546925592
0.017653303990089,15.3305596699685
0.0166336642938327,15.3326846222482
0.0156336089210872,15.3348371614203
0.0146556104042963,15.3370241897307
0.0137018861827856,15.3392521878813
0.0127744079640818,15.3415274418956
0.0118749174333652,15.343856210545
0.0110049332974854,15.3462448876756
0.010165760178489,15.3487001498413
0.00935850611783816,15.3512290762457
0.00856623753493521,15.3539018766522
0.00778644831663078,15.3567554950534
0.00702287861977488,15.3598115558625
0.0062794444845293,15.3630953313863
0.00556030349563732,15.3666360981348
0.00486981245083975,15.3704679341232
0.00421247050264274,15.3746306527272
0.00359280157534259,15.3791711938335
0.00301514329019757,15.384146093957
0.00248336714475595,15.3896258568492
0.0020005471518784,15.3957030677544
0.0015750675384771,15.4023937627491
0.00121661804636331,15.4095837533473
0.000927815344821659,15.4173734913124
0.00070583837197659,15.4257997473732
0.000541778084931913,15.4343529190914
0.000406851350182915,15.4440304522866
0.000308768241617603,15.4540304522866
0.000240808036068931,15.4640304522866
0.000194185230482698,15.4740304522866
0.000162489114635206,15.4840304522866
0.000141144178728234,15.4940304522866
0.000126978192165868,15.5040304522866
0.00011783215897978,15.5140304522866
0.000112244419761089,15.5240304522866
0.000109223602175218,15.5340304522866
0.000108097252871304,15.5440304522866
0.000108413328858013,15.5540304522866
0.000109875153290146,15.5640304522866
0.000112297325023255,15.5740304522866
0.000115575437325875,15.5840304522865
0.00011966550552177,15.5940304522865
0.000124570516307842,15.6040304522865
0.00013033232372695,15.6140304522865
0.000137027676690114,15.6240304522865
0.000144767628731272,15.6340304522865
0.0001536999931265,15.6440304522865
0.000164014889904026,15.6540304522865
0.000175953826601578,15.6640304522865
0.00018982322526907,15.6740304522865
0.000206013946229534,15.6840304522865
0.000225029305340627,15.6940304522865
0.000247525568743468,15.7040304522865
0.000274371346043153,15.7140304522865
0.000306736439631631,15.7240304522865
0.000346227975782265,15.7340304522865
0.000393744793106052,15.7437774594535
0.0004483122855252,15.7528022175494
0.000510764897582017,15.7611400900645
0.000582166597944953,15.7688424995701
0.000663742497936092,15.7759580717564
0.000756885355175187,15.7825321258951
0.000863172834314547,15.7886068672672
0.000984389927871465,15.7942215898838
0.00112255525227989,15.799412864546
0.0012799511461505,15.8042147164607
0.00145915823857615,15.8086587980131
0.00166309625885608,15.8127745576174
0.00189507226457286,15.8165894021439
0.00215883850688656,15.8201288551324
0.00245866362498251,15.8234167159244
0.00279942092467708,15.8264752224707
0.0031867010749157,15.8293252194086
0.00362695860566901,15.8319863388846
0.00412770806874264,15.8344772050902
0.00469779536117561,15.8368156769834
0.00534778677908381,15.839019157251
0.00607814651179731,15.841073197301
0.0068838010134462,15.8429661282611
0.00777454358669002,15.8447291907045
0.00876483123399662,15.8463931641404
0.00987680676297259,15.8479904596926
0.0111486305349096,15.8495618556376
0.0127143020430971,15.8512295143942
0.0149159710049019,15.8532400912448
0.0166388201302798,15.854636941339
0.0184862394105454,15.8560337914333
0.0202127891817944,15.8572963446512
0.0217433972741461,15.8584239972517
0.023119844690494,15.8594880214599
0.0243499220779776,15.8605330736278
0.025419933963258,15.8615961571407
0.0262978116932365,15.8627218077812
0.0269205578764084,15.863987153565
0.0271224644768672,15.865615272456
0.0266712353389518,15.8672781918468
0.0256699207077497,15.8689411112376
0.0245104793876341,15.870338466172
0.0231965104120323,15.8716946742563
0.0217263653245858,15.873088682913
0.0201080561843651,15.8745619561525
0.0183464136312132,15.8761543492512
0.0164637963730428,15.8779195249995
0.0149822658064445,15.8794143811675
0.0122700466796444,15.8824814680927
0.0100711332575796,15.8854027299545
0.00836651626328028,15.8880575574062
0.00699913573598208,15.8905361673805
0.00581125663634249,15.8930395236039
0.00476953430144461,15.8956045984792
0.00385378414487608,15.8982549904075
0.00304807767293206,15.9010136861258
0.00238010864766906,15.9037233026923
0.00184556699186111,15.906271933485
0.00140608807712362,15.9087084043789
0.0010349339801942,15.9110812005658
0.000716591320044411,15.9134123437675
0.000444323019076864,15.9156797424177
0.000213744817767282,15.9178435108814
1.78269176993841e-05,15.9198933862006
-0.000151567289876166,15.921849518518
-0.000301600285959754,15.9237452687095
-0.000438389197040133,15.9256236967554
-0.000568221941690516,15.9275525132239
-0.000701588274332495,15.9296942837633
-0.000812664960520944,15.9316099183514
-0.000917162055577758,15.9335255529396
-0.000998339947866347,15.9350905971049
-0.00106735005576071,15.936473622881
-0.00113193840606937,15.937810961543
-0.00119639020368912,15.939185600389
-0.00126512434263053,15.9406938473662
-0.00134668883093765,15.94253677074
-0.00149200246870289,15.945947525655
-0.0016314675517103,15.9493497915246
-0.00175135911005629,15.9523557506549
-0.00187573656556266,15.9555388362845
-0.00203554785283666,15.9597063917256
-0.00226959835058797,15.9659419604287
-0.00246347277864699,15.9714263460337
-0.00260839906124963,15.9762298383426
-0.00269524273600462,15.9804552770524
-0.00271665264679083,15.9842575869918
-0.002663493869847,15.9877409341799
-0.00252810968666719,15.9909114319961
-0.00230775337737446,15.9937753486257
-0.00200008596938878,15.9963820646081
-0.00159727559037634,15.9988077699053
-0.00107892289359597,16.0011503200791
-0.00039153859774785,16.0035682017484
0.000548820475155328,16.0062244887605
0.00140035332926319,16.0082901168638
0.0023295727518388,16.0103557449672
0.00326174502444686,16.0123277126241
0.0043436335105602,16.0145532483377
0.00537096686783507,16.0166139832214
0.00643977477389895,16.0186747181051
0.00748311126529775,16.020558982985
0.00852559705148265,16.0222823229138
0.00965538276163625,16.0239584371658
0.0108899005407573,16.0255748723528
0.0122823298624755,16.0271644135436
0.0138410285349393,16.028702336183
0.0156040216060993,16.0301985252701
0.0175879374280301,16.0316426047585
0.0198117896360249,16.0330298062085
0.0223077740005738,16.0343642808431
0.0251043666489578,16.0356465058958
0.0282346411824328,16.0368783107028
0.0317334902300083,16.0380611237618
0.0356493615249644,16.0391993907879
0.0400356922803114,16.0402965562021
0.0449543705216747,16.0413559734376
0.050477933410763,16.0423810228661
0.056691546184461,16.043375066331
0.0636968070828381,16.0443416135946
0.0716148534116239,16.045284223502
0.0805918427889613,16.046206619681
0.0908061099034162,16.0471127818713
0.102477977018569,16.0480070575943
0.115884185158297,16.048894353414
0.131378328672533,16.0497803520364
0.149422823070812,16.0506719057815
0.170641918227592,16.0515777340628
0.19579138422564,16.0525054339049
0.224864671839094,16.0534349027118
0.258580229554939,16.054374893966
0.297910320579334,16.0553389927573
0.344404200742633,16.0563536138993
0.38214672571568,16.0571131201961
0.421474813937208,16.057872626493
0.456321076969144,16.0585429148496
0.486786826055673,16.0591512948162
0.513541953967946,16.059731666484
0.536626020663131,16.060308423862
0.555584323248298,16.0609055214512
0.569304893520895,16.0615566467928
0.575047841293699,16.0623090804532
0.569292648106812,16.0630795240588
0.550906936025786,16.0638894080632
0.518063424816822,16.0647576665093
0.471280077858899,16.0656486810042
0.409656044244517,16.0665745169907
0.360117159512179,16.0672132763105
0.305792213806998,16.0678520356302
0.258331821813722,16.068380217847
0.218305310996101,16.0688171871776
0.183489123733307,16.0691996539453
0.152492181464722,16.0695489850587
0.124504937696592,16.0698779651488
0.0989862516412816,16.0701957020339
0.0755031447657667,16.0705102751813
0.0536072328535672,16.070831292656
0.0325832152381984,16.0711760905172
0.00986647323349498,16.0716100427808
0.000548453713729243,16.0718152297287
-0.00789811279729594,16.0720204166765
-0.0144959963046042,16.0721968644668
-0.0206104835104429,16.0723764093857
-0.0267660661915624,16.0725769123807
-0.0327097069625222,16.0727949204619
-0.0382800991123694,16.0730283561019
-0.0433872699934125,16.0732764874386
-0.0479842087649119,16.0735394829186
-0.0520499393486531,16.0738181622083
-0.0555795109095017,16.0741138774595
-0.058577854089475,16.0744284751874
-0.0610483501742592,16.0747643146987
-0.0629941264682787,16.0751237305642
-0.0644265879971864,16.0755078845083
-0.0653775112856017,16.0759238792702
-0.0658594833696774,16.0763772839895
-0.0658810478077145,16.0768751344305
-0.0654446267319253,16.0774265670196
-0.0645410549832365,16.0780451070593
-0.0631449128195648,16.078748772371
-0.0612034619958225,16.0795647851507
-0.0586055211906027,16.0805405117943
-0.0550622842957752,16.0817848967926
-0.0509112029790642,16.0831980494712
-0.046878279776381,16.0845662158371
-0.0430179533494278,16.0858946286771
-0.0393578096929853,16.08718548715
-0.0359125541909159,16.0884395198612
-0.0326895014899691,16.0896567178369
-0.0296909630255573,16.0908367234253
-0.0269154902142771,16.0919790356615
-0.0243586706397632,16.0930831168056
-0.0220137395055592,16.094148443472
-0.0198721053337236,16.0951745248692
-0.0179238239952009,16.0961609002102
-0.0161580293286398,16.0971071219652
-0.0145633197570388,16.0980127286231
-0.0130251749615529,16.098941263531
-0.0115487558830826,16.0998938399806
-0.0101380951936469,16.1008723934077
-0.00879706553147847,16.1018791812516
-0.00752932356776649,16.1029168656849
-0.00633826002353681,16.1039886154401
-0.00522694758695469,16.1050982414335
-0.00419808695620472,16.1062503812017
-0.00325395092851093,16.1074507560117
-0.00239632605677976,16.1087065399058
-0.00162645072233175,16.1100269082439
-0.000944947279971062,16.1114238884757
-0.000351657697680803,16.1129137515416
0.000154494803144989,16.1145194481088
0.000553044203987904,16.116167710967
0.000859783773887451,16.1178716835903
0.00108974371755061,16.119650085538
0.00125681968109249,16.1215271737292
0.00137413591843312,16.1235362065471
0.00145449225211857,16.1257260826978
0.00151107531578492,16.1281761044016
0.00155902685578,16.1310366120001
0.00162115318574753,16.1346967841563
0.00170356032562717,16.1384992664302
0.00182263059308402,16.1427689334699
0.00197006374915024,16.1472127245946
0.00212592150221703,16.151490068884
0.00229013612308115,16.1558141747735
0.00247168142839699,16.1605295563972
0.00266227055685179,16.1654407157993
0.00285394817304507,16.1703117913558
0.00304352700786616,16.1750441489677
0.00321173531621167,16.1791472408504
0.0033737991090503,16.183004221836
0.00353633334319283,16.1867660767484
0.00370323687702803,16.1905107527371
0.00387752035325154,16.1942895001802
0.00406192610792959,16.1981416328845
0.00425920254827344,16.2021003976053
0.00447229902522655,16.2061965137853
0.00470451801747444,16.2104602740868
0.00495966951857394,16.2149229302981
0.0052422942451471,16.2196179757769
0.0055580446078697,16.2245825858119
0.00591431277835655,16.2298587843502
0.00628679853143492,16.2350272701477
0.00668186117253104,16.2401472044545
0.00709991466121783,16.2451818805442
0.00754519460064278,16.2501383150948
0.00802224464268888,16.2550189130571
0.00853660021818402,16.2598294930192
0.00909434564384428,16.2645736938698
0.00970214103090882,16.269252985232
0.0103672514853525,16.2738667314365
0.0111087811619931,16.2784787304678
0.0119449232654262,16.2831143010003
0.0128944054342867,16.2877786025118
0.0139836934076297,16.2924934513474
0.0152529752585354,16.2973089332686
0.0167761871756891,16.3023500762455
0.0187466492257631,16.3080095042235
0.0206833449789429,16.3129351676055
0.0223023109076694,16.3167643733906
0.0239651266004625,16.3205935791756
0.0253971482984682,16.3239655337653
0.0266061657877922,16.327044916398
0.0276085101353163,16.3300055867395
0.0283548526794914,16.332828042875
0.0288345579608601,16.3355737370489
0.0290374362955891,16.3383676321121
0.0289135418716811,16.341397803857
0.0282611219054564,16.3452209769369
0.0274338994040311,16.3481321121602
0.0263732803200598,16.3510432473836
0.0253000412896727,16.3535820057768
0.024230663680293,16.355901933847
0.0231596070243487,16.358107790387
0.0220879104059275,16.3602502551656
0.0210189065422156,16.362358222902
0.0199563274586265,16.3644507859766
0.0189037896186253,16.3665418379567
0.0178646539909093,16.3686422178512
0.0168419974218019,16.3707608557668
0.0158386131906552,16.3729054598451
0.0148570231238541,16.3750829559603
0.0138994918971304,16.3772997902863
0.012968036664977,16.3795621618599
0.0120644407598922,16.3818761967692
0.0111902631252462,16.3842481028832
0.0103468461175254,16.386684314798
0.00953532880374265,16.3891916190626
0.00874082778453452,16.3918319148905
0.00795814863032186,16.3946493512785
0.00719102180172783,16.3976648910898
0.00644332179733527,16.4009031586025
0.00571916908339759,16.404392681242
0.005022894461321,16.4081666599325
0.00435898288709612,16.4122639147285
0.00373196965647083,16.4167302202875
0.00314625349112131,16.4216205750561
0.00260582341398005,16.4270033287909
0.00211392981771784,16.4329678327906
0.00167656820030542,16.4395741231398
0.00130780033690739,16.4466631577797
0.00100303792917625,16.4543302462551
0.000823171568036743,16.4605423657112
0.000635189029152429,16.4692102124852
0.000491208804237592,16.4784708500881
0.000382516276255107,16.4884708500881
0.00030907320863619,16.4984708500881
0.000260894480440941,16.5084708500881
0.000230754449252704,16.5184708500881
0.000213467271711714,16.5284708500881
0.000205430707438342,16.5384708500881
0.000204226225905615,16.5484708500881
0.000208279127145003,16.5584708500881
0.00021660394544596,16.5684708500881
0.000228633562803206,16.5784708500881
0.000244113249573465,16.5884708500881
0.000263039762742596,16.5984708500881
0.00028563204936474,16.6084708500881
0.000312327087080326,16.6184708500881
0.000343799780796824,16.6284708500881
0.000381010239479467,16.6384708500881
0.000425286695161477,16.6484708500881
0.000478459626213976,16.6584708500881
0.000543074917279887,16.6684708500881
0.000621759464811265,16.6783584976728
0.000711774126937311,16.6874757557233
0.000814318024824018,16.6958618742163
0.000931035517609509,16.7035783497922
0.00106385185145779,16.710682626457
0.00121496913709825,16.7172276060884
0.00138689448876073,16.7232621338004
0.00158248362882364,16.7288314355795
0.00180499758259685,16.7339774547942
0.00205817042832135,16.7387391627454
0.00234629489561045,16.7431528955908
0.00267433517568607,16.7472527167555
0.00304807726551924,16.7510707731573
0.00347432853864209,16.7546376896369
0.00396121663448581,16.7579831052189
0.00451863511513141,16.7611364240189
0.0051589614463364,16.7641279079613
0.00589528250148192,16.7669798580019
0.00672738657158598,16.7696703998852
0.00768434876446499,16.7722762079184
0.00882917352606911,16.7749207653865
0.0103581709745992,16.7779273927596
0.0115285213363984,16.7799715507271
0.0127783155373294,16.7820157086946
0.013884546478644,16.7837794959527
0.0148501225257601,16.7853468644642
0.0157017709409192,16.7868169207658
0.0164412507213679,16.7882470782214
0.0170563601721825,16.7896823713941
0.0175224855311022,16.7911725676552
0.0177946593473266,16.7927944142988
0.0177706991777243,16.7947280157113
0.0172888248875753,16.796925007641
0.0163822855790136,16.7991219995707
0.015407237038345,16.8008956017611
0.0143702714880196,16.8025325247406
0.0132627095479514,16.8041484865631
0.0120911014550115,16.8057910403196
0.0111877552975579,16.8070676337881
0.0103346531049857,16.8083442272566
0.00919162485469061,16.8101916902134
0.00807425822003615,16.8121851054834
0.00688341976586771,16.814572997599
0.00575867790292095,16.8171598863392
0.00475989032218228,16.8198249585095
0.00387422707023514,16.8225875445084
0.00308945722292518,16.8254719585159
0.00239525127845525,16.8285046457763
0.00178282595749545,16.8317155596145
0.00124488479072518,16.8351398816056
0.000776019947107983,16.838820245522
0.000373871568863894,16.8428098480173
4.18030401170266e-05,16.8471770748267
-0.000184594593035882,16.8515102843341
-0.000297709858925177,16.855410215938
-0.000315287989692762,16.8589711154868
-0.000243550329448955,16.8622444519472
-8.23476777538049e-05,16.8652935543999
0.000175236112039608,16.8681911972894
0.000547132246930162,16.8710354585325
0.00107683715401664,16.8739891016506
0.00182356013648971,16.8771725041379
0.00282763111382411,16.8805991791751
0.00404055708944809,16.8840637675877
0.00498021608809843,16.8864127440549
0.00603577934053963,16.888761720522
0.00709318591261457,16.8908338007868
0.00818798952683859,16.8927130026108
0.00937411291742137,16.8944855167115
0.0106783561360059,16.8961723449352
0.0121340280111768,16.8977945765641
0.0137653447298695,16.8993562034862
0.0155949147734045,16.9008582139868
0.0176486407526907,16.9023033061394
0.0199514177798387,16.9036921974614
0.0225315226025842,16.9050267875506
0.025422005352911,16.9063099891712
0.0286582887847629,16.9075440565244
0.0322842588529507,16.9087326693191
0.0363493020863838,16.9098790530435
0.0409106047124688,16.9109864498912
0.0460367723875724,16.912058530026
0.0518081276009413,16.9130988557155
0.0583203482713412,16.9141111071303
0.0656886110644414,16.9150991574071
0.0740537877351435,16.9160672282232
0.0835898355555183,16.9170199308829
0.0945159422719788,16.9179625223748
0.107114368147296,16.918901210872
0.121760344178534,16.9198437487856
0.138971381326028,16.9208003077774
0.159502184374941,16.9217853363759
0.18329129633647,16.9227731052862
0.210928322895539,16.9237723190007
0.243230681225741,16.9247969622417
0.281382985397152,16.9258692793346
0.32625341389462,16.9270049170266
0.368268666510258,16.9279971655287
0.403023335266785,16.9288004746401
0.432986213962583,16.9295079539523
0.45917999647106,16.930167029282
0.481789507620086,16.9308052216118
0.500552209736996,16.9314446979177
0.514759701873177,16.9321093027951
0.522962659485973,16.9328330534182
0.52221246854536,16.9336385570338
0.510230814037767,16.9344612292396
0.485749155599103,16.9353176823189
0.447079841064468,16.9362203115022
0.392313029313299,16.9371778214913
0.347328632766485,16.9378329356759
0.297146425708307,16.9384880498606
0.252498585572909,16.9390327400728
0.21440007912843,16.9394844944956
0.18102633370128,16.9398798952132
0.151179380238801,16.9402405464517
0.12414896962999,16.9405794364139
0.0994573095663642,16.9409057203416
0.0767255360576958,16.9412272557399
0.0555769495360881,16.9415527866434
0.0354705314921177,16.941896348352
0.0149331020495318,16.9422983000042
0.000970919026318453,16.942615587619
-0.00636416454184665,16.9428025749776
-0.0130680843048198,16.9429895623362
-0.0189467272250699,16.9431693572053
-0.0249457640778474,16.9433721156236
-0.0307901688866462,16.9435937998352
-0.0362981006459237,16.9438317385175
-0.0413678921438372,16.944084852851
-0.0459457234348237,16.9443531044811
-0.0500063811526956,16.9446371790328
-0.0535361557890228,16.9449383297995
-0.0565692136853453,16.9452631663045
-0.0590088994475758,16.945601628791
-0.0609440282249847,16.9459636990667
-0.0623895897290373,16.9463529185033
-0.0633595679838803,16.9467735450493
-0.0638661630787967,16.947230872667
-0.0639181862267318,16.9477315748082
-0.0635190957373065,16.9482842310798
-0.0626622879069924,16.9489013599942
-0.061326977719144,16.9495994844203
-0.0594701614488691,16.9504026828703
-0.0570042729634685,16.9513507613704
-0.0537232454337224,16.952525558993
-0.0496427796868088,16.9539365339995
-0.0456796793786625,16.9552982582695
-0.041890117420224,16.9566177538264
-0.0383022527907475,16.9578980025456
-0.0349304570952841,16.959140201847
-0.0317813258397755,16.9603446446025
-0.0288563163908328,16.9615111802124
-0.0261531249929777,16.9626394572229
-0.0236665586527081,16.9637290494004
-0.0213891889042525,16.9647795170818
-0.019311898333258,16.9657904305992
-0.0174243608717217,16.9667613700812
-0.0157154687629258,16.9676919094718
-0.0141312841425868,16.9686068396076
-0.0126055570977513,16.9695451063608
-0.0111429931411641,16.9705081463114
-0.00974755457889805,16.9714980202419
-0.00842301614906523,16.9725171416055
-0.00717291095039357,16.9735683661501
-0.00600047866437458,16.9746551060961
-0.00490861134872887,16.9757814833955
-0.00389979674451581,16.9769525401239
-0.00297605858965583,16.9781745350598
-0.00213889273671077,16.9794553750875
-0.00138919664643168,16.9808052668639
-0.000727187536867215,16.9822377479353
-0.000152299780549351,16.9837714165264
0.000327315441901572,16.9853957060575
0.00070482460456734,16.9870644468393
0.000996943878769078,16.9887959390423
0.00121844927542644,16.9906107527742
0.00138320570618507,16.9925362239751
0.00150458107950258,16.9946107987059
0.00159606691791228,16.9968930048912
0.00167244423423605,16.9994828957626
0.00175294052754179,17.0025890582045
0.0018588450719688,17.0063225952237
0.00198802324634877,17.0101061794985
0.00214147675485787,17.0139263110067
0.00231654405043336,17.0178218185778
0.00250928302594897,17.0218264377886
0.00271642020215297,17.0259714505403
0.00293614751697808,17.0302876635012
0.00316828489610062,17.0348069755429
0.00341417392180164,17.039563803445
0.00367653613150985,17.044596491542
0.00395947150483101,17.0499486037907
0.00426876520859691,17.0556703739635
0.00458394059919306,17.061310816736
0.0049060213216304,17.0668377436123
0.00523743044071163,17.0722436603565
0.00558166790371218,17.0775398916208
0.00594246194796815,17.0827402064569
0.0063236262112412,17.0878570441654
0.00672900664618285,17.0928994990026
0.00716258892171404,17.0978738024853
0.00762862592804312,17.1027839311829
0.00813175487362282,17.1076319788677
0.00867710501180763,17.1124184024085
0.00927040033688605,17.1171422539224
0.00991805673336234,17.1218014492266
0.0106284762037255,17.1264005433546
0.0114274287585548,17.1310314675855
0.0123292508869987,17.1356832262779
0.0133567831589134,17.1403726711401
0.0145422427963124,17.1451329708248
0.015939447633224,17.1500444779335
0.0176638006557489,17.1553249455722
0.020134130398935,17.1618668855782
0.0217904999412383,17.1658360873367
0.02351239357942,17.1698052890952
0.0250113026555749,17.1732915809288
0.0262753314681408,17.1764253630909
0.027331718457921,17.179402865104
0.0281483541682514,17.1822638255531
0.0286972935313102,17.1850192513217
0.0289745574831895,17.1877886482827
0.0289439488548487,17.1907340337128
0.0284723439147878,17.1942388461981
0.0276828074098545,17.1973790122796
0.0266034524858993,17.2005191783612
0.025522320353703,17.2031546004394
0.0244527338419276,17.205517011159
0.0233823487814066,17.2077461228931
0.022310563352404,17.2099026942675
0.021240407304166,17.2120193483993
0.0201755915704226,17.2141169992228
0.0191197759271714,17.2162105975986
0.018076380024805,17.2183116653853
0.0170485394129813,17.2204296153374
0.016039102467005,17.222572524841
0.0150506431054343,17.2247476225691
0.0140854728584099,17.2269616280537
0.0131456540381741,17.2292209999633
0.0122330155074212,17.231532123471
0.0113491564364276,17.2339014957215
0.0104954632822535,17.2363358635217
0.00967311797252095,17.2388423783223
0.00887677072403533,17.2414502976316
0.00809136679910521,17.2442319225272
0.0073206983290098,17.247207255542
0.00656857617834955,17.2504002468781
0.00583905957193393,17.2538386251517
0.00513642645766057,17.2575546269016
0.00446512486368586,17.2615858792516
0.00382968055024574,17.2659766107596
0.00323453352773535,17.2707795886309
0.00268377629588848,17.276059690361
0.00218083027002469,17.2819004586448
0.00172820709384838,17.2884147880654
0.00141470539205018,17.2939954435165
0.00116699078304418,17.2995760989675
0.000928100726008042,17.3066821546536
0.000724590837282743,17.3147347281828
0.000557107831792594,17.3236863699567
0.000423848721235589,17.3336863699567
0.0003320868387587,17.3436863699567
0.000269760439784173,17.3536863699567
0.00022807757212864,17.3636863699567
0.00020073871153926,17.3736863699567
0.000183362164953055,17.3836863699567
0.000172965807722183,17.3936863699567
0.000167538571281112,17.4036863699567
0.00016572721302857,17.4136863699567
0.000166626125371962,17.4236863699568
0.000169641305888521,17.4336863699568
0.000174402050978141,17.4436863699568
0.000180702739796281,17.4536863699568
0.000188464645195014,17.4636863699568
0.000197712262176304,17.4736863699568
0.000208561045706596,17.4836863699568
0.000221214860182653,17.4936863699568
0.000235972585267617,17.5036863699568
0.000253244541640413,17.5136863699568
0.000273580915051477,17.5236863699568
0.000297716466507798,17.5336863699568
0.000326639058466505,17.5436863699568
0.000361694903531501,17.5536863699568
0.000404752875961126,17.5636863699568
0.000455409364695341,17.573169291401
0.000513599973805805,17.5819368923761
0.00058029071534632,17.5900342713944
0.000656647265353,17.5975124270092
0.000744000694632142,17.6044191771587
0.000843858745444157,17.6107990465568
0.0009579263415504,17.6166934803553
0.00108813074847977,17.622141049925
0.00123665074142836,17.627177642739
0.00140594965400261,17.6318366425732
0.00159881418233118,17.6361491040636
0.00181839975961576,17.6401439223849
0.00206828532119302,17.6438479978135
0.00235253935509435,17.6472863987661
0.0026758022373118,17.6504825278846
0.00304339011006494,17.6534582937192
0.00346142914661596,17.6562342929715
0.0039370341572972,17.6588300133356
0.00447855307242573,17.6612640714155
0.00509591412572844,17.6635545093834
0.00579898888582391,17.6657131732331
0.00657508237943095,17.667696942038
0.00743294269429512,17.6695382375948
0.00838577088454623,17.6712693314285
0.00945342832305318,17.6729231963447
0.0106691897980328,17.6745393715948
0.0121262801778061,17.676208152105
0.0140911986884978,17.6781419118451
0.0158515913953588,17.6796705962374
0.0177642446175024,17.6811992806297
0.0195103912032812,17.6825354985556
0.0210382257836347,17.6837046122148
0.0224081318310857,17.6847964271175
0.0236340327516429,17.685860758376
0.024705639542006,17.6869353127989
0.02559502415741,17.6880622123897
0.0262480265049236,17.689308841068
0.0265363191479062,17.6908446091132
0.0261882761237818,17.6926057456822
0.0252243128507921,17.6943668822513
0.024092611487052,17.6958032124815
0.0228152208275927,17.6971725034131
0.0213867580156453,17.6985688158134
0.019815023519394,17.700035976087
0.0181062178457908,17.7016125425012
0.0167464334296238,17.7028919946655
0.0154589645115828,17.7041714468298
0.0128744275097349,17.7070103073741
0.0105510685438396,17.7099822886899
0.00874279854532361,17.7126939953231
0.00730163862314411,17.7152110450237
0.00607089357365514,17.7177083775577
0.00499222609613065,17.7202603511212
0.00404346798422375,17.722892274396
0.00320782520536327,17.7256271350906
0.00247142436617043,17.7284888664336
0.00184453397535288,17.7313912075762
0.00133520416232918,17.7341862325243
0.00090214417446802,17.7369812038742
0.000521094120451496,17.7398635688264
0.000192346307200591,17.7427649372834
-7.50113796425567e-05,17.7454824899395
-0.000291117016229589,17.7479636160097
-0.000471754387842824,17.7502636595717
-0.000628010026214828,17.7524380411144
-0.000767017707954233,17.7545271645361
-0.000894036433993986,17.7565686762428
-0.00101387879801825,17.7586119729482
-0.00113260904994007,17.7607458871797
-0.00126453634181326,17.7632369658018
-0.00135894485650557,17.7650893790409
-0.00145088632192324,17.7669417922799
-0.00152962911125297,17.7685604223866
-0.00160040830580524,17.7700361547127
-0.00166916405170511,17.7714847666852
-0.00174025156481524,17.7729943893087
-0.00181932338064218,17.7746833746136
-0.00191998939929842,17.7768416914117
-0.00209679312014377,17.7806333860138
-0.0022585597601073,17.7840870421271
-0.00240267357729483,17.7871490586096
-0.00256084910243706,17.7905049845284
-0.00276691810416346,17.7949166248293
-0.00300901057836311,17.8003627801174
-0.00319836545774723,17.8053885891745
-0.00331098100308911,17.8098875819488
-0.00333760639430773,17.8139505680067
-0.00327483397645549,17.8176066363238
-0.00311238539129541,17.8211015123072
-0.00285027109463875,17.824303990418
-0.0024971012959982,17.8271937870204
-0.00205277062995131,17.8298515494164
-0.0015079803447456,17.8323611177217
-0.000835472707602882,17.8348299192692
3.98752115574939e-05,17.8374507455614
0.00120087982149788,17.8403553432099
0.00222628572915693,17.8426258785103
0.00332417756849664,17.8448964138107
0.00451298492353708,17.8472511842165
0.00574556397373692,17.849604369474
0.00704279526516301,17.8519575547316
0.00818698305983347,17.8538865139722
0.00934891436526846,17.8556754212708
0.0105634211521273,17.8573540834312
0.0119051509483833,17.8589951444773
0.0133871845060873,17.8605803033322
0.0150504101198546,17.8621236206202
0.016907272502308,17.863610508222
0.0189925545251606,17.8650474537214
0.0213302656947974,17.866431532704
0.0239417739206046,17.8677595220244
0.0268649940466975,17.8690365790583
0.0301365028974532,17.8702649279848
0.0337986910975009,17.8714473879535
0.0378989714726316,17.8725866045227
0.0424971831330954,17.8736866158318
0.0476614003822118,17.8747509178431
0.053471889497983,17.8757830673815
0.0600239610172724,17.876786701548
0.0674321001682754,17.8777656297317
0.0758356091106345,17.8787239385233
0.0854056297148659,17.8796660413352
0.0963562406548883,17.8805968907271
0.108960571804607,17.881522234188
0.123576520410457,17.8824490598467
0.140688318818354,17.883386271808
0.160982023276464,17.8843460153593
0.18473457290675,17.8853174212688
0.212276287356874,17.8862961630248
0.244366031884082,17.8872939985291
0.282062229593654,17.8883289309761
0.327122397360709,17.8894358100813
0.36260031704302,17.8902445699064
0.399324874603466,17.8910533297316
0.431940614429774,17.8917728628488
0.460474828447472,17.8924297070591
0.485372368451323,17.8930558955847
0.506582548109297,17.8936752783728
0.523616818362856,17.8943107976719
0.53538965927371,17.8949922924451
0.53950276135022,17.8957739466893
0.532672065466988,17.8965757172436
0.513704927881776,17.8974083359868
0.480986433694323,17.8982872265575
0.432510272771104,17.8992229878166
0.383119184586194,17.8999873606825
0.32586990013689,17.9007517335485
0.286132818390718,17.9012380424684
0.244672493396424,17.9017243513883
0.207564712452426,17.902152349335
0.174760117840565,17.9025333313879
0.145336548561922,17.902884039464
0.118647066039445,17.9032159640925
0.0942318115411707,17.9035377212253
0.0717058644518424,17.9038572446739
0.0506503146797781,17.9041843153088
0.0303572526377769,17.9045372739151
0.00806041597422693,17.9049904717015
-0.00039424221711469,17.9051887260742
-0.00809545486228835,17.9053869804469
-0.0145038303321509,17.9055681702944
-0.0205309753633756,17.9057555555839
-0.0265551470535372,17.9059637878146
-0.0323410927643973,17.9061894999526
-0.0377420189099963,17.9064307622662
-0.0426770139123754,17.9066869624968
-0.0471045859614841,17.9069583697134
-0.0510070554801012,17.9072458956105
-0.0543771730977265,17.9075509834927
-0.0573079928202361,17.9078883231297
-0.0595794378299303,17.9082328453962
-0.0613484457279569,17.9086020356122
-0.0626310261790234,17.9089998203764
-0.063440940918956,17.9094308376084
-0.0637895238258562,17.9099008867365
-0.0636839507973774,17.9104173406409
-0.0631247095170791,17.9109900022793
-0.0620998683804046,17.911633156566
-0.0605810252661395,17.9123658075445
-0.0585103586127179,17.9132172289597
-0.0557650306376075,17.9142395961424
-0.0520096999782316,17.9155601544164
-0.0479537882941161,17.9169533680017
-0.0440369386931614,17.9183022469249
-0.0403046693896591,17.9196109083385
-0.0367793128481097,17.9208813605682
-0.033472286494059,17.9221142877185
-0.0303884490169773,17.9233097069772
-0.0275281066721787,17.9244673194374
-0.0248881321677918,17.925586694653
-0.0224627229058414,17.9266673651062
-0.0202440000909541,17.9277088696031
-0.0182225252308644,17.9287107660051
-0.0163877605623773,17.9296726243244
-0.0147284802892194,17.9305940062628
-0.0131681131581421,17.9315139494007
-0.0116675277623707,17.9324574807493
-0.0102311774169076,17.9334262217835
-0.00886300067388645,17.9344223036736
-0.00756673958825593,17.9354482288315
-0.00634588767298256,17.9365069647059
-0.00520363852240377,17.9376020654281
-0.00414283240634885,17.9387378358694
-0.00316590084425253,17.939919558115
-0.00227480880753628,17.9411538128016
-0.00147099359979405,17.9424489501888
-0.000755298443779836,17.9438158085096
-0.000127896876385268,17.9452688640732
0.000411799829411081,17.9468281901049
0.000850769200590981,17.948460687857
0.00119145059440076,17.9501417084378
0.00144978089664952,17.9518895847664
0.00164008051016542,17.9537261364551
0.00177577442922692,17.955680671736
0.00186980769980317,17.9577950521106
0.00193534313831732,17.9601343934188
0.00198679766740703,17.9628138668547
0.00204332968432162,17.9660900625555
0.00212145524377811,17.9698342007774
0.00223163338320785,17.973874706989
0.00239205753268265,17.978609073347
0.00258141198838124,17.9834798812889
0.00277664714809982,17.98815538769
0.00295334443756568,17.9922409996576
0.00312312955882048,17.9960929086787
0.00329162534659663,17.9998552629646
0.00346250908586651,18.0036038335244
0.00363884072750999,18.0073889451374
0.00382348822963633,18.0112494617278
0.00401930814841207,18.0152184161994
0.00422929145602278,18.0193264733358
0.00445668639337019,18.0236039553866
0.00470513646845578,18.0280822180313
0.00497889198026707,18.0327949600607
0.00528317228130813,18.0377796525012
0.00562476432974502,18.0430787227016
0.00598374692571024,18.0483220090569
0.00636157083373476,18.0534971699389
0.00676007647308975,18.0585889980568
0.00718278534275697,18.0635984235006
0.00763410713673818,18.068530548204
0.00811914615125818,18.0733915711584
0.00864353692422094,18.0781862180422
0.00921339605175758,18.0829167550844
0.0098353849314233,18.0875832214914
0.0105168176602105,18.0921840620296
0.0112812122961259,18.0968054587357
0.0121438915451663,18.1014479432456
0.0131255725166217,18.106123069025
0.014255023015183,18.1108568461673
0.0155778121553478,18.1157112531164
0.0171832565590209,18.1208457700009
0.0193407169875702,18.1268235669375
0.0211323994433197,18.1312615136799
0.0230362415760578,18.1356994604222
0.0246321957378982,18.1393854255575
0.0259610905003257,18.1426023542673
0.0270772881027136,18.1456104037146
0.0279733130861972,18.1485246538803
0.0285989004227149,18.1512985921493
0.0289562531975969,18.1540490659424
0.0290213395490614,18.1569186460603
0.028705740608286,18.1601812468136
0.0277053229923838,18.1644767343159
0.0268168036472845,18.1671022184118
0.0257646688381296,18.1697277025076
0.0246970395104291,18.1721209110977
0.0236270775229876,18.17436844698
0.0225553608317386,18.1765345175157
0.0214847336503467,18.1786550419412
0.0204188672176189,18.1807525990894
0.01936145696713,18.1828430218846
0.0183159833289508,18.1849383177858
0.0172856476207917,18.1870481616254
0.0162733659300143,18.1891807431275
0.0152817770867971,18.1913432991653
0.0143132554242413,18.193542470542
0.0133699256305802,18.1957845540021
0.0124536712338852,18.1980757075592
0.011566147072971,18.2004221102776
0.0107087907183595,18.2028301029753
0.00988282779198755,18.2053063372727
0.00908428263801884,18.2078745939098
0.0082958984021911,18.2106119716741
0.0075214380787245,18.2135377011684
0.00676466295875928,18.216674883556
0.00602958708785069,18.220050239953
0.0053204545739448,18.2236947930961
0.00464169172364792,18.2276447293442
0.00399782764362537,18.2319425187415
0.00339335558890461,18.2366386054859
0.00283247561837668,18.2417946909826
0.00231880342215406,18.247489382508
0.00185508010789275,18.2538282172082
0.00145666334993457,18.2606937568861
0.00112283034899228,18.2680922557151
0.000856174275527786,18.2762305166225
0.000684393789755303,18.2835524956715
0.000522421499404234,18.2929133632093
0.000405655354907609,18.3024712067385
0.000321165434473192,18.3124712067385
0.000264596793201266,18.3224712067385
0.000227987789913285,18.3324712067385
0.000205553561621536,18.3424712067385
0.000193207921223565,18.3524712067385
0.000188163990423059,18.3624712067385
0.000188575485000908,18.3724712067385
0.000193251992472022,18.3824712067385
0.000201459564405496,18.3924712067385
0.000212792769118254,18.4024712067385
0.000227097238332264,18.4124712067385
0.000244426166063387,18.4224712067385
0.000265021305233164,18.4324712067385
0.000289314704947347,18.4424712067385
0.000317951475682128,18.4524712067385
0.000351837435631613,18.4624712067385
0.000392219986254309,18.4724712067385
0.000440817587037422,18.4824712067385
0.000500025222750707,18.4924712067385
0.000571256928227496,18.5022229526405
0.000652732364283989,18.5112146026333
0.000745603855885992,18.5194887510651
0.000851391488289646,18.5271048665362
0.000971860817296952,18.5341183852339
0.00110902506376047,18.5405803871649
0.00126517112812541,18.5465380243177
0.00144289682590985,18.5520349037197
0.0016451578832626,18.557111401038
0.00187532248895841,18.5618049531465
0.00213723994771414,18.5661503476148
0.00243532531606282,18.5701800107776
0.00277467014812924,18.5739242830657
0.00316118414304312,18.5774117133689
0.00360179409253398,18.5806694080673
0.0041047231760284,18.5837234586651
0.00467990427145846,18.5865994968589
0.00533962996820242,18.5893235117568
0.00608596220145496,18.5918804055884
0.00692254214364267,18.5942769733521
0.00787134875376092,18.5965692668808
0.0089734890410563,18.5988318636547
0.0103283248318889,18.601208122484
0.0122796665565358,18.6041323784219
0.0135175858717499,18.6058041676789
0.0148103350875614,18.6074759569359
0.0159799562804125,18.608979638132
0.0170172825524184,18.61036141653
0.0179342039871174,18.6116857217759
0.0187248151841733,18.6129982227408
0.0193696269514813,18.6143424730214
0.0198323234082243,18.6157766714947
0.0200400106284649,18.617413145291
0.0197535129058677,18.619662452387
0.0190998740342456,18.6214292349458
0.0181394863803227,18.6231960175047
0.0170820140271532,18.6247797606704
0.0159305941763986,18.6263214641514
0.0146913018386476,18.6278822203663
0.0133733217290934,18.6294991250001
0.0120261066152049,18.6312068845925
0.0102925872643937,18.6336324938997
0.00871362066974052,18.6361398473023
0.00733131354320787,18.6386532430562
0.00611530063270596,18.6411998819004
0.00504090450165122,18.6438068272235
0.00432398130073554,18.6457946862415
0.00368530656210264,18.6477825452595
0.00316173916800718,18.6496029963621
0.00270613098111306,18.6513599706299
0.00228389597571765,18.6531635269776
0.00186747886802812,18.6551439513569
0.00141516270631103,18.6575770722828
0.00087258367066863,18.6609982693196
0.000420066306745368,18.6644156211919
7.03413642976382e-05,18.6675312196194
-0.000249444886696055,18.6708568163004
-0.000573901255547716,18.6748416890843
-0.000912382465157123,18.6799010992101
-0.00119250826246537,18.6851980491019
-0.00137830048807064,18.6899081465122
-0.00148558666836304,18.6941906977247
-0.00151487723846571,18.69807162798
-0.00146370643976486,18.7016028519901
-0.00132752563236688,18.7048395777933
-0.00109970073364168,18.707843029247
-0.000769409896394741,18.7106845543282
-0.000316474198062999,18.713454577164
0.000303077173224804,18.7162947057422
0.00117159889526044,18.7193912478927
0.0023174385005339,18.7226974293193
0.00380709897576246,18.7263171720147
0.00489916736109871,18.7286602641674
0.00610832096028809,18.7310033563201
0.00732224109182667,18.733106303112
0.00852985810899963,18.734964737149
0.00982255662433457,18.7367205823931
0.0112247960188955,18.7383883501463
0.0127712107739262,18.7399888852964
0.0144918338517661,18.7415310263508
0.0164098651922373,18.7430146831307
0.0185514532416229,18.7444415716279
0.0209465381273967,18.7458146380756
0.0236197047121684,18.7471327419683
0.0266089039253146,18.7484005947364
0.0299530577546343,18.7496209657163
0.0336963235060411,18.7507967069623
0.0378878282029231,18.7519303814936
0.0425898085629303,18.7530260130708
0.0478731781308384,18.7540870918811
0.0538214862322944,18.7551171500307
0.0605344002711499,18.7561198669594
0.0681312377823249,18.7570990294482
0.07675922523114,18.7580589310976
0.08659986939562,18.7590042017149
0.097882103836098,18.759940126226
0.110901401533638,18.7608729770324
0.126050064482987,18.761810530053
0.143870734743694,18.7627630680876
0.16509765599056,18.763742712247
0.189667443557773,18.7647245188727
0.218215518040607,18.7657184618979
0.251589674829826,18.7667386605596
0.291033517208765,18.7678081558006
0.337356866734819,18.768941691774
0.378789358585704,18.7698927309557
0.413093082337234,18.7706681856368
0.442745899709232,18.7713569537273
0.468665843584796,18.7720028337916
0.490978231403434,18.7726321718982
0.509362098862678,18.7732672057229
0.523014188451627,18.7739332190573
0.530262912404651,18.774668931884
0.527929362375448,18.7754705221321
0.514098388497778,18.7762935594662
0.487401061665365,18.7771545481219
0.446040860686726,18.77806555372
0.38801992039554,18.7790349922579
0.343089075366784,18.7796671046305
0.293470148327186,18.7802992170032
0.249352093745612,18.780828254984
0.211584834225721,18.7812705018017
0.178432136581905,18.781659681758
0.148751297600048,18.7820159926416
0.121854416823037,18.7823518119894
0.0972710623203542,18.7826760517981
0.0746202765291674,18.7829965780832
0.0535095740529311,18.7833225125155
0.0333379630502125,18.7836694350199
0.0122353544723622,18.7840881525042
0.00147537448122854,18.7843339626351
-0.00589462126655217,18.7845198771265
-0.0126315439768699,18.784705791618
-0.0185267513444917,18.7848841299055
-0.0245509969070814,18.7850854443762
-0.030425726881754,18.7853056820429
-0.0359662951929568,18.7855421489236
-0.0410692833385371,18.7857937468979
-0.0456798125351262,18.7860604209938
-0.0497720463288562,18.7863428415779
-0.0533347578599952,18.7866422469449
-0.0565111360489274,18.7869784983143
-0.0589607130454508,18.7873160536008
-0.0609032160953674,18.7876770335955
-0.0623551216989224,18.7880651475109
-0.0633305421252669,18.7884846654339
-0.0638417683988398,18.7889408974532
-0.0638976635903607,18.7894405427195
-0.0635016755886487,18.7899922226531
-0.0626470991545764,18.790608518455
-0.0613128455031202,18.7913060790515
-0.0594551956696837,18.792109231826
-0.056984795142063,18.7930583716685
-0.053689608848068,18.7942373125357
-0.0496030037407428,18.7956493423159
-0.0456327921012518,18.7970125318717
-0.0418353279448732,18.7983337876315
-0.0382389590793474,18.7996160124589
-0.034858239203935,18.8008603532178
-0.0316999438263022,18.8020670678089
-0.0287657027091887,18.8032359799019
-0.0260533698827113,18.8043667183196
-0.0235578900572186,18.805458841448
-0.0212719487494866,18.8065118977587
-0.0191865171705818,18.8075254488655
-0.0172913324612615,18.8084990692198
-0.0155753257889623,18.8094323301796
-0.0139918747786999,18.8103456532086
-0.0124665994627061,18.8112822421199
-0.0110042881966721,18.8122434756521
-0.00960891900734611,18.8132313925233
-0.00828428770053428,18.8142483786454
-0.00703395364185633,18.8152972555043
-0.005861188493565,18.8163813921057
-0.00476892265857295,18.8175048550334
-0.00375968945000993,18.8186726141046
-0.00283556660973446,18.8198908317059
-0.00199811419593257,18.8211672826723
-0.00124830680445656,18.822511986741
-0.000586456140027573,18.8239382057275
-1.21160388659844e-05,18.8254641088073
0.000468324190922447,18.8270859356373
0.000845364192571096,18.8287509745084
0.00113584513171592,18.8304775394475
0.00135454710816021,18.832285834388
0.00151529644199233,18.8342026257182
0.00163135664293293,18.8362653864794
0.00171600253071727,18.8385308043296
0.00178356280006803,18.8410948448905
0.00185213280901394,18.8441539481499
0.00194416253370215,18.8478872888394
0.00205904680966916,18.8516625047213
0.00219690143293565,18.8554309747312
0.00235504275939709,18.8592402195081
0.00252963557070976,18.8631285516104
0.00271752055976266,18.8671290757287
0.00291691084246571,18.8712727020713
0.00312750103461016,18.8755901034536
0.00335032966097539,18.8801132270503
0.00358758588482593,18.8848766530817
0.00384250567457562,18.8899190275605
0.00411948356658701,18.8952844026053
0.00442452633128205,18.9010237236083
0.00473405471216435,18.9066220172402
0.00505302030182474,18.9121255529038
0.00538245133557336,18.9175038755302
0.00572625657467431,18.9227769132648
0.0060879670805203,18.9279556746353
0.00647142751901683,18.9330528726791
0.00688048686227861,18.9380769439283
0.00731918556069211,18.9430337775311
0.00779185396916078,18.9479269422345
0.00830323897120526,18.9527581861061
0.00885860534162536,18.9575276246375
0.00946383843472622,18.9622340029755
0.0101255434460364,18.9668750177806
0.010857089425939,18.9714833764211
0.0116807876325753,18.9761192313153
0.0126131384566184,18.9807795782687
0.0136789099219301,18.9854840353969
0.0149145528322419,18.9902748636314
0.0163843369279682,18.9952556848337
0.018241464948209,19.0007289584259
0.0207159157163898,19.007078344176
0.0223099272414464,19.0108347612819
0.023943669729762,19.0145911783878
0.0253720525459107,19.0179526645213
0.0265797928489426,19.0210293528094
0.0275809320525816,19.0239896164303
0.0283254516748102,19.0268115619922
0.0288032760334638,19.0295582444355
0.0290040156141588,19.0323549925862
0.0288770104532686,19.0353915900918
0.0282160440780224,19.0392371136245
0.0273880617765402,19.0421393499027
0.0263290614779466,19.0450415861808
0.0252567435637783,19.0475771944505
0.0241876849953588,19.0498967415891
0.0231166840862155,19.0521034439156
0.0220448795208361,19.0542475182409
0.0209756255875108,19.0563577169234
0.0199126541449529,19.0584531000258
0.0188595726735422,19.0605475845613
0.0178197298258116,19.0626520682034
0.0167961875988653,19.0647755708765
0.0157917234197931,19.0669259197816
0.0148088426003938,19.0691101918776
0.0138497932445268,19.0713350205683
0.0129165758397208,19.0736068357722
0.0120109601482281,19.0759320395781
0.0111344911534324,19.0783171810755
0.0102884998033271,19.0807691089186
0.00947411982795794,19.0832951036274
0.00868015914018877,19.0859451193207
0.00789809558519677,19.0887735747828
0.00713170558799561,19.0918014825103
0.00638486357637544,19.0950536999599
0.0056616885902413,19.0985590306051
0.00496650544003151,19.1023510146906
0.00430379270082384,19.1064688554083
0.00367807466321808,19.1109587689687
0.00309373029102427,19.1158762739394
0.00255471648273502,19.12129034714
0.0020642356612176,19.1272911210039
0.00162914074249489,19.1339231842354
0.00126679110891385,19.1410424730484
0.00105078274828245,19.1467577169282
0.000821858258269414,19.1546468789189
0.000633241497933584,19.163424269607
0.000485350938511534,19.172975162964
0.000377485284112866,19.182975162964
0.000304174466775757,19.192975162964
0.000255247504785546,19.202975162964
0.000223349208579924,19.212975162964
0.000203312323419826,19.222975162964
0.000191603450899617,19.232975162964
0.000185843213370559,19.242975162964
0.000184439998420638,19.252975162964
0.000186338127000823,19.2629751629641
0.000190854363888329,19.2729751629641
0.000197573322105048,19.2829751629641
0.000206280276220831,19.2929751629641
0.000216918737878761,19.3029751629641
0.000229566124630813,19.3129751629641
0.000244424227514645,19.3229751629641
0.000261823254044584,19.3329751629641
0.000282240017521744,19.3429751629641
0.000306332995411128,19.3529751629641
0.000335000032436831,19.3629751629641
0.000369469240360558,19.3729751629641
0.000411441699411561,19.3829751629641
0.000462029408130157,19.3927484893918
0.000520084555790411,19.4017911233746
0.000586495893804425,19.4101386943631
0.000662408357785282,19.4178441994984
0.000749140650243599,19.4249576325046
0.000848189193808927,19.4315254737329
0.000961246129781498,19.4375909274357
0.00109022396157574,19.4431941578287
0.0012372846881088,19.4483725022661
0.00140487311767215,19.4531606686731
0.00159575539676196,19.4575909238571
0.00181306460262755,19.4616932756277
0.00206035523483415,19.4654956481969
0.00234166931352172,19.4690240544949
0.00266161872658277,19.4723027706952
0.00302548906576129,19.4753545172347
0.0034393744937109,19.4782006507632
0.00391035707139261,19.480861377625
0.00444675304960876,19.4833560053365
0.00505846399027527,19.4857032574825
0.00575681864139807,19.4879197315031
0.00652836238181311,19.4899570415143
0.00738209035991286,19.4918489232566
0.00833171869421268,19.4936292727925
0.00939816614424704,19.4953332118084
0.0106172307380774,19.4970039888711
0.0120862778382183,19.4987378942357
0.014122800663961,19.5008006229563
0.0158398533674272,19.5023400198196
0.017690406289238,19.5038794166828
0.0193386709330321,19.5052039547846
0.0207896958292868,19.5063797610674
0.0220911516227003,19.5074877317701
0.0232503959982995,19.5085744383558
0.0242538130968469,19.5096778387933
0.0250701271316176,19.5108430417743
0.0256384622766372,19.5121469222061
0.0258020574623535,19.5138050470665
0.0253433376834513,19.5155244080725
0.0243504263696941,19.5172437690785
0.0232118049487326,19.5186811000648
0.0219318341587491,19.5200672366779
0.0205085994806715,19.5214843140689
0.0189505564428804,19.5229739611573
0.017263734602708,19.5245746786387
0.0154816149405761,19.5263368276407
0.0135773917818307,19.5283957664361
0.01117432344632,19.5313483762924
0.00924124676358915,19.5341256061097
0.00770823915431299,19.5366925435049
0.00642625955842717,19.5391850889081
0.00530420905041664,19.5417233363165
0.00431724890269183,19.5443350231419
0.0034475034305574,19.5470432772417
0.00268038550674987,19.5498716791383
0.00200344790804519,19.5528458261137
0.00145053149398653,19.5557375256896
0.000990686237740781,19.5585755240845
0.000592767614076812,19.5614548585698
0.00024698361899688,19.5643726193295
-4.08321211949639e-05,19.5671738362713
-0.000275369491270201,19.5697604162229
-0.000471328006520332,19.5721642396465
-0.000640920047689433,19.5744427356035
-0.000792497392679915,19.5766454909686
-0.00093251043132884,19.5788240737245
-0.00106756904283977,19.5810559484728
-0.00120904002336438,19.5835250346878
-0.00133027261173515,19.5857384613328
-0.00144744003391093,19.5879518879778
-0.00154073147567176,19.5897578021947
-0.00162168688306989,19.5913501658376
-0.0016990399047701,19.5928889233902
-0.00177791957277426,19.5944710725829
-0.00186407993355832,19.5962094938109
-0.00196947514164338,19.5983438641661
-0.0021742416601597,19.6024919481728
-0.00237531603321219,19.6065504190774
-0.0025505807990796,19.6100848266602
-0.0027343327241451,19.613823882852
-0.00296718627590915,19.6187448920301
-0.00318424434368013,19.6239440212295
-0.00332801225641757,19.628740153451
-0.00337697330188454,19.6327696599253
-0.00334051609773624,19.6363929399879
-0.00321171732876881,19.639881702398
-0.00296500248933738,19.6434070698128
-0.00262257539800183,19.6465603407171
-0.00218899518905089,19.6494376361252
-0.00166288059699561,19.6521123575603
-0.00103046467363162,19.6546715173866
-0.000255037448949371,19.6572341429882
0.000775504162656157,19.6600616307851
0.00210559517263792,19.663160582353
0.00352376210716502,19.6660972915688
0.00492507513127419,19.668789767801
0.00618940636799627,19.6710806854071
0.00754122623474396,19.6733716030132
0.00880938420438193,19.6753454981384
0.0100700676367701,19.6771228539392
0.0114183273052937,19.678821875687
0.0128718751969266,19.6804389226277
0.0144848957652285,19.6820083114705
0.0162732952370609,19.6835191664344
0.0182749716588375,19.6849808028146
0.0205072474734238,19.6863856507173
0.0230062931030841,19.6877392123081
0.0258033019885871,19.6890421247533
0.0289325612411211,19.6902956659285
0.032432118499917,19.69150156104
0.0363524571723448,19.6926641169712
0.0407487614503727,19.6937865751452
0.0456856512376364,19.6948723415287
0.0512383914896701,19.6959247828908
0.0574985682392879,19.6969477936842
0.064575086799214,19.6979452458533
0.0726001090742781,19.6989212622721
0.0817363743935915,19.6998803518591
0.0921876153887895,19.7008275851666
0.104215249169935,19.7017689476198
0.118163091627597,19.7027117394754
0.13450038051606,19.7036654062831
0.153900490754988,19.7046430671434
0.176599581886074,19.7056321906538
0.202941415339154,19.7066297422674
0.233675450292483,19.7076484967204
0.269855497690968,19.7087078516312
0.313211152617623,19.7098440089529
0.34802929517436,19.7106900087176
0.384137998799285,19.7115360084823
0.41625965140188,19.7122881439069
0.444368560828977,19.7129729404631
0.468873060658733,19.7136227504282
0.489729770476672,19.7142614144498
0.506492512939577,19.714910939348
0.518191435479885,19.7155979668721
0.522821016220906,19.7163655694521
0.517239032497697,19.7171781802857
0.499964574945758,19.7180150264814
0.469543679667295,19.7188909113821
0.424183203551049,19.7198162133649
0.376802626602852,19.7205838921982
0.321495901119569,19.7213515710316
0.282762233811835,19.7218421880653
0.242228971176019,19.7223328050991
0.205839413357088,19.722764872022
0.173591134909762,19.7231496624747
0.144617507192177,19.7235038882665
0.118305518522984,19.7238390309718
0.0942177792156942,19.7241636813578
0.0719884381175552,19.7244856811924
0.0512234659590875,19.724814517558
0.0312770716892087,19.7251673711425
0.00985215603143423,19.7256076231152
0.000729419054458417,19.7258233741859
-0.00752850120778595,19.7260391252566
-0.0139811003998592,19.7262250143339
-0.0199417148833905,19.7264138778485
-0.0259091914610159,19.7266239770172
-0.0316476813758919,19.726851872714
-0.0370081029101368,19.7270955261341
-0.0419082996122205,19.7273542649353
-0.0463060557414165,19.7276283259778
-0.0501831953742152,19.7279186032334
-0.0537604048178529,19.7282510864812
-0.0565079177968847,19.7285775593606
-0.0587411751027417,19.7289256633156
-0.0604771497945794,19.7292987969646
-0.0617301962634135,19.7297007195602
-0.0625137784157783,19.7301360753396
-0.062838973626679,19.7306106665802
-0.062712767350782,19.7311318583734
-0.0621354889585452,19.7317094911924
-0.0610952891493031,19.7323577605315
-0.0595643025630142,19.7330955356791
-0.0574861177482627,19.7339517644039
-0.0547417467309229,19.7349776779826
-0.0510113081261165,19.7362961840699
-0.0469948195832125,19.7376842757803
-0.0431211422640605,19.7390274112786
-0.0394344020489451,19.7403297663972
-0.0359559416574027,19.7415934513803
-0.0326964105909699,19.7428192290693
-0.0296600048954283,19.7440071802153
-0.0268464461039778,19.7451570586226
-0.0242520998734024,19.7462684777876
-0.0218707393803288,19.747341006236
-0.0196941479394115,19.7483742110832
-0.0177126356075494,19.7493676705147
-0.0159154961195221,19.750320966378
-0.0142914118326254,19.7512336630229
-0.0127420661348733,19.7521586601988
-0.0112535605665848,19.7531074860833
-0.00983010925394454,19.7540819428665
-0.00847561362088406,19.7550842348568
-0.0071937655224576,19.7561169560805
-0.00598799638067681,19.757183188578
-0.00486142525797581,19.7582866318673
-0.00381680485060965,19.7594317783403
-0.00285646531042184,19.7606241567069
-0.00198225539313879,19.7618706796498
-0.00119547972086914,19.7631801574403
-0.000496829702161502,19.7645640886377
0.000113696691911822,19.7660379411905
0.000636896062405363,19.7676233683328
0.00105526012591101,19.769264769349
0.00137905042697789,19.7709587391503
0.00162375481799414,19.7727237899048
0.0018035469603991,19.7745830858875
0.00193180084151497,19.7765680959126
0.00202154072341224,19.7787244951888
0.00208614684228771,19.7811249814132
0.00214084772585721,19.7839030631633
0.00220767347969873,19.7873805223161
0.00229748990585972,19.7911516805636
0.00242472809886869,19.7953124614754
0.00257850411963254,19.7994938280273
0.00273886977306271,19.8033967923459
0.00290423962772122,19.8071797133556
0.00307426149118338,19.8109307846724
0.00324947583440543,19.8147056862409
0.00343120107530412,19.8185457027696
0.00362138204929304,19.8224852129665
0.00382246477483034,19.8265554091832
0.00403732096021836,19.8307866211524
0.00426922464834094,19.835209854337
0.00452191699870992,19.83985810821
0.00479982127796572,19.8447678249792
0.00510847079285999,19.849980153389
0.00544702933427946,19.8554121067219
0.00579530271384352,19.8606880454461
0.0061619309458492,19.8659076834771
0.00654709065127938,19.871028323128
0.00695540163423062,19.8760671177271
0.00739105414309807,19.8810285306646
0.00785900245202913,19.8859203741763
0.00836448311917776,19.8907469796591
0.00891319209420272,19.8955106061872
0.00951132903612989,19.9002112552577
0.0101657150912073,19.9048472883782
0.0108902912294572,19.9094546478293
0.0117066819697617,19.9140890088918
0.0126314769295194,19.9187479989807
0.0136892300244083,19.9234505775548
0.0149159306244216,19.9282378821532
0.0163746076025844,19.9332107152473
0.0182136901236726,19.9386609584334
0.0206844291585822,19.9450281187984
0.0222818057870741,19.9488016139791
0.023921719658219,19.9525751091597
0.0253567462281348,19.9559490764851
0.0265700197422871,19.9590314009128
0.0275767154803075,19.9619928792533
0.0283285361290714,19.9648179032799
0.0288136565330359,19.9675642248748
0.0290223556996294,19.9703563149097
0.0289057986753171,19.9733800876611
0.0282685504319149,19.9771763305401
0.0274443770893205,19.9801030502946
0.0263830752072377,19.9830297700491
0.025309607834572,19.9855758207331
0.0242403899089364,19.9878993550302
0.023169486352629,19.9901074137075
0.0220978348163141,19.9922514040843
0.0210287479251079,19.994360515473
0.0199659565066847,19.9964539938855
0.0190725855871701,19.9982269969427
0.018191173796678,20
