ecg,time
0.00333577604973018,15.0040002990086
0.00278135613537051,15.0091626955341
0.00227370011418106,15.0148598446168
0.00181542135227482,15.0211949654835
0.00141888793235288,15.0281004724016
0.00108641247323883,15.035545728838
0.000846524732163133,15.0429070214496
0.000662211200339275,15.0506538035032
0.000498552725528525,15.0600144111256
0.000378007469778076,15.0697118930687
0.000291124330010767,15.0797118930687
0.0002315427278024,15.0897118930687
0.000191304901959795,15.0997118930687
0.000164608743363029,15.1097118930687
0.000147336103935826,15.1197118930687
0.000136647891377649,15.1297118930687
0.000130619946713446,15.1397118930687
0.000127954536633425,15.1497118930687
0.000127776881330522,15.1597118930687
0.000129501038220424,15.1697118930687
0.000132742985582939,15.1797118930687
0.000137263346448404,15.1897118930687
0.000142928851114734,15.1997118930687
0.00014968643379096,15.2097118930687
0.000157546478169322,15.2197118930687
0.000166573037921242,15.2297118930687
0.000176879620348178,15.2397118930687
0.000188629714101052,15.2497118930687
0.000202041798719614,15.2597118930687
0.00021739914829557,15.2697118930687
0.000235065397850258,15.2797118930687
0.000255507689816994,15.2897118930687
0.000279330443296719,15.2997118930687
0.000307324698990998,15.3097118930687
0.000340541130226447,15.3197118930687
0.000380400176543799,15.3297118930687
0.000428862282165661,15.3397118930687
0.000485854294413306,15.3492769126597
0.000550807970631104,15.3581153908749
0.000624677120823835,15.3662710617911
0.000708654371266962,15.3737968662612
0.000804112856073054,15.3807423936317
0.000912613191232101,15.387153683787
0.0010359236352035,15.3930734870892
0.00117604633453621,15.3985415083557
0.00133524884789715,15.4035946193298
0.00151609910458105,15.4082670626537
0.00172150778689203,15.4125906514276
0.0019547771311796,15.4165949622374
0.00221966138600854,15.4203075140971
0.00252043873869797,15.4237539458376
0.00286200346630846,15.4269582015374
0.00324998311579551,15.4299427234236
0.00369089149002803,15.4327286559147
0.00419233669924138,15.4353360808795
0.00476331127466743,15.4377843031626
0.00541461390508883,15.4400922179512
0.00614656913426428,15.4422441719793
0.00695542496222174,15.4442312620478
0.0078522697387078,15.446087701933
0.00885388302274493,15.4478481290603
0.00998723944280887,15.4495512621016
0.0113026355047502,15.4512512999702
0.0129821168473238,15.4531202307929
0.0149482805428917,15.4550226411283
0.01657851532933,15.4564525335998
0.0182995564053383,15.4578824260714
0.0198403644509767,15.4591422248318
0.0212144505073008,15.4602938653792
0.0224464216758303,15.461398084609
0.0235336901621454,15.4624959033816
0.0244560982537622,15.4636264652126
0.0251735529605048,15.4648432129853
0.0256034042094969,15.4662531609566
0.0254535458858472,15.4682893671146
0.0247974143737432,15.4698215550405
0.0237732500878812,15.4713537429664
0.0225971627674656,15.4727570381715
0.0212748548927747,15.4741543202555
0.0198146768710384,15.4755991905755
0.0182257328629542,15.4771292866722
0.017218197776436,15.4780989101873
0.0162328719908348,15.4790685337023
0.0149891001540209,15.4803564685482
0.0125170197328826,15.4831885748878
0.0103383930114385,15.4860930406666
0.00862779414143533,15.4887608078963
0.00725450454756107,15.491252311098
0.00606349635542723,15.49376426279
0.00504541233183283,15.4962684449893
0.00421044453087384,15.4986592027726
0.00351501694492231,15.5009649199159
0.00292373261106633,15.5032262708468
0.00240625571321539,15.505506464277
0.00192941858205394,15.5079377185953
0.00141279010758035,15.5110583961305
0.00115025730135941,15.5129035483184
0.000915025187762077,15.5147487005063
0.000721570402113562,15.5164316587955
0.000554349041644695,15.5180309795426
0.000399935307379874,15.51964901707
0.000248520337380242,15.5213914283041
8.74238013920524e-05,15.5234477978922
-0.000125870045083318,15.5265708098581
-0.000326669355559702,15.5300582605684
-0.000472135962293231,15.5330340905706
-0.000598535131991204,15.5360356431802
-0.000723584091718663,15.5395306148112
-0.000855259595914734,15.5440772374834
-0.000972419262719914,15.549664237527
-0.00102906377650277,15.5545188819729
-0.00103290597782485,15.5589293672894
-0.000981644895830028,15.5628988718518
-0.000871567084540482,15.5664809487178
-0.000698112332203136,15.5697206355659
-0.000455524645456735,15.5726729815011
-0.000136446828912704,15.5753922256568
0.000269664554544234,15.5779356337234
0.000780282615769843,15.5803701351863
0.00142929725530796,15.5827889533538
0.00227456662773575,15.5853007999821
0.00348522160744064,15.5881993470659
0.00503479116155554,15.5912405311122
0.00644835897400892,15.5936107412541
0.00806699280932434,15.595980951396
0.00961807507154401,15.5979651444961
0.0111611581032023,15.599697396785
0.0128114947245995,15.601320475409
0.0145887370580492,15.6028445445118
0.0165527234888332,15.6043068699169
0.0187261791994034,15.6057066222163
0.0211535956733158,15.607055355326
0.0238628038099071,15.6083517764112
0.0268969898641178,15.6096011397017
0.0302972795233824,15.6108054007295
0.0341061484706338,15.6119657171169
0.0383813853368638,15.6130863090205
0.0431849933169323,15.6141700469552
0.0485895594846034,15.6152200331573
0.0546788229244206,15.6162392545341
0.0615575539580981,15.6172316986573
0.0693493819480175,15.6182011433282
0.0782050674952651,15.6191516820623
0.0883112628541767,15.6200878591086
0.0999026821953517,15.6210148233165
0.113282050330932,15.6219387066486
0.128850722417679,15.6228671096034
0.147159340494074,15.6238098984037
0.168971630757,15.6247795666064
0.194213836557126,15.6257509859077
0.223528927293856,15.6267336749597
0.257770832605807,15.627741149686
0.298191590812247,15.628795762274
0.346111743548352,15.6299238098394
0.387875071400229,15.6308473523539
0.422286708788346,15.6315988752416
0.452041301363371,15.6322685899152
0.478062369764505,15.6328991745951
0.500455826344881,15.6335165192762
0.518866577240217,15.6341431698881
0.532419564748813,15.6348060099578
0.53923824856142,15.6355491933612
0.535950201092232,15.6363439440601
0.520898615495562,15.6371642922164
0.492618175269584,15.6380270774763
0.449182721014683,15.6389445316325
0.388466692801498,15.6399247809642
0.342903482423255,15.640547837725
0.292849142042695,15.6411708944857
0.248453854518577,15.6416930733373
0.210478050250616,15.642130418638
0.177158820500192,15.642515861838
0.147341380976224,15.6428691862743
0.120329135802464,15.6432025789792
0.0956438708630882,15.6435248851036
0.0728953728088672,15.643844017514
0.0516747295287897,15.6441693612974
0.0313329994157667,15.6445175476306
0.00966726092326189,15.6449475915691
-1.30508279532677e-05,15.6451687515196
-0.00874495491832162,15.64538991147
-0.0152882984229588,15.6455729799764
-0.0213023330483907,15.645757933423
-0.0273404433534947,15.6459640897425
-0.0331590674245033,15.6461879906377
-0.0386029721484071,15.6464275491383
-0.0435861612362237,15.6466820491416
-0.0480640934767039,15.6469516876096
-0.0520172252242009,15.6472373200472
-0.0554379789805881,15.6475403399829
-0.0584516342426815,15.6478793730072
-0.0607638178729065,15.6482216655003
-0.0625711498615566,15.6485882770456
-0.0638900176283848,15.6489831159426
-0.0647342637689895,15.6494107348798
-0.0651154136307857,15.6498768202854
-0.0650409658307273,15.6503885906505
-0.0645120708889783,15.6509555051859
-0.0635176891777334,15.6515915814178
-0.0620308116442692,15.6523152254078
-0.0599964038673691,15.6531545520709
-0.0572987970758322,15.6541588771326
-0.0536330396866701,15.6554439282114
-0.0495400059145086,15.6568421725612
-0.0455808863758299,15.6581954362937
-0.0418041563371008,15.6595082342315
-0.0382335930266083,15.66078274321
-0.0348814311004219,15.6620197303441
-0.0317530769757306,15.6632192514648
-0.0288492446004926,15.6643810231545
-0.0261671243072243,15.6655046186003
-0.0237011614668729,15.6665895683267
-0.0214436653901616,15.6676354072703
-0.0193853320031171,15.6686416898184
-0.0175157096814313,15.6696079844599
-0.0158236160109311,15.6705338544717
-0.0142433044883782,15.6714512546692
-0.0127220202666294,15.6723921204917
-0.0112643338478126,15.6733579810757
-0.00987418605608024,15.6743509316141
-0.00855532412829742,15.6753734292966
-0.00731124817638217,15.6764283849592
-0.00614515898104903,15.6775192809337
-0.0050599033763311,15.6786503296181
-0.00405791710729622,15.679826691772
-0.00314116457936667,15.6810547852467
-0.00231107417197629,15.6823427358141
-0.00156846646291507,15.6837010613987
-0.000913470205733927,15.6851437610901
-0.00034541571966816,15.6866901558453
0.000124757952307561,15.6883184203168
0.000494732571709788,15.6899931725107
0.000780924383820979,15.6917327081499
0.000997986895567687,15.6935582080245
0.00115969591685558,15.6954979679535
0.00127937709015107,15.6975920888144
0.00137055505450052,15.6999022671162
0.00144821402874588,15.7025357346514
0.00153238912113717,15.7057232605935
0.00164104546929352,15.7094599669924
0.00178004640458598,15.7134479616416
0.00197025337192034,15.718081382009
0.00216102358093694,15.7222661162517
0.00234907992078561,15.7261792674216
0.00253661142107551,15.7299829505693
0.00272530179416758,15.7337615608093
0.00291700143510178,15.7375692578236
0.00311386358527958,15.7414467494059
0.00331833251643369,15.7454282991564
0.00353310596062653,15.7495451468942
0.0037611365400392,15.7538278776882
0.004005663366054,15.7583078972247
0.00427032793832723,15.7630187970603
0.00455943109608304,15.7679977782232
0.00487839490898412,15.7732868464802
0.00522211579125065,15.7787393096098
0.00557431274703698,15.7840489862971
0.00594234894125598,15.7892924977254
0.00632709544112485,15.7944371810866
0.00673308704500979,15.7994993184167
0.00716447696919928,15.8044841769891
0.00762608573094129,15.8093999082974
0.00812297433711214,15.8142512484691
0.00866062570203036,15.8190408788408
0.00924500012123739,15.8237692517687
0.00988266099895782,15.8284351791281
0.010581442545382,15.8330398344826
0.0113671957055283,15.8376788194271
0.012253857496183,15.8423402314603
0.0132637521343416,15.8470405834411
0.014428018203921,15.8518113086818
0.0157979549815236,15.8567281705671
0.0174808506021279,15.8619932139214
0.0198600127304496,15.8684347754427
0.021536047588742,15.8725296619928
0.0232869350313264,15.876624548543
0.0247998465524972,15.8801796853781
0.0260719578080701,15.8833532848273
0.0271360218715973,15.8863561658675
0.0279668869989601,15.8892509711686
0.0285297776461917,15.8920302257259
0.0288221578325042,15.894813340909
0.0288111005183369,15.8977577861869
0.0283768727070635,15.9012155196592
0.0275922814050857,15.9044493751231
0.0265007676539109,15.907683230587
0.0254137635063678,15.9103638757249
0.0243418575897018,15.9127538952688
0.0232700977762093,15.9150049633854
0.0221973534917742,15.9171809899098
0.0211265490117424,15.9193157454128
0.0200613621605317,15.9214307162043
0.0190054524813427,15.9235411904156
0.0179622542668829,15.9256589030696
0.0169349237303806,15.9277934081037
0.0159263343679815,15.9299528720886
0.0149390867019679,15.932144574867
0.0139755189225264,15.9343752551689
0.0130377217318674,15.9366513542826
0.0121275476122679,15.9389792156816
0.0112466195891105,15.9413652536416
0.0103963470601709,15.9438160847017
0.00957792709002077,15.9463386921633
0.00878745423760281,15.9489574301925
0.00800822538850539,15.9517500228121
0.00724403994259417,15.9547362702376
0.00649868369194893,15.9579399528676
0.00577617863962471,15.9613885664219
0.00508075439749964,15.9651140127763
0.00441679125798832,15.9691534832463
0.00378872680055402,15.9735506398486
0.00320088498789257,15.9783575853567
0.00265722414005312,15.9836383836913
0.0021610262752325,15.9894755125264
0.00171469233408082,15.9959800043362
0.00133404753045611,16.0030059751157
0.00108316674864163,16.0088146481134
0.000889069339722959,16.014623321111
0.000681277608715063,16.0229279745498
0.00052017125811102,16.031779644446
0.000393037339383445,16.0414894228315
0.000301481641908223,16.0514894228315
0.000238595612252945,16.0614894228315
0.000196036255409655,16.0714894228315
0.000167720208549722,16.0814894228315
0.000149317499561663,16.0914894228315
0.000137834660047651,16.1014894228315
0.000131239605220583,16.1114894228315
0.000128160934700657,16.1214894228315
0.000127673650795745,16.1314894228315
0.000129157065515533,16.1414894228315
0.000132202607678386,16.1514894228315
0.0001365531691563,16.1614894228315
0.000142062342558673,16.1714894228315
0.000148666964990464,16.1814894228315
0.000156369219303913,16.1914894228315
0.000165225972204981,16.2014894228315
0.000175343838734924,16.2114894228315
0.000186879071731294,16.2214894228315
0.00020004193546294,16.2314894228315
0.000215105792272072,16.2414894228315
0.000232421770341648,16.2514894228315
0.000252440693113418,16.2614894228315
0.000275745108088446,16.2714894228315
0.00030309604084755,16.2814894228315
0.000335502018450391,16.2914894228315
0.000374322870864789,16.3014894228315
0.000421429585960218,16.3114894228315
0.000477363578813234,16.3211590349237
0.000541148175012267,16.3300981152346
0.000613694982335694,16.3383466996427
0.000696170880855661,16.3459581315438
0.000789923691661429,16.3529825211231
0.000896486656838256,16.3594663933244
0.00101759735933991,16.3654529466125
0.00115522325769954,16.370982301458
0.00131159249459815,16.3760917164052
0.00148922840708265,16.3808157923612
0.00169099059154317,16.3851866728263
0.0019201228380492,16.389234238327
0.00218031179428349,16.392986287209
0.00247575674958653,16.3964687122173
0.00281125898975609,16.3997056846338
0.00319233449871782,16.4027198464369
0.00362536128637739,16.4055325116125
0.00411777828749609,16.408163895892
0.00467836136483602,16.4106333939395
0.00531762253535071,16.4129599319037
0.00603946430871901,16.4151378323545
0.00683698574438506,16.4171460351872
0.00772063610057537,16.419018745254
0.00870624601420514,16.4207904856424
0.00981887067967097,16.4224989590889
0.0111040389282392,16.4241949351158
0.012713969175157,16.4260246056788
0.0151557403583392,16.4283955794493
0.016748891958446,16.4297818639372
0.0184225916976805,16.431168148425
0.0199467080506775,16.432414892048
0.0213097763308497,16.4335612571935
0.0225313989175492,16.4346637234318
0.0236073936400779,16.435762562554
0.0245163647637638,16.4368973486045
0.0252162640293479,16.4381235391757
0.0256189059125047,16.4395559734352
0.0253826196943647,16.4417061525575
0.0246797055687579,16.4432122771155
0.0236340068348229,16.4447184016735
0.0224390873189567,16.4461166028062
0.0210987523721724,16.4475176031439
0.0196218235449794,16.4489712314423
0.0180170097479494,16.4505147987523
0.0170031728040801,16.4514921434388
0.0160184646624946,16.4524694881253
0.0136075494616682,16.4550731584384
0.0111840443111044,16.458094523664
0.00928905444572473,16.4608647724701
0.00778975645371461,16.4634212526049
0.00653026745377314,16.4659180241481
0.00542916677888808,16.4684629622559
0.00452642219644559,16.47089661398
0.00377973812210008,16.4732321687114
0.00315050917915724,16.4755053979366
0.00260696170433589,16.4777679379094
0.00211860017173427,16.4801137695464
0.00163799017868869,16.4828096392368
0.00131916676751627,16.4848786648587
0.00103759230635645,16.4869476904806
0.000819439336000664,16.4887451929079
0.000640418734943761,16.4903751199688
0.000480548235388834,16.4919716000487
0.00032875896804999,16.4936329480416
0.000174851015131194,16.4954893253782
-1.63218016089079e-07,16.4978548708006
-0.000264902548159232,16.5021022823757
-0.000459394169499513,16.5059380754337
-0.000601548175993749,16.5092960374993
-0.00073158630286185,16.5129609400821
-0.000866866464976224,16.5177261531865
-0.000978346703585637,16.5232282558631
-0.00103103539458163,16.5280509068199
-0.00103079989230118,16.5324237684887
-0.000975235437643635,16.5363638007848
-0.000860599678550339,16.5399167910545
-0.000682065869443671,16.5431345299032
-0.000434002398982849,16.5460671253908
-0.000109048555896293,16.5487690580696
0.000303847216384975,16.5513002005122
0.000822274438500985,16.5537259142944
0.00147800208766306,16.5561304754798
0.00234052289454308,16.5586568955968
0.00357273899883727,16.5615683343954
0.00514509921946826,16.5646183501336
0.00654561236775709,16.5669438608575
0.00814573431042881,16.5692693715813
0.00966587077739377,16.5712023560735
0.0112340612347607,16.5729531692308
0.0128850125277277,16.5745667307694
0.0146732579929411,16.5760905088055
0.0166537635114313,16.5775551798731
0.0188380087338309,16.578951969092
0.0212783828112801,16.5802983142044
0.0240014082063422,16.581592116626
0.0270512320295486,16.5828390371698
0.030469458528797,16.5840411097459
0.0342984294185787,16.585199345491
0.0385965084881744,16.586318025827
0.0434262263149209,16.5874000362899
0.0488607551234379,16.5884484847149
0.0549848016917082,16.5894664037113
0.0619032823763801,16.5904576618198
0.0697412656887343,16.5914261055528
0.0786509872019974,16.5923758466601
0.0888210519068811,16.5933114536175
0.10048933382231,16.5942381481292
0.113961649723776,16.595162056724
0.12964527096334,16.5960908872065
0.148099747290967,16.5970346465061
0.170058363820874,16.5980042132842
0.195473291889185,16.5989759151695
0.224995254634446,16.5999594082831
0.259490756605028,16.6009684610978
0.300239782950388,16.6020260885922
0.348401249232352,16.6031552765783
0.389733551592349,16.6040676878294
0.423868848079916,16.604813565946
0.453425367568616,16.6054805466572
0.479267394494406,16.6061099171788
0.501474301933648,16.6067271846033
0.519668941133361,16.6073549291739
0.532942935402125,16.6080204910997
0.539340459721748,16.608769568275
0.535474524301745,16.6095651760706
0.519782711194186,16.6103873307371
0.49077275928932,16.6112526729153
0.446500364661204,16.6121731759192
0.385052992488632,16.6131538233155
0.339815288879993,16.6137676319336
0.29028676426142,16.6143814405516
0.246322699132373,16.6148975533919
0.208634997829796,16.6153314375847
0.17552220294466,16.6157148007241
0.145865847769821,16.6160668241644
0.118985739036811,16.6163994354413
0.0944109342827764,16.6167213787692
0.0717530725293992,16.61704057582
0.0505983181262806,16.6173665882336
0.030271050804156,16.6177168031734
0.00832962517816507,16.6181566774302
-0.000743978296368132,16.6183661991589
-0.00896930874972471,16.6185757208876
-0.0154616393414443,16.6187578702095
-0.0214804954997606,16.6189434981967
-0.0275153141473265,16.61915022148
-0.0333247454250827,16.6193746025977
-0.0387561194538038,16.6196146035527
-0.0437249849108519,16.6198695404476
-0.04818772427467,16.6201396323409
-0.0521253566969729,16.6204257517264
-0.0555303034871434,16.6207293070058
-0.0585141616799331,16.6210672360583
-0.0608137998931252,16.6214100645744
-0.0626091122666537,16.6217773136549
-0.0639163121102547,16.6221728894859
-0.064749203275408,16.6226013685431
-0.0651192350765071,16.6230684690603
-0.0650337838401688,16.6235814532083
-0.0644937705830297,16.6241498762285
-0.0634878322606476,16.6247878324966
-0.0619884662123153,16.6255138984963
-0.0599396902492575,16.6263565191115
-0.0572235261740991,16.6273658196049
-0.0535259025212613,16.6286607271282
-0.0494355023580561,16.6300576593578
-0.0454806566228892,16.631409823929
-0.0417090362165658,16.6327216078285
-0.0381440173652435,16.633995137033
-0.0347976145657008,16.6352311529942
-0.0316750913840525,16.6364296989402
-0.0287770578999021,16.6375904857305
-0.0261006243373522,16.6387130844291
-0.0236401734113427,16.6397970252269
-0.0213879662248075,16.6408418434652
-0.0193346632588648,16.6418470940238
-0.0174697888685848,16.6428123455434
-0.0157821467917024,16.6437371608038
-0.0142032966349936,16.6446551557699
-0.0126836079617016,16.6455966450444
-0.0112276211288216,16.6465631794321
-0.00983927266837697,16.6475568624897
-0.00852230405290876,16.6485801619262
-0.00728020830906492,16.6496360017475
-0.00611617774766592,16.6507278809843
-0.00503304928608029,16.6518600335324
-0.00403324723530615,16.6530376483372
-0.00311872295486844,16.6542671810329
-0.00229089002350586,16.6555568094331
-0.00155055222641435,16.6569171256021
-0.000897819109447139,16.6583622388648
-0.00033199856321713,16.6599116434756
0.000135355442232771,16.6615408828245
0.000502970870040695,16.6632170855007
0.000787196136697651,16.6649585527092
0.0010026578271656,16.6667866123684
0.00116311405520385,16.6687297926215
0.00128188604696637,16.670828596864
0.00137251601818219,16.6731454988298
0.00145005530105086,16.6757895171195
0.00153477964690383,16.6789971115833
0.00164392803674535,16.6827351917214
0.00178398142156398,16.6867350373934
0.00197579755578732,16.6913910819347
0.00216649151360015,16.6955650890497
0.00235450927943274,16.6994733136831
0.00254205117549828,16.7032752753733
0.0027308015648774,16.7070540586714
0.002922619294263,16.7108632643291
0.00311966673565711,16.7147433377968
0.00332439622903382,16.7187284167952
0.00353951278014826,16.7228496917451
0.00376797664666903,16.7271377522821
0.00401303646569992,16.7316240479727
0.0042783485225167,16.7363422568057
0.0045682385419077,16.7413297042912
0.00488817138315225,16.7466285577374
0.00523202186393656,16.7520755126265
0.00558468369695307,16.7573841059724
0.00595314051905891,16.7626245576952
0.00633844223820767,16.7677668028766
0.00674509884997115,16.7728265915187
0.00717728901758006,16.7778093764365
0.00763983848919294,16.782723199284
0.00813781976449864,16.7875727424585
0.00867672783422873,16.7923606164337
0.00926253866100021,16.7970872194984
0.0099018347031938,16.8017513241299
0.0106029371989345,16.8063569761158
0.0113913592031257,16.8109964884888
0.0122812520047748,16.8156587847977
0.0132951178868408,16.8203605978969
0.0144644781850966,16.825134173494
0.0158415262792367,16.8300572714367
0.0175364710633848,16.8353385475031
0.0199539481560944,16.8418548171736
0.0216162956905903,16.8459030984445
0.0233487931768415,16.8499513797154
0.0248505668469805,16.8534846630551
0.0261146619365159,16.8566487381648
0.0271711558125418,16.8596482407297
0.0279920395911439,16.8625366832642
0.0285452301054899,16.8653138627195
0.0288273827461718,16.8680996651165
0.0288039297393009,16.8710543599806
0.0283486028425159,16.8745461492754
0.027559166356784,16.8777444258002
0.02647175830741,16.880942702325
0.0253863968770274,16.883610258758
0.0243146779623747,16.8859952757959
0.0232428816903135,16.8882438417225
0.0221701455995737,16.8904184814931
0.0210994384263005,16.8925525080676
0.0200344433451626,16.8946671980823
0.0189788156597037,16.8967777249136
0.0179359829182548,16.8988957548503
0.016909094165285,16.9010307984835
0.0159010157694611,16.9031909947756
0.0149143415245986,16.9053836059978
0.013951403179023,16.9076153606216
0.0130142851289349,16.9098926955611
0.0121048341813008,16.9122219535169
0.0112246675999585,16.9146095527133
0.0103751893239165,16.9170621171508
0.00955759135720488,16.919586640774
0.00876736393766721,16.922209591877
0.00798847600919482,16.925006865154
0.00722472512072055,16.9279983597074
0.00647990342692901,16.9312079427804
0.00575803864830357,16.9346632134517
0.00506336487656111,16.9383961977837
0.00440026533168352,16.9424442354892
0.0037731773184881,16.9468511740932
0.00318641883244896,16.9516693695395
0.00264393494175621,16.9569632588832
0.002148986349714,16.9628159117888
0.00170395177189936,16.969339244257
0.00132501314793048,16.9763786843667
0.00107142505477502,16.9823006351921
0.00087691355713261,16.9882225860176
0.000671550725269107,16.9965735221739
0.000510702875862158,17.0055789435996
0.000385925602815179,17.0153296416048
0.00029656934085445,17.0253296416048
0.000235247166960966,17.0353296416048
0.000193789803368307,17.0453296416048
0.000166242870762751,17.0553296416048
0.000148375984932141,17.0653296416048
0.000137269307222073,17.0753296416048
0.000130942396081553,17.0853296416048
0.000128058974656869,17.0953296416048
0.000127717860712261,17.1053296416048
0.000129314784126073,17.1153296416048
0.000132452762011254,17.1253296416048
0.000136883059323548,17.1353296416048
0.000142465473642314,17.1453296416048
0.000149141605973217,17.1553296416048
0.00015691749913519,17.1653296416048
0.00016585339149303,17.1753296416048
0.00017605912020187,17.1853296416048
0.000187694310208091,17.1953296416048
0.00020097304472328,17.2053296416048
0.000216173284958246,17.2153296416048
0.000233651953894894,17.2253296416048
0.000253867427818935,17.2353296416048
0.00027741236763343,17.2453296416048
0.000305061665954325,17.2553296416048
0.000337843304568391,17.2653296416048
0.000377145064819733,17.2753296416048
0.000424879146707118,17.2853296416048
0.000481304065928078,17.2949503229719
0.000545631146722832,17.3038423387465
0.000618791525223066,17.3120474551648
0.000701964057804911,17.3196188272264
0.000796508323590991,17.3266063213685
0.000903970267399976,17.3330562355489
0.00102610170774457,17.3390115585777
0.00116488619948119,17.3445122165007
0.00132257017884736,17.3495952869128
0.00150169767117748,17.3542952031028
0.00170515197493739,17.3586439539647
0.00193620398013285,17.3626712777984
0.00219857168500769,17.3664048422112
0.00249649093533534,17.369870421047
0.00283480609424813,17.3730920791217
0.00321908479677334,17.3760923647356
0.00365576786236119,17.3788925121955
0.00415237241437294,17.3815126740814
0.00471777433949895,17.38397220226
0.00536261779419243,17.3862900071719
0.00608914867755717,17.3884557299687
0.00689192029464185,17.3904540126546
0.00778167477649346,17.3923190603201
0.00877467405592417,17.3940854383464
0.00989684039669232,17.3957912989489
0.0111958346563254,17.3974889350268
0.0128371342483006,17.3993360625114
0.0153460245075567,17.4017480892189
0.0169273072457011,17.4031140101501
0.0185815999881221,17.4044799310813
0.0200874641367012,17.4057128969926
0.0214361848450389,17.4068527995976
0.0226439894418447,17.4079532389402
0.0237047890887338,17.4090537462808
0.024595512522602,17.4101945995243
0.0252713237436248,17.4114342479377
0.0256356726767447,17.4128995535879
0.0252958515198085,17.4151357205402
0.0245449969317926,17.4166175395118
0.023475966140218,17.4180993584835
0.0222599549435278,17.4194937855175
0.0208996252562579,17.4208998064555
0.0194041131878374,17.4223639032927
0.0177815910378173,17.423923307532
0.0172144632789562,17.4244698580222
0.0166538547102454,17.4250164085124
0.0157797748596424,17.4258956002713
0.0133625515237457,17.4285400722907
0.0109969559609308,17.4315320152938
0.00914420251680524,17.4342781102049
0.00767310365422895,17.4368197514629
0.00642864253516004,17.4393193295132
0.0053423597920555,17.4418639822531
0.00445503183420969,17.4442880674899
0.00372008794227417,17.4466166012178
0.00309960141259438,17.4488864954405
0.00256218861630813,17.4511515425011
0.00207700551344846,17.4535123888476
0.00159226492246508,17.456272933233
0.00128710052695066,17.4582837757281
0.00101659384586774,17.4602946182231
0.00080331924081723,17.4620677097674
0.000626469896670045,17.4636906112696
0.000467645286883929,17.4652887452015
0.000316115225120011,17.4669602300149
0.000161461359507445,17.468841705773
-1.71974378546646e-05,17.471283334141
-0.000277472999472597,17.4755104739777
-0.000465014981662278,17.4792420784033
-0.000604340033575686,17.4825491086219
-0.00073360033399388,17.4862041711481
-0.000868601467821329,17.4909764053201
-0.000979358778808412,17.4964703333618
-0.00103145058047455,17.501287591964
-0.00103060165253494,17.5056558109888
-0.000974380648494598,17.5095912444031
-0.000859044559158276,17.5131399152476
-0.000679756250041273,17.5163539246962
-0.000430815779369537,17.519283987848
-0.000104905934158301,17.5219836372768
0.000309012845875639,17.5245126931055
0.000828497535125164,17.5269363961911
0.00148610869272214,17.5293416882371
0.0023513877559574,17.5318701101555
0.00358672642716281,17.53478265044
0.00516277061458081,17.537834060133
0.00655919548933612,17.5401493162634
0.00815374601190802,17.5424645723939
0.00967881023922377,17.5444022770518
0.0112429102449843,17.5461468448575
0.0129041988761604,17.5477686908122
0.0146928559357822,17.549290544095
0.0166742215456025,17.5507537123971
0.0188605072852863,17.5521497880638
0.0213032511196731,17.5534954805775
0.0240294980665489,17.5547889140844
0.0270826830716607,17.556035362551
0.0305046907464233,17.5572369856479
0.0343380213997884,17.5583948297001
0.038640963568392,17.559513128071
0.0434762035091935,17.5605947879812
0.048917031300599,17.5616429194019
0.055048451071502,17.5626605811182
0.0619752930562173,17.5636515972319
0.0698229753355377,17.5646198373274
0.0787440459047608,17.5655694174122
0.0889275220205317,17.5665049112217
0.100611859182209,17.5674315494004
0.114103664456382,17.5683554688047
0.129811405607968,17.5692843952479
0.148296520988872,17.5702283656115
0.170285777291334,17.5711979166744
0.195736883640733,17.5721696841326
0.225302202646462,17.5731533533771
0.259850922333093,17.5741627473204
0.300669042990652,17.5752210242953
0.348881026186729,17.5763504698105
0.390124000814932,17.577260596453
0.424201400798174,17.5780053106452
0.453715962361136,17.578671727775
0.479519845557972,17.5793008524496
0.50168687757547,17.5799181142064
0.519835202642517,17.5805461027349
0.533049232627219,17.58121225871
0.539355757317479,17.5819626199226
0.535365965884568,17.582758419942
0.51953683933819,17.5835809682252
0.490370396904827,17.5844468617892
0.445918589149052,17.5853680184146
0.384381215993448,17.5863478078021
0.339207013717081,17.5869598369215
0.289780353617313,17.5875718660408
0.245900668375961,17.5880868004235
0.208269663409873,17.5885200090847
0.175197660733926,17.5889029653076
0.145573209087556,17.5892547343405
0.118719299664738,17.5895871935008
0.0941663999930251,17.5899090676618
0.0715264890117742,17.5902282809557
0.0503846929700236,17.5905544317357
0.0300598072544948,17.5909050650538
0.00805780959836572,17.591347051373
-0.000904027517769771,17.5915544602894
-0.00903526533428513,17.5917618692059
-0.0155150125192216,17.5919438196051
-0.0215353723413639,17.5921296580984
-0.0275691200537806,17.5923365564382
-0.0333756740516277,17.5925610861319
-0.0388031513567551,17.5928012242521
-0.0437675735405954,17.593056296773
-0.0482256058899308,17.5933265295391
-0.0521584399190267,17.5936128002762
-0.0555584935848369,17.5939165219782
-0.0585331534424014,17.5942541082033
-0.0608289112840957,17.5945971033584
-0.0626205060671184,17.5949645505532
-0.0639240975212323,17.5953603553473
-0.0647534773009842,17.5957891015991
-0.0651200709828817,17.5962565174167
-0.0650312168191885,17.5967698785382
-0.0644877642676502,17.5973387700372
-0.0634782499234358,17.5979773102384
-0.0619750173220507,17.5987041287416
-0.0599217882081308,17.599547773557
-0.0571998593022601,17.6005586242142
-0.0534922623525009,17.6018566243611
-0.0494026965507305,17.6032531504652
-0.0454491958054508,17.6046049723547
-0.0416791783210834,17.6059164396279
-0.0381158966108112,17.6071896626309
-0.034771297032656,17.6084253749226
-0.0316505988167692,17.6096236158617
-0.0287543797355892,17.6107840945576
-0.0260797250769473,17.6119063814321
-0.0236209980439146,17.6129900065837
-0.0213704447368251,17.6140345054858
-0.0193187146126618,17.6150394331738
-0.0174553245686234,17.616004358335
-0.0157690740611946,17.6169288435905
-0.0141906817033917,17.617847024624
-0.0126714927334689,17.6187887089635
-0.0112160381052055,17.6197554541891
-0.00982825300339255,17.6207493664803
-0.00851187709321304,17.6217729168456
-0.00727040118095328,17.6228290334222
-0.00610701492419418,17.6239212204805
-0.00502455213481249,17.6250537186636
-0.00402543354391832,17.6262317257662
-0.00311160642721212,17.6274617092899
-0.00228447973080952,17.6287518634027
-0.0015448519837846,17.6301128034827
-0.000892826719051906,17.6315586735472
-0.000327704803226096,17.6331090224495
0.000138768922570707,17.6347385687792
0.000505647767147707,17.6364152274327
0.000789259107308886,17.6381573017237
0.00100422114812653,17.6399861659202
0.00116428652557477,17.6419304214644
0.00128277516872097,17.6440306989358
0.00137323495109515,17.6463497182086
0.00145073862220041,17.648997065938
0.00153563909544541,17.6522110256446
0.00164494434887973,17.6559495810844
0.00178533039116527,17.6599531896287
0.00197765657495571,17.6646164369889
0.00216832290601266,17.6687870132091
0.00235632719810722,17.6726936630967
0.00254387270318169,17.6764950790906
0.00273264360675878,17.6802739275401
0.00292450121297979,17.6840836302036
0.00312161068671373,17.6879645484172
0.00332642690912292,17.691950779578
0.00354165724297474,17.6960734984411
0.00377026447367532,17.7003632963665
0.00401550042980292,17.7048516374111
0.004281026348004,17.7095722278778
0.00457117625084833,17.7145624338979
0.00489142920259642,17.7198644754572
0.00523532465271712,17.7253096045745
0.00558814180981136,17.7306178218255
0.00595674030740351,17.7358572583339
0.00634222831693694,17.7409986935323
0.00674910772664523,17.7460577028841
0.00718156555695057,17.7510397989522
0.00764442934328081,17.755952987019
0.00814277545897843,17.7608019316869
0.00868210297802535,17.7655892201049
0.00926839313722653,17.7703152327823
0.00990823479297055,17.7749787292835
0.0106101122186516,17.7795847129933
0.0113994255466732,17.7842244019644
0.0122903977703494,17.7888869949106
0.0133055912072837,17.7935893000485
0.0144766564399163,17.7983638378634
0.0158560902423775,17.8032890460503
0.0175551012342031,17.8085758433446
0.0199858425395051,17.8151181344399
0.0216436579240731,17.8191510142065
0.0233700534027715,17.8231838939731
0.0248680436339356,17.8267098287675
0.0261293774144366,17.8298706792608
0.0271832491658253,17.8328690557045
0.0280006789010039,17.8357553357754
0.0285505057649148,17.8385318338889
0.0288291023811884,17.8413186146952
0.0288013191690481,17.8442769587143
0.0283385079708399,17.8477810058051
0.0275473848436096,17.8509670726943
0.0264613482489713,17.8541531395835
0.0253765395944093,17.8568161299594
0.0243048823999524,17.8591993736382
0.0232330727461082,17.8614470471376
0.0221603400639451,17.8636211918886
0.0210896685397179,17.8657549587616
0.0200247431589064,17.8678695496882
0.0189692176690486,17.8699800970598
0.0179265171813793,17.8720982425855
0.0168997881551753,17.8742334813469
0.015891894394494,17.8763939424178
0.0149054272665041,17.8785868817874
0.0139427162002044,17.8808190242576
0.0130058433254019,17.8830968051738
0.0120966533996842,17.8854265669832
0.0112167616280681,17.8878147292962
0.0103675699580757,17.8902679188744
0.00955026859156378,17.8927931334395
0.00876013005381067,17.8954176049568
0.00798136545549034,17.8982165674367
0.00721777166862565,17.9012099557316
0.00647314313681928,17.904421668462
0.00575150963714742,17.9078793420411
0.00505710686688505,17.9116150474017
0.00439431908968116,17.9156661778716
0.00376758348309193,17.9200766481021
0.00318121584721607,17.9248989058221
0.00263915642961051,17.9301975234892
0.00214465822210058,17.9360557856535
0.00170009195978117,17.9425859285107
0.00132176722299321,17.949630240654
0.00106715422994055,17.9555947351783
0.000872476687288379,17.9615592297025
0.000667998908118242,17.9699273464185
0.000507220094095704,17.9789920067648
0.000383298029651333,17.9887594044592
0.000294754973000766,17.9987594044592
0.000234010548698581,18.0087594044592
0.000192960075046291,18.0187594044592
0.000165697107830704,18.0287594044592
0.000148028129938339,18.0387594044592
0.000137060479134706,18.0487594044592
0.000130832752844672,18.0587594044592
0.000128021626929622,18.0687594044592
0.000127734710824182,18.0787594044592
0.000129373801657598,18.0887594044592
0.000132546202448047,18.0987594044592
0.000137006277155321,18.1087594044592
0.000142616122373707,18.1187594044592
0.000149319107418445,18.1287594044592
0.000157122711883457,18.1387594044592
0.000166088433681041,18.1487594044592
0.000176327318388598,18.1587594044592
0.000188000260242542,18.1687594044592
0.000201322784194935,18.1787594044592
0.000216574591490643,18.1887594044593
0.000234114801217633,18.1987594044593
0.000254404655614374,18.2087594044593
0.000278040657175611,18.2187594044593
0.000305802971055774,18.2287594044593
0.000338726983405817,18.2387594044593
0.000378211124917124,18.2487594044593
0.000426183315621461,18.2587594044593
0.000482794159829483,18.2683617786368
0.00054732668958662,18.2772361848624
0.000620719449620257,18.2854250368308
0.000704155815418818,18.2929814192684
0.000798999811801272,18.2999551076033
0.00090680219274925,18.3063923150194
0.00102932016606488,18.312335951998
0.00116854338097338,18.3178258719163
0.00132672519872748,18.3228990847387
0.00150641747971073,18.3275899611085
0.00171051249874078,18.3319304321456
0.00194229141687439,18.3359501830014
0.00220548411238408,18.3396768324394
0.00250434029913639,18.3431361099097
0.00284372068698464,18.3463520405158
0.00322921252544878,18.3493471376557
0.0036672805136003,18.3521426060322
0.00416547153087361,18.3547585748939
0.00473269958395663,18.357214380521
0.00537965928247677,18.3595289281291
0.00610796755997013,18.3616901099524
0.00691273163397882,18.3636846996065
0.00780480629351931,18.3655469042705
0.00880062102193676,18.3673113105101
0.00992643734597706,18.3690162511041
0.0112307600999637,18.370714627162
0.0128843467637692,18.3725687181665
0.0154202410503895,18.3749975506789
0.0169967683659203,18.3763556504089
0.0186434034118745,18.3777137501389
0.0201422734427668,18.3789415847334
0.0214853961171522,18.3800790979341
0.0226877443428721,18.3811788472945
0.0237425039753787,18.3822801181833
0.0246259347621467,18.3834235063884
0.0252920431809758,18.3846687411221
0.025640636555013,18.3861479863288
0.0252563721776842,18.3884219553415
0.0244855761626558,18.3898955969151
0.0234058643285957,18.3913692384887
0.022180525555218,18.392762700484
0.0208114850087761,18.3941712115733
0.0193078812842966,18.3956401272061
0.0176776144527219,18.3972067404712
0.0170754195298476,18.3977877780777
0.0164828952409943,18.3983688156842
0.0139510218996905,18.4010469081849
0.0114274168598477,18.4041336469132
0.00947399628669407,18.4069399111279
0.00793789769944446,18.4095162778116
0.00665919130949942,18.4120098847179
0.0055421833343218,18.4145480568803
0.00461921244341516,18.4169941997693
0.00385706515105149,18.4193392339492
0.00321631234126598,18.4216173165848
0.00266462578083886,18.4238775318861
0.00217182755610644,18.426206206137
0.00169485288517507,18.4288317649443
0.00135633706434645,18.4309889687317
0.00105901934737985,18.4331461725191
0.000835269270537342,18.4349733614626
0.000653974562222215,18.4366113224861
0.00049302592369889,18.4382067530411
0.00034093088888487,18.4398589548319
0.000187678602300437,18.4416922113038
1.58466899701142e-05,18.4439905985061
-0.00025370034564382,18.4482669735495
-0.000456725850182747,18.4522441641234
-0.000603002821169548,18.455697154469
-0.000734547528267313,18.4594163179364
-0.000870959546237983,18.464255546318
-0.000980501629931265,18.4697291807651
-0.00103180079159753,18.4745413353495
-0.00103011703061953,18.478901099326
-0.000973036640620172,18.4828297663704
-0.000856732535349262,18.4863739836227
-0.000676405227735583,18.4895834605205
-0.000426457302917993,18.492508352112
-9.92526823296937e-05,18.4952054564145
0.000316422822037129,18.4977340164663
0.000838789987406863,18.5001607876127
0.00149998374550632,18.5025690358886
0.00237139397996897,18.5051048113071
0.00361257668691467,18.5080198203655
0.00519522981240964,18.5110736556472
0.0065910335930917,18.5133809552492
0.00818452667067599,18.5156882548511
0.00970038231202441,18.5176095842484
0.0112756210073575,18.5193627269597
0.012919221734964,18.5209640486511
0.0147124842798613,18.5224876841049
0.0166980928382586,18.5239516606394
0.0188874469287491,18.52534733278
0.0213337459547219,18.5266926657986
0.024063198102921,18.5279853812288
0.0271202487320103,18.5292312606224
0.0305466810623134,18.530432371432
0.0343849468346313,18.5315897202902
0.0386934778816251,18.5327075591062
0.0435351046003417,18.5337888037636
0.0489832511116615,18.534836563302
0.0551233376309923,18.5358539362162
0.062059923999503,18.5368446665918
0.0699189183901909,18.5378126654024
0.0788532365115829,18.5387620538688
0.0890523772976631,18.5396974117514
0.100755458554715,18.5406239787903
0.114270059953135,18.5415479075272
0.130006017848877,18.5424769422031
0.148526979405263,18.543421154622
0.170552117645267,18.5443906841364
0.196045595871181,18.5453625244586
0.225661693402862,18.5463463950553
0.260272741200021,18.5473561824922
0.301171807641066,18.5484152134285
0.349443263922239,18.549544961303
0.390582952285135,18.5504524376373
0.42459312165287,18.5511957947577
0.454058791457703,18.5518615511963
0.479818143354322,18.5524903860964
0.501938552115957,18.5531076397624
0.520032634223293,18.5537359140446
0.533176277671154,18.5544027694765
0.539375593610466,18.5551546497038
0.535240146601703,18.5559506752781
0.519249405729772,18.556773686429
0.489898659134147,18.5576402287867
0.445235461133105,18.5585621551079
0.38359449650473,18.5595409072346
0.338494385784644,18.5601508606296
0.289186467518221,18.5607608140247
0.245405266023688,18.5612743713657
0.207840529059495,18.5617067891467
0.174816263567976,18.5620892682225
0.14522917365888,18.5624407386692
0.118405955807095,18.5627730192845
0.0938787153017111,18.5630948124932
0.0712598133991253,18.5634140456534
0.0501331215247849,18.5637403611121
0.029810720583837,18.5640914934363
0.00773448636667067,18.5645360429264
-0.00109887536951185,18.5647410345103
-0.00912166090902329,18.5649460260943
-0.0155856353626557,18.5651277349393
-0.0216079631929207,18.5653138502867
-0.027640280244345,18.5655209783504
-0.0334430348982673,18.5657457030526
-0.0388653763610554,18.5659860212648
-0.0438239461939283,18.5662412719253
-0.0482757805217007,18.5665116897978
-0.052202296921181,18.5667981594913
-0.0555959105070415,18.5671021000492
-0.0585586051835945,18.5674392496061
-0.0608492327684976,18.567782465236
-0.0626359098012928,18.5681501743699
-0.0639347272808228,18.5685462820115
-0.0647594606503944,18.5689753818263
-0.0651215039377063,18.5694432150408
-0.0650281447897156,18.5699570754276
-0.0644801374060313,18.5705265876986
-0.0634658850226424,18.571165902096
-0.0619575261931159,18.5718937189949
-0.0598983873954311,18.5727387240479
-0.0571687944854755,18.5737516371408
-0.0534478754413556,18.5750537714718
-0.0493594141468235,18.5764497606759
-0.0454076960569207,18.5778011282433
-0.0416398019248875,18.5791121757536
-0.0380788208156053,18.5803849928619
-0.0347366089986283,18.5816203026648
-0.0316183270471107,18.5828181393871
-0.028724509989573,18.5839782098131
-0.0260522101252172,18.5851000835073
-0.0235957648579015,18.5861832904398
-0.0213474004560927,18.5872273662535
-0.0192977518187763,18.588231866185
-0.0174363260060877,18.5891963589779
-0.0157519168395576,18.590120407038
-0.0141741301949431,18.5910388345008
-0.0126556023670646,18.5919807772081
-0.0112008518731761,18.5929478017113
-0.00981381210875915,18.5939420176686
-0.00849822034051584,18.5949659004648
-0.00725756442934517,18.5960223837173
-0.00609503051412578,18.5971149786482
-0.00501344828895924,18.5982479348534
-0.0040152337386948,18.5994264618726
-0.00310232872491054,18.6006570429614
-0.00227613605193178,18.6019478940042
-0.00153744727979273,18.6033096613482
-0.00088635796727091,18.6047565351159
-0.000322159662473505,18.606308136765
0.000143151025142176,18.6079380911465
0.000509056889098393,18.6096153553655
0.000791857573940189,18.6113582358156
0.00100616022036877,18.6131881683961
0.00116571025594786,18.6151338520949
0.00128382595877182,18.6172360868891
0.00137406281984957,18.6195579209073
0.00145152227911056,18.6222097000084
0.00153666088932973,18.6254321560443
0.00164617753326591,18.6291713744991
0.00178700773556892,18.6331800085717
0.00198001488850821,18.6378528903385
0.002170649492439,18.6420190378172
0.00235863786558187,18.6459236521287
0.00254618842481137,18.6497243671496
0.00273498572800487,18.6535033089147
0.00292689460454892,18.6573136673555
0.00312408403285832,18.661195694836
0.00332901228231746,18.6651834365961
0.00354438979448094,18.6693080472141
0.0037731826137846,18.6736001205311
0.00401864667078726,18.6780911397596
0.00428444959371115,18.6828148484374
0.00457493616837466,18.6878086659741
0.0048956039463296,18.6931148814332
0.00523955502697251,18.6985576540592
0.00559257095524277,18.7038653964813
0.00596135025724126,18.7091035298585
0.00634707663944493,18.7142439270199
0.0067542414528597,18.7193019378674
0.00718704246501599,18.7242831520284
0.00765030944770862,18.729195527765
0.00814912370539432,18.7340437067179
0.00868898950455319,18.7388302459391
0.00927589481193284,18.7435555030582
0.00991643666530931,18.748218221091
0.010619308621273,18.7528246299108
0.0114097660097116,18.7574645462061
0.0123021238744275,18.7621275209949
0.0133190219716462,18.7668304606335
0.0144922777572305,18.7716062407443
0.0158747808451945,18.7765341770245
0.017579040856422,18.7818281332472
0.0200271656310628,18.7884046450461
0.0216791914309947,18.7924178755848
0.023397782350397,18.7964311061236
0.0248908694540137,18.7999475750491
0.0261485964767761,18.8031042568484
0.0271990323447705,18.8061011918264
0.0280119387154356,18.8089846706179
0.0285573552000882,18.8117603052961
0.0288312817218732,18.8145484057751
0.0287977954123872,18.8175116103889
0.0283250331312424,18.8210320980211
0.0275316920159001,18.8242022562893
0.0264474120871096,18.8273724145575
0.0253633149458215,18.8300293964677
0.0242917361895395,18.832410284584
0.0232199084230206,18.8346567685445
0.0221471808058946,18.8368302532671
0.0210765576706503,18.8389636744291
0.0200117263412233,18.8410781344386
0.0189563384563043,18.8431887110108
0.0179138158528159,18.8453070130428
0.016887301520372,18.8474425149101
0.0158796558248735,18.8496033324839
0.0148934668762926,18.8517967133801
0.0139310609926256,18.8540293775195
0.0129945172671594,18.8563077581729
0.0120856777038333,18.8586381974948
0.0112061547558816,18.8610271169679
0.0103573476843568,18.8634811471418
0.00954044428627838,18.8660072908188
0.00875042544480546,18.8686338047505
0.00797182679374299,18.8714350364471
0.00720844429347592,18.8744309688207
0.00646407545561099,18.8776455426743
0.00574275281198865,18.8811064446125
0.00504871420739285,18.8848458058906
0.00438634529424894,18.8889010919261
0.00376008305538262,18.8933163077031
0.00317424030692047,18.8981440246091
0.00263275078893611,18.9034489976247
0.00213885712008415,18.909314800992
0.00169491935050211,18.9158541021134
0.00131741762331487,18.9229049685543
0.00106136592965787,18.9289285987337
0.000866444045903921,18.934952228913
0.000663169546413611,18.9433439758105
0.000502456960137309,18.9524923919409
0.000379695618097872,18.9622841045654
0.000292268997724319,18.9722841045654
0.000232317421930823,18.9822841045654
0.000191825173275242,18.9922841045654
0.000164951795869234,19.0022841045654
0.000147554414022616,19.0122841045654
0.000136777635504287,19.0222841045654
0.00013068615255497,19.0322841045654
0.000127974398095215,19.0422841045654
0.000127762041771772,19.0522841045654
0.000129459209063903,19.0622841045654
0.000132679089300539,19.0722841045654
0.00013718030502265,19.0822841045654
0.000142828114760593,19.0922841045655
0.000149568323263426,19.1022841045655
0.000157410393052221,19.1122841045655
0.000166417564964411,19.1222841045655
0.000176702561524515,19.1322841045655
0.000188428043001346,19.1422841045655
0.00020181154457221,19.1522841045655
0.000217135197475035,19.1622841045655
0.000234761191312476,19.1722841045655
0.000255154779054077,19.1822841045655
0.000278917843445014,19.1922841045655
0.000306837939326266,19.2022841045655
0.000339960837994448,19.2122841045655
0.000379699918289868,19.2222841045655
0.000428005184967174,19.2322841045655
0.000484875381406855,19.2418610392157
0.00054969447134453,19.2507109769696
0.000623411374065266,19.2588772308503
0.000707215761038751,19.2664127876806
0.00080247785552556,19.2733672962235
0.000910755121000197,19.2797868516932
0.00103381228357817,19.2857142555719
0.00117364749488652,19.2911892601083
0.00133252377573031,19.2962487811697
0.00151300391846842,19.3009271022552
0.00171799272124817,19.3052560741313
0.00195078568157891,19.309265308033
0.00221512925660376,19.3129823548054
0.00251529252674589,19.3164328821913
0.00285615903233976,19.3196408601144
0.0032433434280813,19.3226287534987
0.00368334380073247,19.3254177259755
0.0041837486568459,19.3280278744957
0.00475352537522523,19.3304785138798
0.0054034392849333,19.3327885424252
0.00613422843228192,19.334943434279
0.00694177544282816,19.336932911264
0.00783709363634266,19.3387911847165
0.00883684971566532,19.3405528747278
0.00996778779499708,19.3422565743263
0.0112796225859044,19.3439560600673
0.0129507218134731,19.3458201636428
0.0149326530773047,19.3477408815882
0.0165631097769472,19.3491719342573
0.0182849760009374,19.3506029869264
0.019827457776229,19.3518641142054
0.0212028535537648,19.3530164036425
0.0224360579495404,19.3541208523632
0.0235246654356701,19.3552185671497
0.0244486658547777,19.3563486450634
0.0251681940945068,19.3575642992716
0.0256012279808014,19.3589716643345
0.0254608377212568,19.3609954737295
0.0248099980179772,19.3625311246488
0.0237879902895741,19.3640667755681
0.0226138832758736,19.3654707805697
0.0212935158870699,19.3668677182668
0.0198351467987644,19.3683116865388
0.0182479139606479,19.3698403775481
0.0172407654643367,19.3708094831422
0.0162551471903653,19.3717785887363
0.0150700614922694,19.3730026125
0.0126054483241927,19.3758122427906
0.0104080588717656,19.3787250003548
0.00868285783551992,19.3814006191661
0.00729933234150317,19.3838972787499
0.0061026352367241,19.3864077312497
0.00507732741444486,19.3889161936906
0.00423681211935792,19.3913104303912
0.00353719706340036,19.3936184493906
0.0029428263880057,19.3958804714146
0.00242327777943123,19.398158528329
0.00194573751973917,19.4005806536309
0.00143439691176786,19.403647818272
0.00116746495152979,19.4055087240447
0.000928541462516293,19.4073696298174
0.000732759956432996,19.4090622777593
0.000564360041702193,19.4106635928173
0.000409431826737673,19.4122777436403
0.000258112362206836,19.4140085510734
9.8177337229218e-05,19.4160358286143
-0.000107882666272635,19.4190195805533
-0.000314670487158342,19.4225642951371
-0.000463315385097873,19.4255733072308
-0.000590397850053473,19.4285612200365
-0.000715318224072186,19.4320124449937
-0.000846360096413692,19.4364638676309
-0.0009675577916755,19.4421041225374
-0.00102717368307615,19.4469838823058
-0.00103407466790966,19.4514206211861
-0.000986037639063704,19.455413842476
-0.000879427813085155,19.4590169371655
-0.000709723912835838,19.4622748078062
-0.000471267631337481,19.4652419895292
-0.000156802058262635,19.4679730296732
0.000243986445651505,19.4705249588127
0.000748050384583819,19.4729639471589
0.00138776296691352,19.4753803819676
0.00221889111313749,19.4778814179308
0.00340011850587868,19.4807447332718
0.00492732348464481,19.4837772825162
0.00636006323879,19.4862023025637
0.00800530244044812,19.4886273226111
0.00956348435335507,19.4906305099275
0.0111033997463683,19.4923673281252
0.0127524691976432,19.4939969291057
0.0145236399445212,19.4955231616181
0.0164816558588551,19.4969883184785
0.0186473635631984,19.4983901410852
0.021065996506656,19.4997408727818
0.0237647157377334,19.5010389277484
0.0267874439494195,19.5022900118746
0.0301740471858945,19.5034956366407
0.0339682056935526,19.5046574532571
0.0382267512753871,19.5057794257028
0.0430113370377413,19.506864418337
0.048393233769518,19.5079153611777
0.0544574026686304,19.5089355761562
0.0613072470540127,19.5099288909202
0.0690655583690625,19.5108990701919
0.0778820389367324,19.5118501953484
0.0879419360731493,19.5127867932485
0.0994775616537547,19.5137139502622
0.112789646219515,19.5146378217027
0.128275194882371,19.5155659218959
0.146478472804382,19.5165080163577
0.168184898796167,19.5174777653732
0.193302196348676,19.5184489875314
0.222467782938229,19.5194311035917
0.256526649080113,19.5204374512304
0.296711229834039,19.5214899196626
0.344457844154266,19.5226172063212
0.386541216507237,19.5235490561583
0.421154741113766,19.5243047449177
0.451051840673201,19.5249764632588
0.477200706823269,19.5256079463745
0.499726655392625,19.5262253757261
0.518290203355974,19.5268512832416
0.532039389233422,19.5275122448833
0.539151540324026,19.5282513746128
0.536270099233082,19.5290455477393
0.521668237342181,19.5298646452769
0.493899740416359,19.5307256436709
0.451051680820649,19.5316409568661
0.391000606741706,19.5326187657883
0.34519386310427,19.5332488645725
0.294742108997822,19.5338789633568
0.250023308481481,19.5344057203177
0.211832851661061,19.5348456606121
0.178360686411664,19.5352326566951
0.148424294505169,19.5355869515988
0.121314624399444,19.5359209296595
0.0965479304026199,19.5362435137183
0.0737324718077089,19.5365626140421
0.0524626083791363,19.5368874951264
0.0321074535024133,19.5372342741581
0.010615658121832,19.5376578750348
0.000434601911708124,19.5378888346933
-0.00691809933418821,19.5380724690975
-0.0136413666702748,19.5382561035016
-0.0195783428288391,19.538433870925
-0.0256356438440592,19.5386343105279
-0.0315364243088956,19.5388534476066
-0.0370980933250026,19.5390886725757
-0.0422183394517137,19.5393389342128
-0.0468429022678191,19.5396042032382
-0.0509463335859968,19.5398851646243
-0.0545201398474395,19.540183065628
-0.0577653515315953,19.5405246616302
-0.060211834486055,19.5408611879194
-0.0621487003418344,19.5412210865129
-0.0635933079666813,19.5416081785706
-0.0645598521309699,19.5420267695391
-0.0650606120511825,19.5424822185114
-0.0651043203339805,19.5429812969252
-0.0646941201324536,19.5435327367571
-0.0638226539172848,19.5441493192186
-0.0624677359438669,19.5448479833347
-0.0605834948423551,19.5456536608399
-0.0580756871517128,19.5466081612558
-0.0547167004782304,19.5478000756681
-0.050599043889869,19.5492125032288
-0.0465985570257313,19.5505769889435
-0.0427712353180439,19.5519000545769
-0.0391452942007535,19.5531844401281
-0.0357353482950242,19.5544311949398
-0.0325483161926224,19.5556405140998
-0.0295859987006093,19.5568121782035
-0.0268464202171029,19.5579457850146
-0.0243246790349635,19.5590408698182
-0.0220135888642527,19.5600969638113
-0.0199042197848235,19.5611136160692
-0.0179863775707568,19.5620903927292
-0.0162490330614259,19.5630268608889
-0.0146540224649021,19.5639382715654
-0.0131166652644657,19.5648728661682
-0.0116418426668603,19.5658319547091
-0.0102335372350096,19.5668175499292
-0.00889555290320805,19.5678320053754
-0.00763145981034843,19.5688781023436
-0.00644454274959503,19.5699591592347
-0.00533774718067425,19.5710791779037
-0.00431362278954145,19.5722430438455
-0.00337426414603947,19.5734568071855
-0.00252124737383658,19.5747280893302
-0.0017555606078829,19.5760666934484
-0.00107752391563523,19.5774855630236
-0.000486690121771426,19.5790023741814
1.26030079834138e-05,19.5806213595837
0.000406959535707972,19.5822820972495
0.000713530222387537,19.5840029341727
0.000947251218800336,19.5858036527124
0.00112209239993749,19.587710368161
0.00125144631300171,19.5897594481691
0.00134870137389618,19.5920055090131
0.00142826947619009,19.5945399846933
0.00150819442981256,19.5975462433272
0.00161287751266853,19.6012813016265
0.0017422546077443,19.6051632913092
0.00191788754167743,19.6095984345695
0.00210963674646951,19.6138986044177
0.0022981632759971,19.6178640813834
0.00248566860366354,19.6216871511105
0.00267387124803238,19.6254663861448
0.00286455201119959,19.629261789131
0.00305978110040283,19.6331167819606
0.00326192800900838,19.6370669437146
0.00347362304546678,19.6411440632846
0.00369774882041203,19.6453787428842
0.00393745969653343,19.6498020365476
0.00419626900240466,19.6544467956196
0.00447826325436105,19.6593491158197
0.00478849733994358,19.6645495660884
0.00513100230182758,19.6700519041185
0.00547892958031465,19.6753704237513
0.00584318640249969,19.6806423315468
0.00622293502912381,19.6858097272595
0.00662294102789874,19.6908939163801
0.00704711107611525,19.6958982356014
0.00750021596829787,19.7008318192184
0.00798721241414652,19.7056998917754
0.00851347469070422,19.710505796846
0.00908482217697321,19.7152505023646
0.00970764683277129,19.7199332085045
0.0103890372392876,19.7245519156989
0.0111504075551198,19.7291821138141
0.0120085151065115,19.7338365465164
0.0129832992493065,19.7385245582734
0.0141029017217652,19.7432718301561
0.0154114948929771,19.7481382323715
0.0169944812000086,19.7532763064639
0.0191011333803087,19.7592099488564
0.0209122052976433,19.763765972358
0.0228419713060305,19.7683219958597
0.0244434238019461,19.7720613197391
0.0257723472555656,19.7753094620574
0.0268880417304522,19.778340552366
0.0277872945209712,19.7812835152349
0.0284158480133626,19.7840811264491
0.0287764306773444,19.7868511204878
0.0288459932079387,19.7897359981456
0.0285390842119551,19.7930045419162
0.0275500126010504,19.7973259551543
0.0266622598181259,19.7999829561159
0.0256085262263172,19.8026399570775
0.0245392539151962,19.8050590560732
0.0234680567249462,19.8073288618294
0.0223953464424298,19.8095155608212
0.0213239223514641,19.8116560062156
0.0202574245422236,19.8137732918497
0.0191995408969646,19.8158835884961
0.0181537540195279,19.8179991572596
0.0171232724914466,19.8201298822873
0.0161110221135719,19.8222841402912
0.0151196524547325,19.8244693460249
0.0141515493571751,19.8266923166126
0.0132088490252662,19.8289595305264
0.0122934457833079,19.8312773394372
0.0114070062973068,19.8336521278515
0.0105509770392366,19.8360904686515
0.00972659465818303,19.8385992635549
0.00893439283443162,19.8411875916181
0.00815274288218675,19.8439464087465
0.00738545746003711,19.8468948059598
0.00663627524523137,19.8500559426258
0.00590917662788808,19.8534565706646
0.00520835647078247,19.857127707643
0.0045381727888652,19.861105480318
0.00390306197831059,19.8654322327101
0.00330738969595847,19.8701582588205
0.0027552009079816,19.8753450436997
0.00224992602744759,19.8810709752179
0.00179413420431799,19.8874408456495
0.00140094193270904,19.89437095704
0.00107146517152699,19.9018456416926
0.00085855879178903,19.9084061563938
0.000659043120497582,19.9167217762131
0.000498652172310954,19.9259265650936
0.000377049617751718,19.9357182391207
0.000290454115241836,19.9457182391207
0.000231084311166809,19.9557182391207
0.00019099788709887,19.9657182391207
0.000164407171564139,19.9757182391207
0.000147207351996651,19.9857182391207
0.000139236565366817,19.9928591195604
0.000133760964279664,20
