ecg,time
0.00122913513154465,15.000043836015
0.00139480501796981,15.0050273046821
0.00158269699836143,15.0096357366469
0.0017957908100278,15.0139006081102
0.00203746946117864,15.0178511808022
0.00231158281815309,15.0215146785923
0.00262252284783586,15.0249164673683
0.00297532039736875,15.0280802481853
0.00337577011536175,15.0310282549985
0.00383059235926743,15.0337814625812
0.00434765642308965,15.0363598337247
0.00493629460609381,15.038782621953
0.00560776167882689,15.0410687647506
0.00635698057694413,15.0431884885196
0.00718503328683896,15.0451502240151
0.00810410982644579,15.0469884078582
0.00913271094598538,15.0487382283528
0.010301399621475,15.0504406587745
0.011669865005997,15.0521571024212
0.0134798360650417,15.0541106943334
0.0152594793261512,15.0557981687639
0.0172091504794081,15.0574856431943
0.018911643629491,15.0588909956662
0.0203860836947328,15.0601065727697
0.0217047033786596,15.0612377830082
0.0228828231852385,15.0623376377998
0.0239110238800273,15.0634448680009
0.024762879907208,15.0646016534223
0.025387495568239,15.0658736262043
0.0256679069566519,15.0674185435796
0.0253382989166718,15.069245486924
0.0243936342880223,15.0710724302684
0.0232871050243901,15.0725490911813
0.0220465045099175,15.0739448692529
0.0206655948525419,15.0753604376219
0.0191524767486366,15.0768406197335
0.0175145052741066,15.0784230572575
0.0161188056124573,15.0798046850746
0.0148063174793772,15.0811863128917
0.0128571515105418,15.0834310821266
0.0111706192547677,15.0856142793134
0.00970324069777781,15.0877568088617
0.00839837088044363,15.0899145689002
0.00718716790867727,15.0922013276076
0.00603703855454244,15.0947159016406
0.00528524144731401,15.0966023286825
0.00461794448733808,15.0984887557244
0.0040960215251075,15.1001407829529
0.00365854345770698,15.1016748739035
0.00326405906481225,15.1032019862831
0.0028871594467778,15.1048176060577
0.00250140347445236,15.1066687430038
0.00204535216813483,15.1091930239572
0.00155316622528988,15.112491529558
0.00119657173475465,15.1154384438885
0.000910632616365704,15.1183224627871
0.000646224923676846,15.1216394663925
0.000385902106902993,15.125984242951
0.00019048644590358,15.1308285228357
7.73724347553416e-05,15.1359956346982
5.81898477213414e-05,15.1405728730238
0.000114261073020147,15.1447067498685
0.000238074830500006,15.1484259311675
0.00042667807757245,15.1517779261591
0.000680172918636124,15.1548120140348
0.00100106844306382,15.1575773700165
0.0013947703532804,15.1601251958179
0.0018705367127361,15.1625077972684
0.00244451796263058,15.1647840765083
0.00314688785156355,15.1670300855633
0.00403129290693303,15.1693423988288
0.00522035608569256,15.1719055210543
0.00680532343682501,15.1747435962727
0.00829106687465507,15.1770188028199
0.00999643541868591,15.1792940093671
0.0116476529189689,15.1812119976651
0.0132942472322784,15.1828836096533
0.0150560991980573,15.1844441120405
0.0169588378054035,15.1859073885916
0.0190634748837855,15.1873069417222
0.0214028429629339,15.1886472207159
0.0240223498365369,15.1899371311612
0.0269566064748034,15.1911772240224
0.0302547441364394,15.1923728505855
0.0339587553303146,15.1935245725375
0.0381256172495432,15.1946363010813
0.0428176663713531,15.1957110430076
0.0481056397207147,15.196751619173
0.054069521907227,15.1977605951078
0.0608102914383853,15.1987417845097
0.0684460824275175,15.1996987267611
0.0771191578578769,15.2006351431866
0.0870035699686348,15.2015550876257
0.0983139969811441,15.2024629649497
0.1113238611138,15.2033640087985
0.126384120279139,15.2042642787838
0.143958330052494,15.2051712017053
0.164681004486202,15.2060944186851
0.189174751221289,15.2070370074531
0.217525404331062,15.2079827742703
0.250454399318735,15.2089411908188
0.288941181428186,15.2099267252494
0.334546080212958,15.2109670410511
0.371763561628324,15.2117501103156
0.410549497717496,15.2125331795801
0.444908279624287,15.2132239056837
0.474922944374411,15.2138500299739
0.501235044093595,15.2144459140651
0.523880164069299,15.215036122627
0.542414627355678,15.2156442045988
0.555771160345557,15.2163019344743
0.56143354094777,15.2170665679385
0.555771663642762,15.2178464465288
0.537686354552713,15.2186622795466
0.505443448661208,15.2195319160509
0.45728372974148,15.2204593220467
0.395118505104867,15.2213975208507
0.347554651527918,15.2220149107302
0.295646192937394,15.2226323006097
0.249976936584628,15.2231481546793
0.211120942449934,15.2235794992142
0.17713997293153,15.2239595342529
0.146793166322603,15.2243080400478
0.119339181743527,15.2246371627292
0.0942709829552816,15.2249557549513
0.0711733034897088,15.2252718533368
0.0496027541434926,15.2255952784898
0.028820310064187,15.2259443904133
0.00593491889991028,15.226394174042
-0.00264013358240265,15.2265887743712
-0.0104523776024608,15.2267833747004
-0.0169230890267143,15.2269603255936
-0.0230216806718647,15.227143590345
-0.02913027243511,15.2273475498625
-0.0350064785623986,15.227568839561
-0.0404985325681404,15.2278055195821
-0.0455223386400711,15.2280569560046
-0.0500344480336696,15.2283233907195
-0.0540160389707934,15.2286057047801
-0.0574634354941921,15.228905307546
-0.0603761923655894,15.2292241042303
-0.0627848311027512,15.2295692324169
-0.0646263939967823,15.2299313782264
-0.0659746078684448,15.2303214809192
-0.0668441344023537,15.2307441790673
-0.0672467479440887,15.2312051725112
-0.0671900756992729,15.2317117112625
-0.0666752694678157,15.2322732634327
-0.0656909400030793,15.232903990248
-0.0642090295209963,15.2336225498396
-0.062172068020859,15.2344576237673
-0.0594581024798443,15.2354600848031
-0.05573799989341,15.236752431866
-0.0515874308591003,15.2381562252913
-0.047566373915058,15.2395159326825
-0.0437246984250861,15.2408359510689
-0.0400873287488986,15.2421182937498
-0.0366674434005843,15.2433636116472
-0.0334712966206512,15.2445718723643
-0.0305003703948793,15.2457427221738
-0.0277525351970059,15.246875676881
-0.0252228173352563,15.2479702201952
-0.0229040004801975,15.2490258498993
-0.0207871462451098,15.2500420928014
-0.0188620631989822,15.2510184997691
-0.0171177307108468,15.2519546270995
-0.015515330656468,15.2528660333332
-0.0139704063686028,15.25380063656
-0.0124878260582889,15.2547597495403
-0.0110715608936541,15.2557453849341
-0.00972540187305219,15.2567598967485
-0.00845290405219604,15.2578060673017
-0.00725733424814251,15.2588872166743
-0.00614161612199827,15.2600073492176
-0.00510827252692875,15.2611713539902
-0.00415936452249792,15.2623852861475
-0.00329642571521644,15.2636567742386
-0.0025203892556365,15.2649956317749
-0.00183150235531344,15.2664148177048
-0.00122921814018141,15.2679320323857
-0.000718026884399972,15.2695510381532
-0.000311621239235536,15.2712118783642
7.22857261338549e-06,15.2729328899543
0.000253542698703581,15.2747338721661
0.000441400676832244,15.276640967877
0.00058434510461905,15.2786905931763
0.000695985975168769,15.2809374565107
0.000791102584550846,15.2834731944903
0.000888480642012874,15.2864817563893
0.00101310959677747,15.2902164045444
0.00116120850844792,15.2940995398528
0.00134821060920019,15.2983776840666
0.0015629687169805,15.3028464690077
0.00182009264886365,15.307937816622
0.00207209993770407,15.3128399797082
0.00232748483024739,15.3178108670638
0.00255217616554919,15.3221946488426
0.00275646485043959,15.3261815908372
0.00295331462135014,15.3300070414457
0.00314919517273251,15.3337782773587
0.00334834501933359,15.3375582985218
0.00355415167160976,15.3413919286602
0.0037696897241283,15.3453153140185
0.00399799357607321,15.349360205571
0.00424227087118731,15.3535569161796
0.00450606270299357,15.3579359182053
0.00479343164882688,15.36252915487
0.00510924992385858,15.3673713700319
0.00545967335996911,15.3725013817222
0.00583863586688266,15.3777679976109
0.00623105075684988,15.3829173898693
0.00664424708089005,15.3880125256723
0.00707935934911853,15.3930232059083
0.00754125096068866,15.3979599594565
0.00803480720695811,15.4028260740536
0.00856579687459313,15.4076273110543
0.00914045617241086,15.4123667500025
0.00976559407935514,15.4170454384802
0.0104486810250561,15.4216627722107
0.0112136421692161,15.426307676282
0.0120754940431855,15.4309791466788
0.0130552293910575,15.4356908069992
0.0141820091507568,15.440470918875
0.0155023943096991,15.445385944037
0.0171089547823235,15.450607704892
0.0192921146612358,15.4567651790935
0.0210294999941932,15.4611634230631
0.0228648768721709,15.4655616670326
0.0244154617499864,15.4692616857848
0.0257086993080551,15.4725116503716
0.0267918383119039,15.4755603990852
0.0276542238977928,15.4785173029124
0.0282475509207614,15.481338625502
0.0285723045249053,15.4841439683482
0.0286015211215134,15.4870831453711
0.0282371742158353,15.4904576610452
0.0274593700145846,15.4938956102056
0.0263349478556626,15.497333559366
0.0252365646198013,15.5000929218859
0.0241612491689709,15.5025271542794
0.0230877269709988,15.5048133248107
0.0220136903028528,15.5070208052912
0.0209418499953393,15.5091851814613
0.0198758609078097,15.5113288484399
0.0188194013894563,15.5134676468034
0.0177759385588417,15.5156136878291
0.0167486675702123,15.5177767999243
0.0157405043186974,15.5199653577845
0.0147540904080516,15.5221868093517
0.013791819459506,15.5244480234613
0.0128558708099098,15.5267555474929
0.0119481316173572,15.529115808587
0.0110702551210887,15.5315352673338
0.0102236712536986,15.5340205781904
0.00940960075295949,15.5365787123656
0.00862839088176542,15.5392194570595
0.00785893988703068,15.5420350134169
0.00710508794199341,15.5450448778354
0.00637057804817479,15.5482727207816
0.00565937492889621,15.5517458457035
0.00497562808987244,15.5554958740947
0.00432361099504546,15.5595596038703
0.00370761605511753,15.563980227576
0.00313178469314652,15.5688093145353
0.00259986340610397,15.5741103421038
0.00211490951363054,15.5799651301863
0.00167914616100577,15.5864832159915
0.0013047834270348,15.5935824739701
0.000992210735915914,15.6012585488755
0.000738228834491561,15.6096351312109
0.000577637055824231,15.6171520909074
0.00043405942903668,15.6263623259038
0.000324540685837244,15.636272619139
0.000247436378321438,15.646272619139
0.000194236256511069,15.656272619139
0.000158075881922977,15.666272619139
0.000133930856912906,15.676272619139
0.000118177510915477,15.686272619139
0.000108281102623932,15.696272619139
0.000102509562430715,15.706272619139
9.96908745758728e-05,15.716272619139
9.9032566722473e-05,15.726272619139
9.99992348853468e-05,15.736272619139
0.000102232692905046,15.746272619139
0.00010549967064261,15.756272619139
0.000109656694755408,15.766272619139
0.00011462610395135,15.776272619139
0.000120379784990331,15.786272619139
0.000126928547987474,15.796272619139
0.000134315740444943,15.806272619139
0.000142614134962598,15.816272619139
0.000151925476364757,15.826272619139
0.000162382382660336,15.836272619139
0.00017415257635222,15.846272619139
0.000187445701710976,15.856272619139
0.000202523297862197,15.866272619139
0.000219712901285802,15.876272619139
0.00023942782351392,15.886272619139
0.000262195013961825,15.896272619139
0.00028869478067821,15.906272619139
0.000319818366229538,15.916272619139
0.000356753123205479,15.926272619139
0.000401111552803844,15.936272619139
0.000455132209924139,15.946272619139
0.000517008487926677,15.9555890693359
0.000587222894920209,15.9641870469703
0.000666835898190961,15.9721194399792
0.000757103986730085,15.9794385812429
0.000859463926113132,15.9861930896451
0.000975545784982094,15.9924280554953
0.00110719602492856,15.9981853214604
0.00125650588006247,16.0035037255471
0.00142584505956549,16.0084193081142
0.00161789821475313,16.0129655223185
0.00183571137280107,16.0171734427867
0.00208274406297651,16.0210719620701
0.00236293432119808,16.0246879653597
0.00268077791618975,16.02804651266
0.00304142854269668,16.0311710338634
0.00345082886587,16.0340835263336
0.00391588119823781,16.0368047679878
0.00444468333544233,16.0393545731394
0.00504686356050096,16.0417521067855
0.00573407440564709,16.0440163012956
0.00649650472244217,16.0461057865003
0.00733952016822233,16.0480432157458
0.00827625729960297,16.0498631540949
0.00932674397779996,16.0516012658124
0.0105248460408455,16.0533005781294
0.0119500877929327,16.0550415927925
0.0138911925841796,16.0570791328115
0.0155540552596141,16.0586231538723
0.0173529447896614,16.060167174933
0.0190191300848896,16.0615401998196
0.0204807614987919,16.0627467646806
0.0217898685614543,16.0638744030602
0.0229584536654416,16.0649735194679
0.0239758739815893,16.066082588026
0.0248144577513438,16.0672445795543
0.0254208852477491,16.0685280366799
0.0256692035422966,16.0701043193066
0.0253024706204159,16.0719076995848
0.0243438995232003,16.0737110798631
0.0232312334992823,16.0751793382763
0.0219836892072947,16.0765745457653
0.0205960721101944,16.0779923409044
0.0190766746621947,16.0794765868272
0.0174326300349256,16.0810650521574
0.015694211795941,16.082805152963
0.0142864985251532,16.0843236778688
0.0124084257582135,16.0865504736174
0.0107820005991459,16.0887200455281
0.00936099583941465,16.090859971823
0.00808776001237191,16.0930346559865
0.00688490022834395,16.0953882779952
0.00577181720761166,16.0979189864034
0.00508873785964619,16.0996974923353
0.00447848848089628,16.1014759982673
0.00398313396970195,16.1030849155869
0.00355890941664928,16.1046090046727
0.0031710517229445,16.1061475067603
0.00279533558060041,16.1078005592016
0.0024023559710969,16.1097445276472
0.00190117717348289,16.1126483453246
0.00142855303568237,16.1160167840601
0.00109306082570242,16.1189771809255
0.000814787940158467,16.1219942527953
0.000551942167548684,16.1256057830977
0.000312684852104866,16.1301021952766
0.000141200177588676,16.1351320974078
6.15206898047234e-05,16.1400913066691
6.76569950957376e-05,16.1445245961116
0.000145984671260665,16.1485204622293
0.000290697377262772,16.152117263168
0.000499956751603824,16.1553626773525
0.000774739188413212,16.1583065659655
0.001118224763203,16.1609968634127
0.00153683276516771,16.1634853200418
0.00204164161484658,16.1658263641154
0.0026518105105169,16.1680815398178
0.0034042023599969,16.170335129092
0.00436659335963766,16.1727001448432
0.00570157202481419,16.1754067925568
0.00740037188859727,16.1782752837315
0.00882147112866449,16.1803442017692
0.0104366485906071,16.1824131198068
0.0120717219224178,16.1842459646065
0.0137310707250229,16.1858725222524
0.0155273784425438,16.1874075577683
0.0174728334051815,16.1888495739998
0.0196355507037837,16.1902345310477
0.0220392959589756,16.191559843821
0.0247351484054769,16.1928369363496
0.0277560410186214,16.1940649552248
0.0311512159569076,16.1952488067685
0.0349701147317634,16.1963910208893
0.0392632159958148,16.197492908845
0.0440975470312169,16.1985583728306
0.0495475921947555,16.1995905062423
0.0556999851083207,16.2005924111173
0.0626561620647432,16.2015672069654
0.0705397468042494,16.20251852964
0.0795012964948888,16.2034503256776
0.0897244024359364,16.2043667496451
0.10143775032911,16.2052724451521
0.114931224428703,16.2061727462202
0.130579368313447,16.2070739459629
0.148883021778585,16.2079839891365
0.170534562784156,16.2089133025564
0.195943445987156,16.2098559764868
0.225374315395766,16.210803934063
0.259600227441693,16.211767569425
0.29969996787902,16.2127634853623
0.3475114893349,16.2138259217242
0.383561574193674,16.2145715420821
0.420693147162533,16.21531716244
0.453690456615203,16.2159846634045
0.482631855829194,16.2165994544257
0.507934963873286,16.2171914901993
0.529495060230114,16.2177841973614
0.546724615199109,16.2184023100296
0.558290079060731,16.2190826626878
0.561062616244705,16.2198491866449
0.552281661988633,16.2206365560321
0.530686046767951,16.2214649093661
0.494378064091718,16.2223510169187
0.442407344129806,16.2232834454587
0.377878319289993,16.2242094657676
0.332099794162251,16.2247843246541
0.282870306455835,16.2253591835407
0.239357480697071,16.225847056567
0.2019399012955,16.2262623810472
0.16899149784506,16.2266327832432
0.139450398800989,16.2269753095877
0.112655708414882,16.2273009383037
0.0881351620137554,16.2276181034792
0.0654792227831175,16.2279349973648
0.0442078706873218,16.2282626253917
0.0233813757316931,16.2286247658093
0.00740181105612683,16.2289434885386
-0.00157387591642298,16.2291445159211
-0.00973125703429227,16.2293455433036
-0.0163088977042601,16.2295237614867
-0.0223877292010825,16.2297046293848
-0.0285075814735531,16.2299066237143
-0.0344161172565047,16.2301262487438
-0.039952431666631,16.230361394675
-0.0450269308404194,16.2306113164444
-0.0495928684830605,16.2308761794451
-0.0536294069844311,16.2311568056857
-0.0571316263692525,16.2314545527446
-0.0600995790391409,16.2317712745456
-0.0625973851846064,16.2321195638964
-0.0644832628684863,16.2324795038909
-0.0658740918213715,16.2328669839648
-0.0667850648792205,16.2332866184007
-0.0672282334924826,16.2337439933954
-0.0672116693728159,16.2342462017636
-0.0667372435209291,16.2348024529899
-0.0657948909560817,16.2354264755857
-0.0643583298225542,16.2361363859245
-0.0623735504999717,16.2369596820931
-0.0597270263597119,16.2379443297928
-0.0561228658451442,16.2392013310028
-0.0519637459009055,16.2406098315162
-0.0479281480915353,16.2419733752145
-0.0440687273866629,16.2432969318379
-0.0404119187671298,16.244582696589
-0.0369717165076793,16.2458314116403
-0.0337548989816324,16.2470430891539
-0.0307633298248728,16.2482173953206
-0.0279951756808859,16.2493538529379
-0.02544569752549,16.2504519462276
-0.0231078624083283,16.2515111707436
-0.0209728699282845,16.2525310506283
-0.019030625369414,16.2535111351672
-0.0172701677924127,16.2544509812427
-0.0156626289309088,16.255360279398
-0.014112073391922,16.2562926784746
-0.0126234822004312,16.2572494137651
-0.0112008406901503,16.2582324696392
-0.00984795939833836,16.2592441645749
-0.00856841768017421,16.2602872365764
-0.00736551166196718,16.2613649497816
-0.00624219957580125,16.262481236898
-0.00520104438063148,16.2636408936367
-0.00424415313024762,16.2648498509651
-0.00337311183578767,16.2661155679602
-0.00258891332389723,16.267447619482
-0.00189187325080152,16.2688586148528
-0.00128152474301753,16.2703657154029
-0.000759786800922622,16.2719816797504
-0.000344554789161734,16.2736378323416
-1.83159012515444e-05,16.2753525729824
0.000234052318493597,16.2771452414014
0.00042670152786189,16.2790412754232
0.000573202354895441,16.2810759010774
0.000687124257798805,16.2833016175269
0.000783065146593092,16.2858053034606
0.000879205709591669,16.2887575970495
0.00100301438317793,16.2924968089225
0.00114810744825934,16.2963474761792
0.00133315968410434,16.3006218787413
0.00154549669712674,16.3050655141743
0.00180014403144449,16.3101202024958
0.00205220119530149,16.3150259943722
0.00230682703227008,16.3199804929887
0.00253427438593238,16.3244175547109
0.00273964706451512,16.3284262045879
0.00293682980129395,16.3322602481951
0.00313261196054848,16.3360332740503
0.00333134769644856,16.3398106367921
0.00353646974512884,16.3436382160205
0.0037510670890934,16.3475526958483
0.00397816849368649,16.3515860661416
0.00422096070085446,16.3557686912495
0.00448295004981149,16.3601309764111
0.00476814576364134,16.364704688979
0.00508133612571142,16.3695242787397
0.00542854382037031,16.374628182467
0.0058067742486965,16.3799089003626
0.00619742684502165,16.3850604323506
0.00660899435229631,16.3901631080088
0.00704206755257865,16.3951800173399
0.00750155853235736,16.4001229603538
0.00799225530244091,16.4049946963131
0.00851988900318598,16.4098012081199
0.00909064903734635,16.4145457341732
0.00971129581150659,16.4192294999676
0.0103892379888792,16.4238519990897
0.0111467219173757,16.4284936830639
0.0119998459278755,16.4331627185615
0.0129688378164454,16.4378702560121
0.014081983040229,16.4426429190124
0.0153837679379815,16.4475424811296
0.016960577361072,16.4527265240635
0.0190682357382295,16.4587439540365
0.0208495190349396,16.4632941465122
0.0227426153721919,16.4678443389878
0.0243190432902304,16.4716003251668
0.025627850791141,16.4748719533348
0.0267248669148702,16.4779290547239
0.0276056608738998,16.4808996895782
0.0282165783909622,16.4837265282822
0.0285594998095441,16.4865288949994
0.0286099975376579,16.4894529626382
0.028278329529793,16.4927802399055
0.0272713523473288,16.4971182418823
0.0263761811090062,16.499794674874
0.0253187275605774,16.5024711078657
0.0242468799439659,16.5049125560696
0.0231737152485868,16.5072066473147
0.0220996729324926,16.5094187923411
0.0210275365956788,16.5115856423989
0.0199609500352875,16.5137302905557
0.0189036034554531,16.5158689677222
0.0178589843011778,16.5180140185366
0.0168303104692762,16.5201754171305
0.0158205201450444,16.5223616320487
0.0148322764911481,16.5245801706878
0.0138679895379367,16.5268379369341
0.0129298617597318,16.5291414967297
0.012019800688328,16.5314972802961
0.0111394779221578,16.5339117385817
0.0102903403742509,16.5363915069786
0.0094736258123064,16.5389435246193
0.00869036537295671,16.541575190656
0.00791983691615958,16.5443761076444
0.00716460100848644,16.5473696477752
0.00642839987480928,16.550579155322
0.0057151820846326,16.5540316193545
0.00502908405676783,16.557758289916
0.00437437260879376,16.5617955143239
0.00375534408959825,16.5661859162418
0.00317615953390045,16.5709802999006
0.00264061107266639,16.5762409712545
0.00215181447710284,16.5820480284977
0.0017120603947832,16.5885083901485
0.00133244740745717,16.5955656674894
0.00101516651636576,16.6031913970612
0.000755812627538485,16.6115063347479
0.000600907583850306,16.6184950387706
0.000449081612469319,16.6278113028242
0.000336905227623885,16.6375345573973
0.000256001100810119,16.6475345573973
0.000200097790132376,16.6575345573973
0.000162026391586929,16.6675345573973
0.000136544015340335,16.6775345573973
0.000119858543523704,16.6875345573973
0.000109309153841578,16.6975345573973
0.000103074298168403,16.7075345573973
9.99207699862351e-05,16.7175345573973
9.90146747857008e-05,16.7275345573973
9.97922569710427e-05,16.7375345573973
0.000101875534766303,16.7475345573973
0.00010501714861934,16.7575345573973
0.00010906342134804,16.7675345573973
0.000113929142501334,16.7775345573973
0.00011958042432532,16.7875345573973
0.000126023426457415,16.7975345573973
0.000133297477817207,16.8075345573973
0.000141471578266658,16.8175345573973
0.000150643621711855,16.8275345573973
0.000160941996347729,16.8375345573973
0.000172529502558971,16.8475345573973
0.000185609806635847,16.8575345573973
0.000200436955334828,16.8675345573973
0.000217328864480575,16.8775345573973
0.000236686239146661,16.8875345573973
0.000259019199440848,16.8975345573973
0.000284985167220424,16.9075345573973
0.000315443651521285,16.9175345573973
0.000351537064171063,16.9275345573973
0.000394812748690144,16.9375345573973
0.000447412252638131,16.9475345573973
0.000508217013431749,16.9569485504504
0.000577250380622995,16.9656402769088
0.000655528775411193,16.9736591982661
0.000744283388015446,16.9810580345699
0.00084492586557938,16.9878858994634
0.000959058887388777,16.9941883418253
0.00108849822314379,17.000007626949
0.00123530029939781,17.0053829856209
0.00140179537153301,17.0103508229687
0.00159062318475368,17.0149449287052
0.00180477838905939,17.0191966860391
0.00204766116658407,17.023135271246
0.00232314118059723,17.0267878297325
0.00263563367753197,17.0301796564228
0.00299019700826575,17.0333343893562
0.00339265893822288,17.0362742073367
0.00384978045187701,17.039020038936
0.00436948175331788,17.0415918115961
0.00496116094247361,17.0440087568322
0.00563616092920316,17.0462898085112
0.00638834372554178,17.0484025325968
0.00721974548455092,17.0503586172176
0.00814276273321842,17.0521925205689
0.00917622398102216,17.0539395204834
0.0103513916094014,17.0556410121177
0.0117317746996632,17.0573620558054
0.0135688109277594,17.0593324891719
0.0153209023961225,17.0609861345052
0.017234881855169,17.0626397798386
0.0189298780377088,17.0640384049103
0.0204021826044064,17.0652523659146
0.0217193156149279,17.0663829430567
0.0228959520783562,17.0674826317246
0.0239224695384939,17.0685901126442
0.02477224246155,17.0697476873862
0.0253939920554122,17.0710214416885
0.025669368945087,17.072571215398
0.0253336063884766,17.0743947428806
0.0243862714162785,17.0762182703633
0.0232785977866015,17.0776935416318
0.0220367715922942,17.0790891959777
0.0206546746297724,17.0805051191327
0.0191404334987202,17.0819859747937
0.0175013645359386,17.0835694258428
0.0157655915444955,17.0853022094637
0.0144578388338534,17.0867038172256
0.0125570027996358,17.0889356701346
0.0109107441507312,17.0911096357529
0.00947455371788856,17.0932500703503
0.00819121420138104,17.0954182284458
0.00698671168988733,17.0977466030693
0.00586117979566897,17.1002715755313
0.00515664606199929,17.1020826579009
0.00452845544875755,17.1038937402706
0.0040239306157266,17.1055171370142
0.00359505267712244,17.1070443480229
0.00320494121891176,17.1085779915713
0.00282903216580652,17.1102160321985
0.00243922235600001,17.1121225053231
0.00195821314134407,17.1148597931136
0.00147784441467236,17.1181993009377
0.00113499183601065,17.1211444064802
0.000854178587090209,17.1240980462321
0.000591075752062158,17.1275747712188
0.000342817827836774,17.1320049055501
0.00016094126212935,17.136953897281
6.71239957182714e-05,17.1420026457469
6.2373064113585e-05,17.1464986612703
0.000131058630823286,17.1505541474383
0.00026666205846843,17.1542038703981
0.000466868956382332,17.1574951771
0.000732276208406751,17.1604777503258
0.00106580964680029,17.1632003943836
0.00147342445846002,17.1657143821194
0.00196535665505722,17.1680730690188
0.00255946987138817,17.1703370645107
0.00328958579443498,17.1725868478584
0.00421642167151503,17.1749265598949
0.005483705354925,17.1775655619278
0.00713204680037072,17.1804215449576
0.00857837227614503,17.1825753632959
0.0102284921431736,17.1847291816343
0.0118682595647963,17.1865986041426
0.0135192951944698,17.1882444602813
0.0153009000344377,17.189793344754
0.0172249227490315,17.191244824512
0.0193613521458339,17.1926378004179
0.0217339050685682,17.1939700220587
0.0243937784543906,17.195253486554
0.0273722858520208,17.1964868721156
0.0307207508517364,17.1976762566893
0.0344865513167998,17.1988235721076
0.038718758719995,17.1999299796289
0.043484839276038,17.2009997957333
0.0488571556799747,17.202035893105
0.054920621133475,17.2030413516883
0.0617731091928506,17.2040190739667
0.069537914676979,17.2049730278147
0.0783611402282612,17.2059069814271
0.0884217501309395,17.2068250382878
0.099942288879653,17.2077317752661
0.113203081805907,17.2086323567475
0.128568532261462,17.2095330600292
0.146520950583603,17.2104415508575
0.167724347140268,17.2113678686433
0.192693383461163,17.2123104494258
0.221604721463255,17.2132572961063
0.255205999295417,17.2142183422666
0.294526180183452,17.2152091093765
0.34126047972087,17.2162604495404
0.377865783529888,17.2170235343231
0.415782460694477,17.2177866191059
0.449427533381326,17.2184648943888
0.478888446354727,17.2190849241771
0.504685704497618,17.2196786247086
0.526781626927563,17.2202698873654
0.544660829472814,17.2208827782823
0.557128275171098,17.2215514324559
0.561337820971171,17.2223168238461
0.554112533964761,17.223100306655
0.534272138310754,17.2239223097211
0.499999230028467,17.2248001508087
0.449935586468339,17.2257298774162
0.386448871824171,17.2266634996609
0.339791127879475,17.2272588114931
0.289258138185884,17.2278541233253
0.244689452394227,17.2283555728944
0.206560923306186,17.2287787371785
0.173098171290083,17.2291538790027
0.143153960500753,17.2294993477443
0.116028751268597,17.2298266805493
0.0912336988113431,17.2301445052066
0.0683573158949608,17.2304609138553
0.046940332970597,17.2307862558806
0.0261567276955596,17.2311412534924
0.00830839183772783,17.2314919309573
-0.00102674899708982,17.2316994611982
-0.00948751133240151,17.2319069914391
-0.0161098101427443,17.232085871796
-0.02218151397092,17.2322659483997
-0.0283044573991133,17.2324672910296
-0.0342232142580941,17.2326863669077
-0.0397737986052326,17.2329210092595
-0.0448647588689374,17.2331704357503
-0.0494482353888525,17.2334347862599
-0.053502711468038,17.2337148633206
-0.0570228465112928,17.2340120074466
-0.0600088517025902,17.2343280558972
-0.0625368168827421,17.2346774746305
-0.0644370450287185,17.2350367086441
-0.0658416579773252,17.2354233479276
-0.0667660324754166,17.2358420010304
-0.0672223067881333,17.2362982181545
-0.0672186924815074,17.2367990424141
-0.0667572741166011,17.2373536120609
-0.0658284182813475,17.2379755003652
-0.0644063951280704,17.238682664302
-0.0624382622518836,17.2395022372253
-0.0598130443165946,17.2404813046999
-0.0562445030573814,17.2417275296563
-0.0520827708169085,17.2431375541093
-0.0480426683648534,17.2445023108179
-0.0441776977180223,17.245826983003
-0.0405147875332938,17.2471138251111
-0.0370681960755911,17.24836360895
-0.0338448700875459,17.2495763611736
-0.0308467950340118,17.2507517544752
-0.0280722321286809,17.2518893139637
-0.0255165172316938,17.2529885240632
-0.02317267605129,17.254048879626
-0.0210319524199451,17.2550699039297
-0.0190842828363758,17.2560511457173
-0.0173187258146133,17.2569921619977
-0.015709568709859,17.2579007961043
-0.0141572386978912,17.2588325012054
-0.0126667526824554,17.2597884881492
-0.0112421003838633,17.2607707324743
-0.00988709842248768,17.2617815415706
-0.00860533373883809,17.2628236396228
-0.0074001116258763,17.2639002733367
-0.00627440114064429,17.2650153531169
-0.00523077780909036,17.2661736456496
-0.00427136310369759,17.2673810433424
-0.00339775946955763,17.2686449527433
-0.00261097844351426,17.2699748749004
-0.00191135712155337,17.2713833112972
-0.00129845364897859,17.272887257603
-0.0007733567724338,17.2745022883168
-0.00035531277665089,17.2761569905904
-2.67169576294224e-05,17.2778697890238
0.00022758588522271,17.2796598819278
0.000421770866038557,17.2815524913941
0.000569418454626203,17.2835824810256
0.000684087079327981,17.2858016818448
0.000780321562613645,17.288295549899
0.000876126521101348,17.2912308285203
0.000999727031490446,17.294972052614
0.0011439136568804,17.298812946011
0.00132837308310317,17.3030864662442
0.00153997627967534,17.3075227121563
0.00179314624874139,17.3125520989156
0.00204519348033657,17.3174587793413
0.00229957173772901,17.3224079720164
0.00252802678237442,17.3268645469109
0.0027337909372273,17.3308810272617
0.00293109665088572,17.3347181893813
0.0031268505089092,17.3384919338879
0.00332544835328251,17.3422684621263
0.00353033919940699,17.3460940308214
0.00374461733855148,17.3500055159034
0.0039713098599148,17.3540349940064
0.00421359648567202,17.3582128495008
0.00447497183358596,17.3625694668496
0.00475942714891093,17.367136555121
0.00507172259661957,17.3719484664514
0.00541783621795528,17.3770435083153
0.00579581228828285,17.3823290437176
0.00618585980068888,17.3874812941346
0.00659686860643324,17.3925865551562
0.00702924402421988,17.3976056123163
0.00748791424593888,17.402550696997
0.00797763341269869,17.4074243795989
0.00850411945707549,17.4122327164073
0.0090735456055853,17.4169789996462
0.00969265562915944,17.4216645168278
0.0103688371263587,17.426288796743
0.0111237651896791,17.4309293745063
0.0119739087959831,17.4355975897694
0.0129392365927743,17.4403037448602
0.0140477442353202,17.4450739306975
0.0153432376477533,17.4499683868798
0.0169101162693392,17.4551401259192
0.0189937245976422,17.4611138090985
0.0207908712982488,17.4657187077434
0.0227047351802633,17.4703236063882
0.0242896103934295,17.4740981825353
0.025603206431267,17.4773766736305
0.0267044201011785,17.4804364372454
0.0275907871011534,17.4834113456908
0.0282070099723152,17.4862399558561
0.0285553865101664,17.4890415457915
0.0286122297981506,17.4919612751606
0.0282901201458,17.4952751019586
0.0272917470087049,17.4996188838651
0.0263985636258671,17.5023026724234
0.0253412755700468,17.5049864609817
0.0242693744693367,17.5074322118213
0.0231962365727254,17.5097285963663
0.0221221891705039,17.5119420187348
0.0210499762879291,17.5141095503979
0.0199832348567145,17.5162544807494
0.0189256577380775,17.5183931465157
0.0178807375499195,17.5205379552839
0.0168516981267818,17.5226989203333
0.0158414834241717,17.5248845355534
0.0148527622526482,17.5271023243465
0.0138879494030764,17.5293592000794
0.0129492524514421,17.5316617338967
0.012038584795079,17.5340163568694
0.0111576227321326,17.5364295178848
0.0103078176727226,17.5389078473869
0.00949041182781448,17.5414582763332
0.0087064404465716,17.5440881931773
0.00793564006796357,17.5468853248826
0.00718005042959655,17.5498746542371
0.00644341611952171,17.5530794324225
0.0057296814613461,17.556526567509
0.00504297936420252,17.5602472140393
0.00438757478318214,17.5642776035338
0.00376776487674015,17.5686602139202
0.00318771573653397,17.5734456519867
0.00265122994982747,17.5786959359498
0.00216143971133438,17.5844907125776
0.00172065267388792,17.5909362372893
0.00133967273893861,17.5979827569318
0.00102116594144008,17.6055955882865
0.000760375773469192,17.6138947408461
0.000606880788785927,17.6207541069802
0.000453147521844309,17.6300821541112
0.000340364649158725,17.6397479127196
0.000258406261263707,17.6497479127196
0.000201747434071593,17.6597479127196
0.000163139486412809,17.6697479127196
0.000137281341543872,17.6797479127196
0.00012033440343975,17.6897479127196
0.000109602283237107,17.6997479127196
0.00010323802903191,17.7097479127196
9.99911236497247e-05,17.7197479127196
9.90160369987789e-05,17.7297479127196
9.97410931242723e-05,17.7397479127196
0.000101782791470463,17.7497479127196
0.000104889843713507,17.7597479127196
0.000108905726681115,17.7697479127196
0.000113743127146929,17.7797479127196
0.000119366554475972,17.7897479127196
0.000125780884437051,17.7997479127196
0.000133024344011985,17.8097479127196
0.00014116490593875,17.8197479127196
0.000150299422667087,17.8297479127196
0.000160555144739678,17.8397479127196
0.000172093554228514,17.8497479127196
0.000185116721261808,17.8597479127196
0.000199876696733282,17.8697479127196
0.000216688838450465,17.8797479127196
0.000235950505096434,17.8897479127196
0.000258167356486621,17.8997479127196
0.000283990758737118,17.9097479127196
0.000314271838645204,17.9197479127196
0.00035014115974377,17.9297479127196
0.000393128923709109,17.9397479127196
0.000445351218528562,17.9497479127196
0.000505869740709003,17.959188378423
0.000574587538356061,17.9679055499929
0.000652509364242381,17.9759479585121
0.000740859622147961,17.9833684288667
0.000841043238426804,17.990216208834
0.000954655575183882,17.9965369716416
0.00108350420196206,18.0023730971401
0.00122963625110209,18.0077639224827
0.00139537142844727,18.0127459516715
0.00158333749990169,18.0173530657013
0.00179651538582369,18.0216167314953
0.00203828945295543,18.0255662022656
0.00231251112748502,18.0292286940558
0.00262357420595008,18.032629565651
0.00297651168763943,18.0357925117405
0.00337712080204607,18.0387397606134
0.00383212505855264,18.0414922821449
0.00434939768004059,18.0440700351178
0.00493827601520154,18.0464922700856
0.00561002155554703,18.0487779229404
0.00635947325224443,18.050897009408
0.0071877872706612,18.0528582165846
0.00810716850259026,18.0546959798885
0.00913614075879447,18.0564454903941
0.0103053157586028,18.0581477467156
0.0116745136730619,18.0598642447223
0.0134863733926204,18.061818869329
0.0152642039808444,18.0635039423962
0.0172115094023218,18.0651890154634
0.0189135950324471,18.0665938649976
0.0203879822937067,18.0678092909022
0.0217065855387792,18.0689404161346
0.0228846849000214,18.0700402168748
0.0239128488085036,18.0711474197501
0.0247646389498562,18.0723042111633
0.0253891347776645,18.0735762503223
0.0256692835213157,18.0751214223579
0.0253393175754297,18.0769480971705
0.0243944846415287,18.0787747719831
0.0232878659944267,18.0802513047295
0.022047157763427,18.0816470423814
0.0206661298588228,18.0830626060858
0.0191528843560981,18.084542809013
0.0175147731185472,18.0861252950295
0.0161181293237634,18.0875078437243
0.0148048206454119,18.0888903924191
0.012855229544035,18.0911358487043
0.011168530886163,18.093319541135
0.00970125871881865,18.095462247476
0.00839681356931611,18.0976196425858
0.00718661218752707,18.0999047413823
0.00603655937726346,18.1024192734419
0.00528342553611761,18.104309359934
0.00461509810483037,18.1061994464261
0.00409303940557382,18.1078528279083
0.00365572693502038,18.1093872851335
0.00326153914234363,18.1109142022215
0.00288505541360028,18.1125289940894
0.00249992469016344,18.1143780479127
0.00204531537956889,18.1168948093412
0.00155311714342125,18.1201930892757
0.00119627286854358,18.1231418798173
0.000910432317931933,18.1260247148435
0.000646293125506889,18.1293373349591
0.00038584634051757,18.1336815024126
0.000190261284225745,18.1385251600739
7.68623845389475e-05,18.1436949107434
5.74428584701729e-05,18.1482741421519
0.000113283476967837,18.1524099153658
0.000236863683456607,18.1561308013664
0.00042522426398879,18.1594842980136
0.000678462696622316,18.1625196826295
0.000999079892885176,18.1652861086275
0.00139246701839023,18.1678347565572
0.00186785877940993,18.1702179123651
0.00244135431666856,18.1724944025798
0.00314302177491809,18.1747401347544
0.00402633760527982,18.1770515253215
0.00521329024674303,18.1796122079409
0.00679664652464874,18.1824495656298
0.00828369939495136,18.1847281121792
0.0099909204724624,18.1870066587286
0.0116427754554564,18.1889259020986
0.0132896965109387,18.1905982489249
0.0150511830063166,18.1921588176987
0.016953766604891,18.1936223752682
0.0190579116874728,18.1950220073489
0.0213968432627568,18.1963624487533
0.0240156641218736,18.1976524340025
0.0269492562825949,18.1988926553302
0.0302466167690798,18.2000883999123
0.0339496070844704,18.2012401943543
0.0381154235654589,18.2023520242138
0.0428062811115216,18.2034268613773
0.0480928906796592,18.2044675254819
0.054055141038135,18.2054765707718
0.0607940856181188,18.2064578304632
0.0684277696914173,18.2074148356732
0.0770983964999403,18.2083513070852
0.0869799438034106,18.2092712979887
0.0982869633277969,18.2101792102629
0.111292787261738,18.2110802800583
0.126348175095401,18.2119805639922
0.143916420512623,18.212887486344
0.164631639259726,18.2138106840074
0.189117760292664,18.2147532943198
0.217459469631845,18.2156990691781
0.250377843871659,18.2166574750379
0.288851663729586,18.2176429671577
0.334439484714897,18.218683168628
0.371665066800437,18.2194665646953
0.410462813439501,18.2202499607626
0.444831250607383,18.2209409001492
0.474853171694058,18.2215671401192
0.501171896562573,18.2221630803378
0.523824062783252,18.2227532965763
0.542366995303481,18.2233613311926
0.555735171314992,18.2240189258566
0.56141753128785,18.2247835689145
0.555777343402918,18.2255634133809
0.537716595517263,18.2263791713625
0.505502413070774,18.2272486976792
0.457366640068741,18.2281761313015
0.395220597549491,18.2291143902651
0.347646876886593,18.2297320652403
0.295722384093286,18.2303497402156
0.250040238699381,18.2308657803598
0.211175827850245,18.2312972313601
0.177188934737408,18.2316773309764
0.146837558373869,18.2320258778136
0.119379856946345,18.2323550258044
0.0943085816637198,18.2326736305354
0.0712084272703089,18.232989728102
0.0496361981556168,18.2333131329815
0.028853872770473,18.2336621783276
0.00598076731348534,18.2341115797295
-0.0026098625652718,18.2343064603506
-0.0104353933883947,18.2345013409718
-0.0169087054585979,18.2346783290518
-0.023006865516981,18.2348615433685
-0.0291156893633757,18.2350654617137
-0.0349925843639722,18.2352867168451
-0.0404855869187026,18.2355233651803
-0.0455104826297391,18.2357747703623
-0.050023751565688,18.2360411726028
-0.0540065283756758,18.2363234516578
-0.0574551101381082,18.236623015745
-0.0603690545223218,18.2369417689441
-0.0627793724465719,18.2372869298276
-0.0646219436378722,18.2376490260684
-0.0659711322831767,18.238039070027
-0.0668416088940129,18.2384616991443
-0.0672451542369616,18.2389226105526
-0.0671894059949037,18.2394290505111
-0.0666755355482418,18.2399904790037
-0.0656921821750585,18.2406210504785
-0.064211332005083,18.2413394081914
-0.0621756002785667,18.2421742046386
-0.0594632445940732,18.243176240233
-0.0557459887383756,18.2444677184199
-0.0515952398214268,18.2458716184963
-0.0475738636128916,18.2472314132073
-0.0437317967172147,18.2485515115195
-0.0400939978275468,18.249833931064
-0.0366736639203962,18.2510793249624
-0.0334770610145524,18.2522876619101
-0.0305056795978654,18.2534585886856
-0.0277573967001349,18.2545916212906
-0.0252272437868655,18.2556862434734
-0.0229080085376087,18.2567419529867
-0.0207907555610895,18.2577582765941
-0.0188652955103764,18.2587347651392
-0.0171206090208923,18.2596709749415
-0.0155180971459688,18.260582334574
-0.013973050316088,18.2615168890506
-0.0124903392251204,18.2624759494197
-0.0110739353619498,18.2634615277117
-0.00972763016444067,18.2644759771425
-0.00845497923385262,18.2655220790428
-0.0072592500445809,18.2666031522454
-0.0061433670325685,18.2677231995026
-0.00510985394986885,18.268887107787
-0.00416077288764731,18.2701009294762
-0.00329765862940597,18.2713722893235
-0.00252144566865285,18.2727109954862
-0.00183238276178359,18.2741299990527
-0.00122992484821854,18.27564698823
-0.000718506321035356,18.2772659254683
-0.000311911290498929,18.2789266606063
7.09612053462205e-06,18.2806475317155
0.000253538272546986,18.2824483276917
0.000441496227953115,18.2843551754697
0.000584513105562475,18.2864044641334
0.000696197840555902,18.2886508517335
0.000791325382526494,18.291185865422
0.000888667018745742,18.2941931432598
0.00101326830570593,18.2979278627714
0.00116129224745104,18.3018102547611
0.00134824613786253,18.3060883408001
0.00156296316477227,18.3105569182563
0.00182008112924838,18.3156484758695
0.00207208688532056,18.3205506825692
0.00232746780357661,18.3255214571708
0.00255217880790697,18.3299055690623
0.00275647690857877,18.3338926460452
0.00295333125221569,18.3377181488348
0.0031492135539622,18.3414893933329
0.00334836316544118,18.3452693943153
0.00355416801541118,18.3491029821537
0.00376970293019207,18.353026306476
0.00399800241543789,18.3570711196982
0.00424227413329565,18.3612677349436
0.00450605912242934,18.3656466240396
0.00479341981424993,18.370239728957
0.00510922812359513,18.3750817914621
0.00545963933457223,18.3802116269245
0.00583860446078591,18.3854782863167
0.00623101745825588,18.3906276604735
0.0066442138634509,18.3957228100938
0.0070793252060574,18.4007334989148
0.00754121524773832,18.4056702618628
0.00803476892092893,18.4105363834871
0.0085657550185531,18.4153376258734
0.00914040975681332,18.4200770691156
0.00976554214629732,18.4247557614803
0.0104486226159356,18.4293730990807
0.0112135746088712,18.4340179984795
0.0120754157677372,18.4386894650176
0.0130551380146032,18.443401119688
0.0141819012626807,18.4481812221032
0.0155022640200849,18.4530962283189
0.0171087886375052,18.4583179432735
0.0192918549742265,18.4644752422583
0.0210292893030211,18.4688736571139
0.0228647309321802,18.4732720719695
0.0244153466847618,18.4769721572047
0.0257086035292067,18.4802221483086
0.0267917598899059,18.4832709071895
0.027654168471107,18.4862278278475
0.0282475175299671,18.4890491569664
0.0285722939779098,18.491854495578
0.0286015374977901,18.4947936527262
0.0282372326323169,18.4981681060084
0.0274594337841052,18.5016061621006
0.0263349908409437,18.5050442181928
0.0252366022716133,18.507803606151
0.0241612861342996,18.5102378455775
0.0230877638491973,18.5125240191968
0.0220137270843036,18.5147315012698
0.0209418865874706,18.5168958781718
0.0198758972084489,18.5190395452908
0.0188194373018408,18.5211783433435
0.0177759739947123,18.5233243836885
0.0167487024513523,18.5254874947791
0.0157405385767073,18.5276760513357
0.0147541239840393,18.5298975013107
0.0137918522219734,18.5321587135364
0.0128559027089451,18.5344662353823
0.0119481626368206,18.536826493968
0.0110702852519637,18.5392459498506
0.0102237004919202,18.5417312574499
0.00940962910087613,18.5442893879209
0.00862841876737054,18.5469301269155
0.00785896719899475,18.5497456769335
0.00710511456854251,18.5527555342533
0.00637060386971166,18.5559833692284
0.00565939982007192,18.5594564851675
0.00497565192004729,18.5632065034047
0.00432363363110085,18.5672702216621
0.00370763736528616,18.5716908322497
0.0031318045541624,18.5765199041744
0.0025998817122766,18.5818209143332
0.00211492618504383,18.5876756819377
0.00167916114350431,18.5941937432196
0.00130479625217045,18.6012929827478
0.000992221646130434,18.6089690355565
0.000738235751680612,18.6173455909098
0.000577659685430276,18.6248615694322
0.00043407002281134,18.6340721540704
0.000324549732314417,18.643982215103
0.000247442092359499,18.653982215103
0.000194239604720749,18.663982215103
0.00015807756927425,18.673982215103
0.000133931407358685,18.683982215103
0.000118177303407222,18.693982215103
0.000108280402688765,18.703982215103
0.000102508553070787,18.713982215103
9.96896821026016e-05,18.723982215103
9.90312794524206e-05,18.733982215103
9.99979155812056e-05,18.743982215103
0.000102231386871451,18.753982215103
0.00010549841112659,18.763982215103
0.000109655506699567,18.773982215103
0.000114625006684621,18.783982215103
0.000120378794188338,18.793982215103
0.000126927677117699,18.803982215103
0.000134315001854683,18.813982215103
0.000142613540730904,18.823982215103
0.000151925039011166,18.833982215103
0.000162382115781892,18.843982215103
0.00017415249524654,18.853982215103
0.000187445824036655,18.863982215103
0.000202523644388047,18.873982215103
0.000219713496787225,18.883982215103
0.00023942869788911,18.893982215103
0.000262196203665042,18.903982215103
0.000288696330606933,18.913982215103
0.000319820332265385,18.923982215103
0.000356755575710477,18.933982215103
0.000401114581540854,18.943982215103
0.000455135931152853,18.953982215103
0.000517013102708242,18.9632986804146
0.000587228527612612,18.9718966706606
0.000666842682779817,18.9798290736279
0.000757112073581538,18.9871482226518
0.000859473484859439,18.9939027370222
0.000975557007219532,19.0001377073956
0.00110720912721837,19.0058949767382
0.00125652110741691,19.0112133833177
0.00142586268969285,19.01612896772
0.00161791856294481,19.0206751833014
0.00183573479813403,19.0248831048666
0.00208277097578663,19.0287816251299
0.00236296519251794,19.0323976294332
0.00268081328960778,19.0357561779241
0.0030414690498002,19.0388807006369
0.00345087524701867,19.0417931950827
0.0039159343307731,19.0445144393395
0.00444474427386446,19.0470642479079
0.00504693359598999,19.0494617860182
0.00573415515802144,19.0517259863499
0.00649659469024198,19.0538154709112
0.00733962102229004,19.0557529030544
0.00827637171928241,19.0575728486468
0.00932687641469551,19.0593109733679
0.010525004926048,19.0610103079487
0.0119503011097888,19.0627513734756
0.0138915551402707,19.0647890479004
0.015554270540015,19.0663329272823
0.0173529745543447,19.0678768066642
0.0190190940830094,19.0692498045958
0.0204806881699215,19.0704563682774
0.0217897634352438,19.0715840121748
0.0229583176246885,19.0726831378183
0.0239757060625704,19.0737922192503
0.0248142552167213,19.0749542287345
0.0254206419481964,19.0762377136059
0.0256689001254725,19.0778140552426
0.0253021116301812,19.0796174017442
0.0243435320893492,19.0814207482459
0.0232308657176281,19.0828890033409
0.0219833212664581,19.0842842174394
0.0205957070201614,19.0857020213057
0.0190763159532787,19.0871862767517
0.0174322811979874,19.0887747523103
0.0156938820298002,19.0905148644567
0.0142859389295586,19.0920336776265
0.012408042155957,19.0942603350401
0.0107817307412294,19.0964298127143
0.00936076653934244,19.0985697298382
0.00808748178996415,19.1007445600812
0.00688439240605301,19.1030987507712
0.00577136849522741,19.1056295050807
0.00508852974232187,19.1074074870403
0.00447847534914984,19.1091854689999
0.00398321701196969,19.1107940710224
0.00355900510903469,19.1123180932133
0.00317111196006681,19.1138567172634
0.00279531354190085,19.1155101384431
0.00240216424425587,19.1174550373173
0.00190033025117207,19.1203632909285
0.00142782241028082,19.1237322331955
0.00109243927233117,19.1266929592941
0.000814164811838737,19.1297116194154
0.000551259386806272,19.1333266491502
0.000312183858477223,19.1378243776071
0.000140918701191394,19.1428558506186
6.15373837941807e-05,19.1478129975044
6.79110085507112e-05,19.1522447889873
0.000146454000508099,19.1562392458777
0.000291374245829875,19.1598347988655
0.000500842229304416,19.1630791231387
0.000775842814919357,19.1660220961176
0.00111956167146682,19.1687116319944
0.00153842989613054,19.1711994966348
0.00204354688878838,19.1735401439111
0.00265410317025282,19.1757951381541
0.00340703924230935,19.1780488624269
0.00437032952690045,19.180414598331
0.00570707939754638,19.1831231267007
0.00740711073492037,19.1859919448626
0.00882761015882285,19.1880588811328
0.0104419640119025,19.1901258174031
0.0120769177545664,19.1919577866482
0.0137364617318986,19.1935838778267
0.0155331142584492,19.1951185701888
0.0174791038260254,19.1965603656579
0.0196424579987544,19.1979451219778
0.0220469811018402,19.1992702707235
0.024743722135837,19.2005472059963
0.0277656814744855,19.201775098429
0.0311620178830597,19.2029588129235
0.0349822349054045,19.2041008991834
0.0392768865248308,19.2052026823923
0.0441129256104641,19.2062680380116
0.0495649157321344,19.2073000722845
0.0557195350261423,19.2083018880496
0.0626783326827253,19.2092766132767
0.0705648976055834,19.2102278695843
0.0795299182034712,19.2111596108791
0.08975710264355,19.2120759930733
0.101475291118851,19.2129816614229
0.114974594523157,19.2138819532721
0.130629834978625,19.2147831637441
0.14894230741909,19.2156932437126
0.170605104816321,19.2166226296253
0.196025029874422,19.2175653041745
0.225468943432892,19.2185132875219
0.259710545712647,19.2194769854612
0.29982991186911,19.2204730288744
0.347668781143176,19.2215357473795
0.383705328470013,19.2222809424217
0.420817745278029,19.223026137464
0.453799176670676,19.2236933757905
0.482727648179141,19.2243080383365
0.508018326603217,19.2249000344867
0.52956482719427,19.2254927812887
0.546777740944989,19.2261110321737
0.558319769963663,19.226791696695
0.561055364663754,19.2275582523852
0.55223426251045,19.2283457241197
0.530593198076156,19.2291742428786
0.494232410597633,19.2300605647394
0.442212766036365,19.2309930587501
0.377660786261572,19.2319188398149
0.331904249791752,19.232493194561
0.282707087717141,19.233067549307
0.239220614777198,19.2335550847296
0.201820943232853,19.2339702124405
0.168885592429273,19.2343404949225
0.139354766156825,19.2346829468536
0.112568513700169,19.2350085327959
0.0880549704643099,19.2353256823112
0.0654046206234391,19.2356425908799
0.0441368346357731,19.2359702827264
0.0233085198206641,19.236332625982
0.007373584466742,19.2366505913879
-0.00159081192288644,19.2368514118046
-0.009738649170388,19.2370522322214
-0.0163149447292604,19.2372304297901
-0.0223939880396456,19.2374113208563
-0.0285137509505277,19.2376133342269
-0.0344219866425927,19.237832975251
-0.039957881152485,19.2380681358215
-0.0450318954241097,19.2383180719807
-0.0495973160138718,19.2385829498789
-0.0536333253753611,19.2388635921042
-0.0571350159042873,19.2391613567375
-0.0601024365773364,19.2394780982036
-0.0625993937600774,19.2398263600134
-0.0644848395967646,19.2401863211635
-0.0658752528999276,19.2405738263931
-0.0667858215319871,19.240993490253
-0.0672285943167727,19.2414509000413
-0.0672116387055544,19.2419531500946
-0.0667368191674182,19.242509452082
-0.0657940574906611,19.2431335392667
-0.0643570548296059,19.2438435329437
-0.0623717685556591,19.2446669424641
-0.0597245927246466,19.2456517608474
-0.056119332684321,19.246909094792
-0.0519602888736464,19.2483175495448
-0.0479248244895732,19.2496810567942
-0.0440655685145904,19.2510045799981
-0.0404089410925446,19.2522903125458
-0.0369689285778558,19.2535389956988
-0.0337523043071315,19.2547506411711
-0.0307609282827373,19.2559249149494
-0.0279929643372254,19.257061339756
-0.0254436712244799,19.2581593998021
-0.0231060142580909,19.2592185906592
-0.0209711917300532,19.2602384364935
-0.0190291080051566,19.2612184866046
-0.0172688015737611,19.26215829787
-0.0156613105137501,19.2630676157561
-0.0141108073930718,19.2640000354562
-0.0126222721721548,19.2649567929894
-0.0111996900532484,19.2659398729883
-0.00984687139169717,19.2669515942611
-0.00856739531602639,19.2679946952239
-0.00736455767880668,19.2690724405339
-0.00624131638887878,19.2701887635636
-0.00520023402990924,19.2713484608895
-0.00424341722498495,19.2725574646293
-0.00337245149413557,19.2738232354276
-0.00258832910445079,19.2751553503485
-0.00189136507026649,19.2765664219364
-0.00128109176795109,19.2780736164758
-0.000759452727102454,19.2796896087444
-0.000344303384343326,19.2813458046297
-1.8133640600212e-05,19.2830606032364
0.000234177993999323,19.2848533485204
0.000426782490534679,19.2867494847649
0.000573250199004701,19.2887842488613
0.000687150928581312,19.2910101600316
0.000783084213495585,19.2935141397914
0.000879236111423746,19.2964669441657
0.00100305246353569,19.3002061004404
0.00114817378243498,19.3040570614051
0.0013332446996625,19.3083314910374
0.00154560318707744,19.3127753226025
0.00180029090081589,19.3178306812674
0.00205234900327642,19.3227364540662
0.00230698151995717,19.3276910953176
0.00253440266933079,19.3321276539944
0.00273976491318109,19.3361361014536
0.00293694411711767,19.3399700649045
0.00313272661872025,19.3437430731937
0.0033314654781653,19.3475204590122
0.0035365929891258,19.3513480921643
0.00375119797255373,19.3552626517871
0.00397830921017954,19.3592961255163
0.00422111359372657,19.3634788772066
0.00448311772787758,19.3678413126783
0.00476833125535716,19.3724152008597
0.00508154313168116,19.3772349941563
0.00542877712766646,19.3823391327983
0.00580701208143294,19.3876197375797
0.00619767779962278,19.3927712595695
0.0066092569136158,19.3978738775215
0.00704234489373877,19.4028907396528
0.0075018533977355,19.4078336353748
0.00799257124464208,19.4127053287768
0.00852022985018188,19.417511801034
0.00909101895273721,19.4222562892674
0.00971169929658331,19.4269400174828
0.0103896799843639,19.4315624784252
0.0111472197716581,19.4362041867602
0.0120004089491291,19.4408732405021
0.0129694809575119,19.4455808084851
0.0140827276229185,19.4503535260894
0.0153846502822412,19.4552532007338
0.0169616778042392,19.4604375154457
0.0190698703100728,19.4664559217557
0.0208508128882356,19.471004937601
0.0227434626504981,19.4755539534463
0.0243197041055486,19.4793095307446
0.0256284041421667,19.4825810059241
0.0267253256651429,19.48563804801
0.0276059940495001,19.4886085871848
0.0282167919161916,19.4914353865256
0.0285595901757575,19.4942377714344
0.0286099444042708,19.4971619381216
0.0282780592749675,19.5004895229543
0.0272708875009348,19.5048273959974
0.0263756715117391,19.5075036630293
0.0253182143053569,19.5101799300611
0.0242463678683344,19.5126212812854
0.0231732025787077,19.5149153208042
0.0220991604084379,19.5171274370385
0.0210270258415919,19.5192942717811
0.0199604428271459,19.5214389136725
0.0189031015074827,19.5235775912353
0.0178584892094618,19.5257226476869
0.0168298236947333,19.527884056276
0.0158200430168719,19.5300702849776
0.0148318102099956,19.53228884083
0.0138675352291794,19.5345466275099
0.0129294203912034,19.5368502108476
0.0120193730983061,19.5392060210514
0.0111390648414548,19.5416205091276
0.0102899424322909,19.5441003105897
0.00947324353761417,19.5466523647686
0.00868999920104808,19.5492840710744
0.007919476974771,19.5520850743527
0.00716424915619612,19.5550787104815
0.0064280579177216,19.5582883258522
0.00571485192532369,19.5617409113821
0.00502876767719703,19.5654677192933
0.00437407203275022,19.5695050995456
0.00375506132174921,19.5738956791277
0.00317589646285848,19.5786902667773
0.00264036934799941,19.5839511750185
0.0021515953740919,19.5897585123491
0.00171186480295599,19.5962192123965
0.00133228288514369,19.6032767353393
0.00101502985205043,19.6109027593837
0.000755709264200596,19.6192180574666
0.000600766810818035,19.6262100143376
0.000448986304944788,19.635525975491
0.000336823979793529,19.6452506282187
0.00025594480814024,19.6552506282187
0.000200059386798984,19.6652506282187
0.000162000692889286,19.6752506282187
0.000136527209826492,19.6852506282187
0.00011984791959505,19.6952506282187
0.000109302843070879,19.7052506282187
0.000103071034789944,19.7152506282187
9.99196988823974e-05,19.7252506282187
9.9015216770412e-05,19.7352506282187
9.97940206380228e-05,19.7452506282187
0.000101878259547777,19.7552506282187
0.000105020667100514,19.7652506282187
0.000109067633597317,19.7752506282187
0.000113933998438114,19.7852506282187
0.000119585911847954,19.7952506282187
0.000126029563855113,19.8052506282187
0.000133304309429467,19.8152506282187
0.000141479172680292,19.8252506282187
0.000150652072069549,19.8352506282187
0.000160951422595543,19.8452506282187
0.000172540055694908,19.8552506282187
0.000185621675262262,19.8652506282187
0.000200450375101622,19.8752506282187
0.000217344131385985,19.8852506282187
0.000236703728215174,19.8952506282187
0.000259039391146847,19.9052506282187
0.000285008685382243,19.9152506282187
0.000315471318628113,19.9252506282187
0.000351569983915373,19.9352506282187
0.000394852432181289,19.9452506282187
0.000447460816990829,19.9552506282187
0.000508272215872651,19.9646639853841
0.000577312893093317,19.9733551011348
0.000655599547672211,19.9813734592141
0.000744363528326925,19.9887717770495
0.000825618907891366,19.9943858885247
0.000922275689798331,20
