ecg,time
0.00219296521527437,15.0031471589106
0.00174281080642818,15.0096065628105
0.00135767445632596,15.0165959515679
0.0011059571651838,15.0223132751964
0.000910118800103592,15.0280305988249
0.000698638152075437,15.0362645459061
0.00053509552962775,15.0449979071173
0.000404623278747519,15.0546489600781
0.000309947010183987,15.0646489600781
0.000244889457180039,15.0746489600781
0.000200835203249093,15.0846489600781
0.000171502461448163,15.0946489600781
0.000152415899632875,15.1046489600781
0.000140478828164832,15.1146489600781
0.000133588167047959,15.1246489600781
0.000130324550681915,15.1346489600781
0.000129730712078671,15.1446489600781
0.000131164249787117,15.1546489600781
0.000134202089094998,15.1646489600781
0.000138577692242679,15.1746489600781
0.000144138911680642,15.1846489600781
0.0001508196244478,15.1946489600781
0.0001586212511985,15.2046489600781
0.000167601761172538,15.2146489600781
0.000177870610590534,15.2246489600781
0.000189588694954208,15.2346489600781
0.000202972979439799,15.2446489600781
0.000218306068919113,15.2546489600781
0.000235951655498097,15.2646489600781
0.000256377648171037,15.2746489600781
0.000280190032249856,15.2846489600781
0.000308182438023051,15.2946489600781
0.00034140956751189,15.3046489600781
0.000381298048310345,15.3146489600781
0.000429817908870249,15.3246489600781
0.000486814068093308,15.3341999663113
0.000551779317716651,15.3430251073802
0.000625673230808081,15.3511685785081
0.0007096916637923,15.3586832347624
0.000805210832527468,15.3656185704414
0.00091379462540053,15.3720205406688
0.00103721490971337,15.3779318201332
0.00117747786153562,15.3833920454911
0.00133685554030488,15.3884380270541
0.00151792090594696,15.3931039521986
0.00172359030343953,15.3974215841714
0.001957172358117,15.4014204542608
0.00222242856529239,15.405128040324
0.00252364548174253,15.4085699441176
0.00286572710370028,15.4117700765048
0.00325431248717068,15.4147508500833
0.00369592931232184,15.4175333834433
0.00419820280198114,15.4201377367675
0.00477014721292223,15.4225831978646
0.00542258978067531,15.4248886508118
0.00615548386474582,15.4270374371567
0.00696540075212908,15.4290218706589
0.00786348776768871,15.4308761502069
0.00886661097307925,15.4326349059647
0.010001921308965,15.4343369303839
0.0113201594963257,15.4360367143711
0.0130063549031348,15.4379087406067
0.014961595288316,15.4397972921083
0.0165920303495188,15.4412258313661
0.0183128338316927,15.4426543706239
0.0198527989713551,15.4439128079198
0.0212262877880935,15.4450636444593
0.0224576902037885,15.4461674007756
0.0235442785441102,15.4472650245282
0.0244657758859275,15.4483956903397
0.0251819003278286,15.449613016301
0.0256094818588105,15.4510247072769
0.0254521204339274,15.4530705745163
0.0247916453690867,15.4545997939894
0.0237654833723559,15.4561290134626
0.022587484218725,15.4575315302283
0.0212632165774382,15.4589289086447
0.0198010912406353,15.4603743593311
0.0182101750343036,15.461905481623
0.0172017391891343,15.4628756567464
0.0162160411342205,15.4638458318698
0.0149182033545947,15.4651920795337
0.0124379538827949,15.4680445532392
0.0102741163658001,15.4709424410357
0.00857512093825395,15.4736037357268
0.00720988500975533,15.4760909416209
0.00602315652518018,15.4786041150509
0.0049896188886294,15.4811607534713
0.00414688881832414,15.4835945275501
0.00344984125688293,15.4859306289697
0.00286198287041567,15.4882059466269
0.00235330547195973,15.4904738607745
0.00189461736242439,15.4928332555
0.00143813029263883,15.4955768003554
0.00114496412394511,15.4976131777554
0.000885120947265839,15.4996495551553
0.000681024202346479,15.5014377434027
0.00051212335619125,15.5030697009752
0.000360553326139072,15.5046734493585
0.000215997908863331,15.5063473619478
6.86475988068999e-05,15.5082248496481
-0.000100718465358677,15.5106397835521
-0.000353419218100808,15.5148995194214
-0.000537531127229459,15.5186808483803
-0.000674047188969482,15.5220053072973
-0.000800967364542989,15.5256566719828
-0.000934558879667984,15.5303974489746
-0.00104769496319101,15.5359080052323
-0.0011034003378044,15.5407330884685
-0.00110684462131798,15.5451083929207
-0.00105497417597888,15.5490500136217
-0.000943594662841642,15.5526039704189
-0.000767557353808859,15.5558224653515
-0.000520990600539039,15.5587562008874
-0.000196334874328454,15.5614602764914
0.000217753666012035,15.5639956140791
0.000739417828197273,15.5664290457037
0.00140190668600924,15.5688482029739
0.00227858596090998,15.5714029581176
0.00352459611225222,15.5743326960754
0.00511372778311738,15.5774043517882
0.00650332157742841,15.5797079745907
0.00808721915483223,15.5820115973932
0.00960099941152547,15.5839411042118
0.0111635460178322,15.5856913398795
0.0128134015595322,15.5873100725103
0.0145971740151878,15.5888365368104
0.0165718970225923,15.5903038334791
0.0187502453825049,15.5917039686301
0.0211832120126651,15.5930534940141
0.0238972079449,15.5943503342831
0.026936297473522,15.5956002149032
0.0303416452663286,15.5968050739958
0.0341554291815244,15.5979659531746
0.038435715422033,15.5990871461658
0.0432446540078297,15.6001715349998
0.0486550391164681,15.6012222402631
0.0547509591774388,15.60224227763
0.0616371333973954,15.6032355868872
0.0694378013361053,15.6042059952835
0.0783043950517883,15.6051576259608
0.0884245604041141,15.6060950626037
0.100034951892261,15.6070235414425
0.11344020880855,15.607949230687
0.129046140332465,15.6088798836323
0.147411058895326,15.6098255920907
0.169261795525287,15.610797111751
0.194553395350047,15.611770858321
0.223935421804293,15.6127565788005
0.258273643347405,15.6137681635715
0.298847131189221,15.614828772653
0.346703440971128,15.6159589209911
0.387968714099688,15.6168762258561
0.422078634335609,15.6176264008193
0.451611277374323,15.6182968275162
0.477429798298574,15.6189289805967
0.499617032941725,15.619548438579
0.517802161479655,15.6201777102866
0.531090686651378,15.6208438042453
0.537568958697734,15.6215912573061
0.533880830190279,15.6223881000266
0.518417325017539,15.6232107045803
0.489705124523839,15.6240756450382
0.4458253332342,15.6249948588359
0.384674137730402,15.6259764806438
0.339574219469563,15.6265912817657
0.290161667199508,15.6272060828875
0.246276785271432,15.6277230361837
0.208646024083727,15.6281575878145
0.175577179168221,15.6285414990437
0.145956414103138,15.6288939844168
0.119106208475266,15.6292269880802
0.094557548631879,15.6295492587311
0.0719239860635908,15.6298687077132
0.0507946721312375,15.6301948531869
0.0305023981019873,15.6305449074712
0.00867010584903879,15.6309827658613
-0.000522114588948304,15.6311950528311
-0.00884616002986511,15.6314073398008
-0.0153461994879994,15.6315900395993
-0.0213579695363432,15.6317757941645
-0.0273870199961073,15.6319826881316
-0.0331918828977342,15.6322072764829
-0.0386195496985937,15.6324475078917
-0.0435853795249252,15.632702690903
-0.0480456444876252,15.6329730403402
-0.0519812914827053,15.6332594261929
-0.0553840402897138,15.6335632552146
-0.058341947465686,15.6338983773892
-0.0606446543046857,15.6342412403823
-0.0624435344858465,15.6346085343143
-0.0637544873241746,15.6350041189238
-0.0645913082611942,15.6354325574971
-0.0649654662755992,15.6358995505364
-0.0648843911832751,15.6364123346709
-0.0643491238659521,15.6369804142281
-0.0633484996126247,15.6376178311637
-0.0618553605309175,15.6383430516424
-0.0598144210194988,15.6391843004702
-0.0571094288690418,15.6401911493188
-0.0534330728232404,15.6414802881698
-0.049346098108023,15.6428774400162
-0.0453941312392547,15.6442296411584
-0.0416251578032147,15.6455413533235
-0.0380626745206808,15.6468147423671
-0.0347187383141162,15.6480505727135
-0.0315986224508951,15.6492489014779
-0.0287029326816185,15.650409448339
-0.0260287694570967,15.6515317902186
-0.0235705044760881,15.6526154613378
-0.0213203887393367,15.6536599998613
-0.0192690745612397,15.6546649626323
-0.0174060805124901,15.6556299195876
-0.0157202069942777,15.6565544342398
-0.0141422338390282,15.6574726159609
-0.0126234689004312,15.6584142998388
-0.0111684441781319,15.6593810432351
-0.00978109557331881,15.6603749523329
-0.00846516352406115,15.6613984980975
-0.00722413969995671,15.6624546085728
-0.00606121475169139,15.6635467878768
-0.004979223661975,15.6646792764265
-0.00398058857105473,15.6658572716926
-0.00306725848372922,15.6670872407171
-0.00224064451144498,15.6683773770099
-0.00150154795765203,15.6697382949866
-0.000850076012404458,15.6711841372055
-0.000285534546347837,15.6727344501915
0.000180354643150567,15.6743639937352
0.000546643721250162,15.6760406425938
0.000829657228454323,15.6777827006164
0.0010440099285963,15.6796115404412
0.00120345002797596,15.6815557607879
0.00132129142287212,15.6836559873563
0.00141107299302805,15.6859749304001
0.00148785198959719,15.6886221540883
0.00157194661820997,15.6918358689389
0.00168043504627782,15.6955744287689
0.0018200860930393,15.6995779104179
0.00200710271967339,15.7041345676952
0.00219267275780458,15.7082121942605
0.0023782310435329,15.7120803011189
0.00256488919951765,15.7158699335756
0.0027537898024475,15.7196532686625
0.00294651347729479,15.7234792334121
0.0031450816344432,15.7273860518952
0.00335188762771558,15.7314067874627
0.00356963588131804,15.7355723090774
0.00380132399199108,15.7399133331698
0.00405027365384495,15.7444618156093
0.00432026769683862,15.7492523509781
0.00461584899336952,15.7543235489565
0.00494285897089754,15.7597192401421
0.00528603869906173,15.7651275195788
0.00564078912345458,15.7704354010769
0.00601074334638083,15.775657643975
0.00639850832288707,15.7807866810373
0.00680831060030344,15.785833307457
0.00724453314638336,15.7908049293563
0.00771198948574449,15.7957086256438
0.0082157986081339,15.8005487365016
0.00876149575406654,15.8053273426479
0.00935512275500851,15.8100444675668
0.0100033493671644,15.8146986149792
0.0107170659073481,15.819308693163
0.0115200299981491,15.82395007095
0.0124275298801223,15.8286159136163
0.0134630534993225,15.8333242153419
0.0146602574641162,15.8381117246146
0.0160764396829522,15.8430675100081
0.0178391967684606,15.8484392814145
0.0202945675999129,15.8549290088802
0.0219139189078746,15.8588254189501
0.0235877585700004,15.86272182902
0.0250510159976563,15.8661780078517
0.0262862387156286,15.8693067179786
0.0273149320165751,15.8722931647129
0.0280988537344085,15.8751569055078
0.028615847036117,15.8779255645591
0.0288594120682752,15.8807212828843
0.028788233954142,15.8837164464424
0.0282462871362555,15.8873539400579
0.0274385345193296,15.8904199795582
0.0263649383578447,15.8934860190584
0.0252853495072174,15.8961008510142
0.0242143676145186,15.8984634704676
0.0231425404972207,15.9006997069037
0.0220699656479431,15.9028666780414
0.0209997679732129,15.9049958063196
0.0199356509213112,15.9071074776101
0.0188812511223791,15.9092163693125
0.0178399665150812,15.9113338465853
0.0168149146751243,15.9134692267122
0.0158089303012857,15.915630523245
0.0148245769335688,15.9178249167798
0.013864157528911,15.9200590853036
0.01292972778686,15.9223394422369
0.0120231090420896,15.9246723218916
0.0111458931906431,15.9270641542045
0.010299458676549,15.9295215955226
0.00948497581980629,15.9320516820358
0.00869513629988116,15.9346907126231
0.00791699935492649,15.9375059564882
0.00715435204587988,15.9405177479935
0.00641101507965246,15.9437503298286
0.00569104436547557,15.9472317461505
0.00499869745761783,15.950994566846
0.00433837654371982,15.9550767852899
0.00371452649738161,15.9595230706161
0.00313145143162678,15.9643868986887
0.00259305417868972,15.9697343502673
0.00210252103295429,15.9756510891376
0.00166215153336067,15.9822529249342
0.00128983985385025,15.9893440761731
0.000983807369191643,15.9970115844457
0.000787902027257665,16.003794075718
0.000601796823131494,16.0124247937947
0.000457134170049569,16.0216739539889
0.000346304133835618,16.0316739539889
0.000269759644290475,16.0416739539889
0.00021759644870343,16.0516739539889
0.000182599197050367,16.0616739539889
0.000159570703420037,16.0716739539889
0.000144874949904408,16.0816739539889
0.000136027261719014,16.0916739539889
0.000131347875978723,16.1016739539889
0.000129703279043112,16.1116739539889
0.000130330139455472,16.1216739539889
0.000132720484659434,16.1316739539889
0.000136546772526076,16.1416739539889
0.000141611958836573,16.1516739539889
0.000147815804194813,16.1616739539889
0.000155132502477636,16.1716739539889
0.000163596705202849,16.1816739539889
0.000173296063806128,16.1916739539889
0.000184369107391611,16.201673953989
0.000197007870405781,16.211673953989
0.000211465270655957,16.221673953989
0.000228067870232069,16.231673953989
0.000247235419048294,16.241673953989
0.00026950963289942,16.251673953989
0.000295596244151413,16.261673953989
0.000326426911663177,16.271673953989
0.000363251861592595,16.281673953989
0.0004077816188712,16.291673953989
0.000461634202277849,16.3015438254985
0.000523124881668278,16.3106757073501
0.000593089110089402,16.319102507143
0.000672645590853577,16.3268783035276
0.000763095024085273,16.3340541760872
0.000865919927011761,16.340677556546
0.00098280094716417,16.3467924834445
0.00111564112635614,16.3524398578763
0.00126659530814226,16.3576576672611
0.00143810393336186,16.3624811898805
0.00163293159509855,16.366943195848
0.00185421356789206,16.371074142998
0.00210551079145438,16.3749023611767
0.0023908764036965,16.378454227898
0.00271493943515875,16.3817543498585
0.00308300978218988,16.3848257529636
0.00350121556555785,16.3876900795626
0.00397668551145211,16.3903678084167
0.00451780042659319,16.392878516769
0.00513455336444976,16.3952412076753
0.00583745433097457,16.397470035531
0.00661385998811077,16.3995198208803
0.00747309092320564,16.4014248132902
0.0084293702294778,16.4032195221866
0.0095045995413122,16.404940151195
0.0107368503721373,16.4066322762111
0.0122327692464741,16.4084014836143
0.0143584927362316,16.4105565548936
0.0159853572837073,16.4120227240865
0.0177248697163774,16.4134888932794
0.0193354868083927,16.4148061325246
0.020762690423587,16.4159861447806
0.0220429971021981,16.4171011648979
0.0231816791746875,16.4181966932785
0.0241642475279744,16.4193108807006
0.0249585239150685,16.4204898915248
0.0255016621405977,16.4218138997054
0.025627141239435,16.4235158521737
0.025138904855102,16.4252280837504
0.0241390355661984,16.4269403153272
0.0230009562079824,16.4283801776718
0.0217239423524182,16.42977304004
0.0203068829282062,16.4311980587166
0.0187584506314755,16.4326962655723
0.0170847127707537,16.4343061851464
0.0153241496370144,16.4360786300172
0.0127462661661593,16.438983286326
0.0105031454218686,16.4419296663573
0.0087545359354115,16.4446193344821
0.00735576638519236,16.4471236333772
0.006150514687307,16.4496319819253
0.00509459604849573,16.4521986124839
0.0042329727168248,16.4546450751791
0.00352163678258685,16.456990425045
0.00292317252926099,16.4592702739984
0.00240705160862237,16.4615353990118
0.00194444096785831,16.4638765937396
0.00149230759333041,16.4665431819908
0.00118241232369205,16.4686557962732
0.000909056870850691,16.4707684105557
0.000699220655081265,16.4725875903807
0.000527824480736125,16.4742284699781
0.000375057146221649,16.4758306704621
0.000230202932417359,16.4774929911133
8.36711261852556e-05,16.4793416899891
-8.17966195678757e-05,16.4816716796558
-0.000339807489866267,16.4859625970993
-0.000532844088802062,16.4898923593048
-0.000673291812276015,16.4933022316866
-0.000801478707769498,16.4969898501133
-0.000935848980181674,16.5017672487771
-0.00104832087797981,16.50726638779
-0.00110359537298858,16.5120887769603
-0.00110657351573416,16.5164592679534
-0.00105422170576868,16.5203969804775
-0.000942291551174172,16.5239486029446
-0.000765667434299977,16.5271645094853
-0.000518532264602605,16.5300953025648
-0.0001931286819168,16.5327980753986
0.000221969528621477,16.535333217672
0.000745334721014122,16.5377686603651
0.00141003455045134,16.5401900229413
0.00229050712012769,16.5427496109346
0.00353998022681194,16.5456808264339
0.00513301212806344,16.5487539169063
0.00652205506672867,16.5510525947074
0.00810512261150336,16.5533512725084
0.00961502883189439,16.5552730178117
0.0111843294051831,16.5570283518811
0.0128238479364278,16.5586348164047
0.0146104855587932,16.5601622767582
0.0165873709392642,16.5616296380978
0.0187676564757111,16.5630294836691
0.0212028828611685,16.5643787577704
0.0239189889111202,16.5656751511828
0.026960581989201,16.5669246630353
0.0303687898711416,16.5681291877244
0.0341857570195822,16.5692897414035
0.0384696626606463,16.570410635881
0.0432827350753653,16.5714947544046
0.0486978539441119,16.5725452171259
0.0547992927817638,16.5735650526054
0.0616917534894599,16.5745581749971
0.0694997216241949,16.5755284257887
0.0783748639774171,16.5764799311783
0.0885051369889596,16.5774172787865
0.100127658315179,16.5783457134808
0.113547626876977,16.5792714081938
0.129171770633908,16.58020213119
0.147559832488958,16.5811479971759
0.169433738197387,16.5821195025396
0.194752703496548,16.5830932965522
0.224167534476462,16.584079148448
0.258546028897076,16.5850909897592
0.299171789793767,16.5861520885945
0.347066176379668,16.5872824229045
0.388264521467546,16.5881979905106
0.422330917275208,16.5889472747157
0.451832025455185,16.5896172664204
0.477621909869499,16.5902492256851
0.49977924259741,16.5908686713674
0.517929689509746,16.5914981180434
0.531173418527916,16.5921646468487
0.537584119949379,16.5929130386024
0.533803621311551,16.5937100170426
0.518237756704684,16.5945329080138
0.489408972416922,16.5953982534132
0.445395571407846,16.5963179498311
0.384093275472779,16.5973001273402
0.33904854797978,16.5979133674935
0.289724780583867,16.5985266076468
0.2459126323508,16.5990425365913
0.208330666370015,16.5994765016997
0.175296926791103,16.5998600594298
0.14570362377788,16.6002123235044
0.118875976773957,16.6005451944889
0.0943461858808448,16.6008674042297
0.0717280972432548,16.6011868660246
0.050609981286425,16.6015131292917
0.0303199026955038,16.6018635403679
0.00843739636858248,16.6023031689361
-0.00065532359696424,16.6025135579224
-0.00889586974063976,16.6027239469087
-0.0153858698427471,16.6029064794171
-0.0213987586355262,16.6030923896311
-0.0274270344561355,16.6032994133612
-0.0332297797268228,16.603524111693
-0.0386545704964401,16.6037644445227
-0.0436171173537105,16.60401972775
-0.0480739025038092,16.604290181248
-0.0520060008470388,16.6045766788934
-0.0554051307889724,16.6048806308472
-0.0583563992857248,16.6052155156744
-0.0606562086327378,16.6055585031432
-0.0624523096425456,16.6059259447334
-0.0637605644853123,16.6063217000108
-0.0645947596674728,16.6067503377705
-0.0649663465907483,16.6072175658733
-0.0648827268117118,16.6077306310532
-0.0643448881108172,16.6082990598708
-0.0633415911269327,16.6089369120383
-0.0618455639958183,16.6096626931221
-0.0598013023682159,16.6105047041879
-0.057092021373252,16.6115127038636
-0.0534083097823421,16.6128041197269
-0.0493219472797694,16.614200967778
-0.0453709715077285,16.6155529141287
-0.0416031817216163,16.6168643912688
-0.038041982126016,16.6181375532696
-0.0346993788022919,16.6193731586065
-0.0315806120211495,16.6205712614712
-0.0286862635448993,16.6217315802123
-0.0260134153383027,16.6228536912558
-0.0235564246549834,16.6239371287407
-0.0213075313966737,16.6249814309207
-0.0192573797313718,16.6259861547477
-0.0173954827242617,16.6269508701881
-0.0157106376206317,16.6278751406334
-0.0141330026737328,16.6287934600034
-0.0126146069140674,16.6297352881962
-0.0111599753924928,16.630702187585
-0.0097730430113535,16.6316962662955
-0.00845754886969355,16.6327199977361
-0.00721698299274778,16.6337763130105
-0.00605453406674958,16.634868720118
-0.00497303477551421,16.6360014644737
-0.00397490460961806,16.6371797501052
-0.00306208955154978,16.6384100528484
-0.00223599728464741,16.6397005783349
-0.00149742522325921,16.6410619582647
-0.000846476108798225,16.6425083609246
-0.000282450615878069,16.6440593733487
0.000182788880094992,16.6456891445837
0.000548534444946134,16.6473661314379
0.000831095114134395,16.649108639433
0.00104507946400343,16.6509380755948
0.00120423166382943,16.6528830930565
0.00132186467023601,16.6549844119895
0.00141152158248668,16.6573049256458
0.00148827558353547,16.659954621179
0.00157250237969656,16.6631730714072
0.00168110956494191,16.666911996214
0.00182100906937218,16.6709182783817
0.00200799574583836,16.675470962607
0.00219356089989393,16.6795469987151
0.0023791225166862,16.6834144658663
0.00256578875404875,16.6872039169735
0.00275470401787893,16.6909873567925
0.0029474512751255,16.6948136369232
0.00314605399307957,16.6987209454
0.00335290715444136,16.7027423277712
0.00357071666291989,16.7069086484934
0.00380248155335159,16.7112506268888
0.00405152531923731,16.7158002283721
0.0043216336289899,16.7205920643721
0.00461735416384485,16.7256647673877
0.00494453664370772,16.7310621974262
0.00528773660536114,16.7364694823292
0.00564256737322912,16.7417771470468
0.00601259611369443,16.7469988621619
0.00640046011067696,16.7521274916565
0.00681038029239608,16.7571737237406
0.00724674427306155,16.7621449987979
0.00771436622388308,16.7670483737613
0.00821836718481427,16.7718881799477
0.00876428451984411,16.7766664860791
0.00935816284508961,16.781383306944
0.0100066752930351,16.7860371401955
0.0107207988900553,16.7906473877396
0.0115242320494389,16.7952888600195
0.0124323011093423,16.7999548633393
0.0134685279200478,16.8046634394515
0.0146666430675172,16.8094514959261
0.0160841250376575,16.8144085059549
0.0178492097316158,16.8197836253615
0.0203046871644258,16.8262699072542
0.0219227859062189,16.8301621020151
0.0235949111752984,16.834054296776
0.0250569632183107,16.8375082683547
0.0262912455839914,16.8406359835996
0.0273190208850492,16.8436221192506
0.0281017399056573,16.8464851822525
0.0286175487694868,16.8492536754526
0.02885984268343,16.8520498307133
0.02878707340916,16.8550464760697
0.0282420978939516,16.8586893339431
0.0274337258977023,16.861751321706
0.0263605060665334,16.8648133094688
0.0252810777686736,16.8674264796778
0.0242101105662645,16.869788398219
0.0231382772669784,16.8720242709636
0.0220657049508204,16.8741910397097
0.0209955240731189,16.8763200633026
0.0199314385837391,16.8784316973657
0.0188770843678346,16.8805406024717
0.0178358582827129,16.8826581336313
0.0168108767808635,16.8847936016954
0.0158049734526011,16.8869550161141
0.0148207107768845,16.8891495549184
0.0138603907157385,16.8913838945905
0.0129260679846355,16.8936644479672
0.0120195630249444,16.8959975493482
0.0111424668616206,16.8983896293001
0.0102961570555391,16.9008473455114
0.00948180316861848,16.9033777358408
0.00869200317749454,16.9060174331689
0.0079139208203962,16.9088334180241
0.00715134285995732,16.9118460405704
0.00640809097335497,16.9150795574648
0.00568822198147604,16.918562029273
0.00499599411889602,16.9223260457466
0.00433580999349194,16.9264096240576
0.00371211436366141,16.9308574633027
0.00312921028238831,16.9357230807728
0.00259099837152291,16.9410726187185
0.00210066149669665,16.946991838629
0.00166049579498092,16.9535966945041
0.00128844875262634,16.9606900109426
0.00098272462487487,16.9683601125172
0.00078629449707735,16.9751733043929
0.000600818520133346,16.9837940921025
0.000456298938357897,16.9930531291695
0.000345725422075605,17.0030531291695
0.000269363201648957,17.0130531291695
0.000217328787081123,17.0230531291695
0.000182421559995728,17.0330531291695
0.000159455688183549,17.0430531291695
0.000144803680069575,17.0530531291695
0.000135986928683824,17.0630531291695
0.000131329824447239,17.0730531291695
0.000129701663878826,17.0830531291695
0.000130341038338396,17.0930531291695
0.000132741320047368,17.1030531291695
0.000136575929042787,17.1130531291695
0.000141648525339611,17.1230531291695
0.00014785940031662,17.1330531291695
0.000155183166266771,17.1430531291695
0.000163654827138878,17.1530531291695
0.000173362357619781,17.1630531291695
0.000184444612134077,17.1730531291695
0.000197093981926563,17.1830531291695
0.000211563804439152,17.1930531291695
0.000228181161848492,17.2030531291696
0.000247366474044558,17.2130531291696
0.000269662345977834,17.2230531291696
0.000295775720026825,17.2330531291696
0.000326639940588245,17.2430531291696
0.000363507637828502,17.2530531291696
0.000408092853106796,17.2630531291696
0.000461989671901906,17.2729182827544
0.000523529250654912,17.282045626177
0.000593548767394742,17.2904682341185
0.000673168029387641,17.2982401669888
0.000763688807559288,17.3054124807917
0.000866594764731081,17.3120325853079
0.000983567833708854,17.3181444988343
0.00111651250917535,17.3237891037244
0.0012675852862857,17.3290043699507
0.00143922847126132,17.3338255596185
0.00163420879139378,17.3382854279004
0.00185566395336683,17.3424144188787
0.00210715771120652,17.3462408497459
0.0023927464633903,17.3497910864636
0.00271706307753781,17.3530897253263
0.00308542202480723,17.3561597830312
0.00350395695522753,17.3590228939839
0.00397980343478848,17.3616995304686
0.0045213509381944,17.3642092650334
0.00513860384439849,17.3665710983392
0.0058419254581539,17.368798722946
0.00661879872024705,17.3708475201069
0.00747856826568875,17.3727517367661
0.00843549040352091,17.3745458788827
0.00951153063527616,17.3762661768087
0.0107449068079177,17.3779583044709
0.0122431597838563,17.3797286621823
0.0143756141958698,17.3818884018851
0.0160025660369473,17.3833533810689
0.0177415359469345,17.3848183602527
0.0193500361914147,17.3861337414407
0.0207757096414641,17.3873128344538
0.0220546762234163,17.3884274737753
0.023191959422176,17.3895229962161
0.0241729103767206,17.3906375575314
0.0249651502852466,17.3918174852341
0.0255053804556707,17.3931435391339
0.0256248937329931,17.3948520811535
0.0251311810664615,17.3965612400717
0.0241289494942767,17.3982703989899
0.0229894958707453,17.3997092743596
0.0217110954910729,17.4011022024562
0.020292731230567,17.4025277459465
0.0187430756614598,17.4040268303013
0.0170681404431284,17.4056380325416
0.0153292030367891,17.4073889821903
0.0128323883871228,17.4101945910484
0.0105787865856916,17.413137788108
0.00881497108744403,17.4158347457339
0.00740494025777925,17.4183446612072
0.00619343830210936,17.4208514740606
0.00513227013283198,17.4234154196489
0.00426385893262761,17.4258663721103
0.00354735227454335,17.4282151323401
0.00294504239544328,17.4304967637189
0.00242621343020472,17.4327611348594
0.00196212234316783,17.4350964189094
0.00151115511651196,17.4377387721249
0.00119499697926474,17.4398804300224
0.000916623754303104,17.4420220879198
0.000704827281415858,17.4438522510844
0.000532624434340944,17.4454962179473
0.000379477193506347,17.447098094058
0.000234523988454773,17.448757007117
8.82303506177031e-05,17.4505971865688
-7.61252230961496e-05,17.4529028372439
-0.000335905499099413,17.4572061270298
-0.00053225846130396,17.4611947849777
-0.000674385168676579,17.4646464754117
-0.000803229815851369,17.4683603637708
-0.000938152674523299,17.4731759586747
-0.00104957452940152,17.4786595205167
-0.00110407384110762,17.4834753687236
-0.00110624051532243,17.487838837104
-0.0010530280174239,17.491770123929
-0.000940147000112446,17.4953167436035
-0.000762502565088121,17.4985278759385
-0.000514259252360178,17.5014546214163
-0.000187556892313294,17.50415467483
0.000229120609868633,17.5066882498835
0.000754658510934304,17.5091239504504
0.00142253274644093,17.5115476323311
0.00230814036459966,17.5141126720364
0.00356272223137246,17.5170459468402
0.0051615868771894,17.5201211944383
0.00654615318388575,17.5224068558868
0.00812316967921906,17.5246925173353
0.00963218419201346,17.526610191015
0.0112044271443736,17.5283660969406
0.0128422516501754,17.5299683464575
0.0146313609285321,17.5314955635511
0.0166106474269633,17.532962345761
0.0187935542585696,17.5343615712029
0.0212318324063914,17.5357102891378
0.0239513100987679,17.5370061185322
0.0269966720302882,17.5382550797601
0.0304091591615691,17.5394590957825
0.0342309570560633,17.5406191759553
0.038520314703983,17.541739626696
0.0433396004037311,17.5428233416688
0.0487618236993672,17.5438734414219
0.0548716003338237,17.5448929844858
0.0617735028509941,17.5458858290085
0.0695924291544427,17.5468558456565
0.0784804002783018,17.5478071654765
0.0886258396657713,17.5487443820422
0.100266550719215,17.5496727524329
0.113708591567638,17.5505984581806
0.12936006654155,17.5515292895308
0.14778287458692,17.5524753957919
0.169691520269927,17.5534468825964
0.195051522256985,17.5544207511048
0.224515559231606,17.5554068042065
0.258954493049373,17.5564190358017
0.299658791875474,17.5574808780736
0.347610216125041,17.5586114992203
0.388708376903031,17.5595244775882
0.422709401857201,17.5602724330517
0.452162976327311,17.5609417765483
0.477909614674159,17.5615734492019
0.500021743151949,17.5621928813075
0.518119720982899,17.5628225968854
0.531295625708162,17.56348978774
0.537603869315804,17.5642396065298
0.533683712003713,17.5650367939923
0.517963063710909,17.5658601208339
0.488957993097508,17.5667260798958
0.444742628705609,17.5676465059406
0.383212022998751,17.5686295237985
0.338251102751099,17.5692404112506
0.289061654378036,17.5698512987027
0.245359583594165,17.5703656820555
0.207851582058832,17.570798761133
0.174871130757854,17.5711817844934
0.14531954770824,17.5715337141316
0.118526184864544,17.571866384974
0.0940250726627185,17.5721885035767
0.0714304922256663,17.5725079865484
0.0503293464904052,17.5728344316134
0.0300423774286808,17.5731853925902
0.00808065792642095,17.573627791674
-0.000864668048445239,17.5738353838175
-0.00898117365484724,17.5740429759611
-0.0154547976642193,17.5742252469112
-0.021469614889154,17.5744114285258
-0.0274965084036563,17.574618678006
-0.0332955452173489,17.5748435678803
-0.0387153149726701,17.5750840775165
-0.0436721371741122,17.5753395355648
-0.048122858079117,17.5756101706612
-0.0520487744247742,17.5758968634367
-0.0554416003803721,17.576201029981
-0.0583813182392592,17.5765355005544
-0.0606760824445081,17.5768787052976
-0.0624673444892829,17.5772464045797
-0.0637709019960954,17.5776424576802
-0.0646005257801733,17.5780714430014
-0.0649676365012235,17.5785390812402
-0.0648795863564421,17.5790526367604
-0.0643372703088966,17.5796216749177
-0.063329318817281,17.5802602864534
-0.0618282608690292,17.5809870457947
-0.0597782094138312,17.5818303874591
-0.0570614453910087,17.5828403980314
-0.0533648538026097,17.5841358061549
-0.0492795703546701,17.585532125055
-0.0453303354130547,17.5868836260504
-0.041564621338362,17.5881946920779
-0.0380056714448633,17.5894674567543
-0.0346654032631544,17.5907026682253
-0.0315489995119003,17.5919003756106
-0.0286570000721397,17.593060294956
-0.02598645462045,17.5941820018328
-0.0235316951757214,17.5952650302443
-0.0212849422566903,17.5963089186034
-0.0192368258086307,17.5973132240535
-0.0173768492933747,17.5982775166122
-0.0156938044629664,17.5992013594569
-0.0141167623755346,17.6001199198345
-0.0125990136594047,17.6010620007216
-0.0111450712163025,17.6020291732639
-0.00975886819732784,17.6030235489921
-0.00844414135502547,17.604047605598
-0.00720437783372025,17.6051042795497
-0.0060427628786027,17.6061970856518
-0.00496212514728206,17.6073302780848
-0.00396487949038105,17.608509072376
-0.00305296659844785,17.609739959789
-0.00222778815283909,17.6110311672253
-0.0014901347590992,17.6123933567236
-0.000840101370136508,17.6138407417496
-0.000276979562456177,17.6153929805081
0.000187123100058424,17.6170231516644
0.000551917513530434,17.6187007317034
0.000833685673315891,17.6204440293234
0.00104702534408931,17.6222745119636
0.00120567365718567,17.6242209284225
0.00132294196867565,17.6263241650857
0.00141238085349885,17.6286474375325
0.00148909163632147,17.6313014793666
0.00157355187347969,17.6345282770411
0.00168236800955379,17.6382678696404
0.00182270384589621,17.6422790909918
0.00200963930308729,17.6468248766477
0.0021951959541988,17.6508981420247
0.00238076323528897,17.6547644936833
0.00256744350626965,17.6585536293381
0.00275638448580584,17.6623372537087
0.00294917331403325,17.6661640868648
0.00314783711572093,17.6700722539412
0.00335477377964331,17.6740947694576
0.00357269185507553,17.6782624900415
0.00380459296107747,17.6826061401258
0.00405380382875084,17.6871577018841
0.0043241152165224,17.6919518162908
0.00462008339351918,17.6970271558067
0.0049475728377267,17.7024276319292
0.00529081140071465,17.7078331380969
0.0056457875369118,17.7131403988641
0.0060159520995572,17.7183611651453
0.00640399580147449,17.7234890594341
0.00681412972213293,17.7285345811054
0.00725074971802003,17.7335052301058
0.00771867121547328,17.738408024399
0.00822301899904698,17.7432472793726
0.00876933433153103,17.7480250423938
0.00936366690861527,17.7527413127204
0.0100126960042949,17.757394577176
0.0107275557425585,17.7620051306904
0.0115318373156135,17.7666467739834
0.0124409360729542,17.7713130684193
0.0134784354278099,17.7760221424959
0.014678200382715,17.7808111929653
0.0160980381413554,17.7857704296769
0.0178673525436572,17.791151650133
0.0203230196119434,17.7976317053402
0.0219388599934974,17.8015163073353
0.0236078927823206,17.8054009093303
0.0250677616214187,17.8088508942124
0.0263003364418463,17.8119768113776
0.0273264428257807,17.8149623883449
0.0281069759653266,17.817824225688
0.0286206310192974,17.8205924234975
0.0288606118494139,17.8233893812795
0.0287849431390139,17.8263887390335
0.028234420420816,17.8300414574701
0.0274249192926279,17.8330960974148
0.0263523746483757,17.8361507373596
0.0252732353324725,17.8387608809842
0.0242022942060172,17.8411215182309
0.0231304494956982,17.84335672519
0.022057881918663,17.845523123334
0.0209877320155491,17.8476519553163
0.019923704631191,17.8497635214087
0.018869434275535,17.8518724513692
0.0178283158184092,17.8539900816155
0.0168034636491031,17.8561257112083
0.0157977093235169,17.8582873420736
0.0148136133721433,17.8604821475372
0.0138534759309376,17.8627168013146
0.0129193499106285,17.8649977151603
0.0120130541104924,17.8673312233465
0.0111361779571571,17.8697237575796
0.0102900973917831,17.8721819779889
0.00947598058388316,17.8747129254741
0.00868625326533946,17.8773538473648
0.00790827124246252,17.880171193155
0.00714582072556321,17.8831853420548
0.00640272517313855,17.8864205763792
0.00568304307846943,17.8899049868404
0.00499103392421373,17.89367119968
0.00433110108607104,17.8977572757946
0.00370768910414997,17.9022079693532
0.0031250990735634,17.9070768738438
0.00258722754468163,17.9124302446755
0.0020972510815095,17.9183540231309
0.00165745958597714,17.9249644287153
0.00128589817358403,17.9320617248347
0.000980738372610578,17.939736593141
0.000783331713722946,17.9466068802173
0.000599009172373304,17.9552095433438
0.000454758045263833,17.964486656934
0.000344657413610138,17.974486656934
0.000268631075914495,17.984486656934
0.000216833903728685,17.994486656934
0.000182092504892563,18.004486656934
0.000159241995980536,18.014486656934
0.000144670594796758,18.024486656934
0.000135910866766047,18.034486656934
0.000131294849737935,18.044486656934
0.000129697016455334,18.054486656934
0.000130359501475118,18.064486656934
0.000132778155719442,18.074486656934
0.00013662817297951,18.084486656934
0.000141714511785523,18.094486656934
0.000147938442576257,18.104486656934
0.000155275349964084,18.114486656934
0.000163760889032206,18.124486656934
0.00017348363234486,18.134486656934
0.000184583036671073,18.144486656934
0.000197252154458325,18.154486656934
0.000211745101278507,18.164486656934
0.000228389924087596,18.174486656934
0.000247608285892716,18.184486656934
0.000269944441656701,18.194486656934
0.00029610757935335,18.204486656934
0.000327034171633673,18.214486656934
0.000363981310572821,18.224486656934
0.000408669564529509,18.234486656934
0.00046264875202961,18.2443431138565
0.000524279399214074,18.2534620900409
0.000594401880031689,18.2618769684248
0.000674138050903613,18.2696417761036
0.000764791673513486,18.2768075258734
0.000867848542157734,18.2834215872767
0.000984992981158574,18.2895279414694
0.00111813218867495,18.2951674364061
0.00126942573331289,18.300378010021
0.00144131939298961,18.3051948947069
0.00163658386756419,18.3096508181864
0.00185836139177231,18.3137761992742
0.00211022095984471,18.3175993319125
0.00239622504322222,18.32114656084
0.0027210136574883,18.3244424632503
0.00308990979896642,18.3275100389448
0.00350905742453649,18.3303709077759
0.00398560485456663,18.3330455301982
0.00452795773479524,18.3355534702482
0.00514614158384435,18.337913724368
0.00585024644294291,18.3401391276387
0.00662799074360196,18.3421861026151
0.00748876415035843,18.3440888918682
0.00844688533854101,18.3458819957517
0.0095244399011974,18.3476016957847
0.0107599214207774,18.3492938516702
0.0122625526227847,18.3510663928107
0.014407766891155,18.3532350313909
0.0160346773508944,18.3546976286571
0.0177723986980915,18.3561602259232
0.0193769540791762,18.357472178429
0.0207997753538697,18.3586495849265
0.0220762356823587,18.3597635326966
0.0232108992648432,18.3608590598227
0.0241888201611483,18.3619743349292
0.0249772433920674,18.3631559950608
0.0255120148653793,18.3644859120538
0.0256202255495585,18.3662070235406
0.0251162211980775,18.3679106096354
0.0241094310625771,18.3696141957303
0.0229673209303617,18.3710512709575
0.02168626863119,18.3724443502446
0.0202654151233913,18.3738709128029
0.0187134279340784,18.3753716900786
0.0170362107765574,18.3769853629179
0.0154502708801763,18.3785787315826
0.0129735929777994,18.3813411666039
0.0106900344226046,18.3842971920597
0.00890240958764941,18.3870070989712
0.00747586651946989,18.3895254490352
0.0062553204528386,18.3920301423919
0.00518657312607921,18.3945902987793
0.00430837007998797,18.3970476454783
0.00358439449919587,18.399401301017
0.00297651142340014,18.401685587031
0.00245372611150003,18.4039491482517
0.00198738805994024,18.4062766924057
0.00153765678239833,18.4088876338294
0.00121175606473173,18.41107620042
0.000925639734610968,18.4132647670107
0.000711362407549152,18.4151092321211
0.000538206102501265,18.4167569008281
0.000384605773858201,18.4183585206098
0.00023951742069337,18.4200137422117
9.3461120568047e-05,18.4218446372973
-6.97235973707969e-05,18.4241241468688
-0.000331581637101836,18.4284427867705
-0.000532049148269996,18.4325062996449
-0.000676462741237214,18.4360175160798
-0.000806295341042752,18.4397736099956
-0.000942125948356231,18.4446551155841
-0.00105169741623417,18.4501114493668
-0.00110481185899793,18.4549158697354
-0.00110551958173026,18.4592670279407
-0.00105075458989907,18.4631868876852
-0.000936167930159719,18.4667243210789
-0.0007567044986857,18.4699267004203
-0.000506445092650062,18.4728465517907
-0.000177413861119075,18.4755417067536
0.000242056491646987,18.478072261685
0.000771356565904243,18.4805079123576
0.00144484304855461,18.4829356176342
0.0023394818286247,18.4855100817138
0.00360307946916176,18.4884469981484
0.00521222153025915,18.4915260322854
0.00658792740658975,18.4937873964769
0.00815305277779087,18.4960487606685
0.0096614331102962,18.4979607764745
0.0112376337761597,18.4997165449647
0.0128748132360543,18.5013138367969
0.0146679479384101,18.5028403604434
0.0166512976754104,18.5043060328539
0.0188387424669008,18.5057041522997
0.021282301002717,18.5070518736495
0.0240077138320298,18.5083467408031
0.0270596661666596,18.5095947417305
0.030479632463066,18.5107978684968
0.0343099310116435,18.5119571370188
0.0386088317525522,18.513076813271
0.0434389899094965,18.5141598231302
0.048873645810613,18.5152092884306
0.0549981292584407,18.5162283379905
0.0619165768617443,18.5172206971409
0.0697547022357418,18.5181903043619
0.0786651506785864,18.5191412996624
0.0888371648566281,18.52007828705
0.100509690849905,18.5210065404394
0.113990404508552,18.5219322653261
0.12968977419541,18.5228632860272
0.148173486671987,18.5238098125699
0.170142993377347,18.5247812666438
0.195574892699314,18.5257552651465
0.225125149422103,18.5267416699602
0.259670022113074,18.527754584993
0.300512127049966,18.5288177330038
0.348563841649348,18.5299488698492
0.389488510729153,18.5308573678312
0.42337565424529,18.5316030135099
0.452745967965045,18.5322712264148
0.478416633624412,18.5329024001121
0.500449191579267,18.5335218131262
0.518454637152286,18.5341520085971
0.531510651544911,18.5348203774644
0.537637067192223,18.535572741867
0.533469951023212,18.5363703034125
0.517475394550184,18.537194404752
0.488158217515535,18.5380614513293
0.443585260101187,18.5389831688846
0.381852111959462,18.5399647958569
0.337018455075841,18.5405721057218
0.288033030944545,18.5411794155868
0.244500417406948,18.5416914227153
0.207106755715763,18.5421231342445
0.174208869888458,18.5425053312481
0.144722005506925,18.5428567434771
0.117981856052301,18.5431891051316
0.093525256592605,18.5435110841888
0.0709671269380401,18.54383060327
0.0498921614094092,18.5441573373659
0.0296093343107807,18.5445091731143
0.00751656099383511,18.5449560946772
-0.0012075278176788,18.5451595210615
-0.0091370716804144,18.5453629474459
-0.0155826152039947,18.5455447928848
-0.0216009278168567,18.5457314760611
-0.0276251791319877,18.5459391417023
-0.0334173053024664,18.5461643850828
-0.0388277578102009,18.546405221399
-0.0437739737016757,18.5466610027479
-0.0482134675730363,18.5469319739038
-0.0521279435374567,18.5472190279626
-0.0555091069213134,18.5475235919773
-0.058427665001646,18.547857313824
-0.060713068710745,18.5482009227492
-0.0624953494055039,18.5485691011104
-0.0637901878863748,18.5489657080354
-0.0646113255018863,18.549395339844
-0.0649701254023978,18.5498637411804
-0.0648738475557268,18.5503782093181
-0.0643232131654439,18.5509483820141
-0.0633066098431251,18.5515884081393
-0.0617961935136869,18.5523169911096
-0.0597353584158676,18.5531628160623
-0.0570046230346371,18.5541765882667
-0.0532838124868118,18.5554795161562
-0.0492005539200161,18.556874853103
-0.0452545795989364,18.5582255231277
-0.0414927463432814,18.5595358215845
-0.0379379994739401,18.5608078442123
-0.0346020921885849,18.5620423200008
-0.0314901002128365,18.563239288664
-0.0286024854926846,18.5643984619796
-0.0259362376063872,18.565519413937
-0.0234856416120308,18.5666016782899
-0.0212428819789102,18.5676447937459
-0.0191985622255755,18.5686483178006
-0.017342168000896,18.5696118205581
-0.0156624809057766,18.5705348647853
-0.0140865455320188,18.5714538751522
-0.0125700045193576,18.5723964279075
-0.0111173481395891,18.5733641105695
-0.00973250626188427,18.5743590410405
-0.00841921124635133,18.5753837050283
-0.00718094484732434,18.5764410490423
-0.00602088587441872,18.5775346006274
-0.00494185545731935,18.5786686303786
-0.00394625977281649,18.5798483753651
-0.00303602961995315,18.5810803557602
-0.00221255546170812,18.5823728383423
-0.0014766151762141,18.5837365420607
-0.000828289154251023,18.5851857651927
-0.000266851953319418,18.586740299677
0.000195134145804613,18.588371221853
0.000558157939888165,18.5900499142575
0.000838451319585913,18.591794692361
0.00105059195975045,18.5936271371157
0.00120830398353579,18.595576177306
0.00132489595111678,18.597683012454
0.00141393275713247,18.6000114666309
0.00149056922846448,18.6026736875334
0.00157547741480249,18.6059162676782
0.00168469234568236,18.6096572054395
0.00182585218018688,18.6136777735425
0.00201269588485307,18.6182107700093
0.00219823769680499,18.6222788734453
0.00238381614227661,18.6261431475178
0.00257052324594152,18.6299317034481
0.00275951305169925,18.633715686669
0.00295238056421938,18.6375435715996
0.00315115977537693,18.6414533657329
0.00335825403154719,18.6454780257902
0.00357637684155764,18.6496483940021
0.0038085346730294,18.65399520475
0.00405806034925045,18.6585504721293
0.00432875423612602,18.6633488931849
0.00462518883723834,18.6684292160014
0.00495325654938311,18.6738354494982
0.0052965663602131,18.6792376115655
0.00565181483482622,18.6845441165252
0.00602223383093748,18.6897631058006
0.00641061440891229,18.6948896244787
0.00682114912737239,18.6999338176746
0.00725824923573291,18.7049032960931
0.00772673249570813,18.7098050046471
0.0082317306886955,18.7146432287424
0.00877879237054705,18.7194199757278
0.00937397674676188,18.7241352158044
0.0100239745991898,18.7287874156294
0.0107402149237077,18.7333985419027
0.0115460879124195,18.7380405069012
0.0124571184659496,18.7427073493314
0.0134970061885488,18.7474173628131
0.0146998700996349,18.7522082911242
0.0161241407955511,18.7571717415497
0.0179014519976325,18.7625645553979
0.0203574645566437,18.769032961265
0.0219690977216929,18.7729034429007
0.0236323641032881,18.7767739245364
0.0250881315424042,18.780216458267
0.0263174834649252,18.7833390111879
0.0273404330217388,18.7863235555077
0.0281168336481969,18.7891830977311
0.0286264128670645,18.7919507587084
0.0288620105579872,18.7947492639061
0.0287808333755008,18.797753818938
0.028219668856281,18.8014255831645
0.0274080206522131,18.8044663875499
0.0263367216947823,18.8075071919353
0.0252581188771233,18.8101115909968
0.0241872248888803,18.8124697799747
0.0231153582305574,18.8147037116998
0.0220428003334316,18.8168693999538
0.020972710744622,18.8189978655621
0.0199087959476497,18.8211093028305
0.0188546877801073,18.8232182824526
0.0178137772767126,18.8253361051847
0.0167891748479827,18.8274720474722
0.0157837081318231,18.8296340968058
0.0147999339020724,18.8318294174983
0.0138401487765003,18.8340646779722
0.0129064021934292,18.8363462879193
0.0120005097795995,18.8386805816118
0.0111240578836788,18.8410739929831
0.0102784193309493,18.8435331868878
0.00946475960526943,18.8460652101335
0.00867517285225782,18.8487084949879
0.00789738474611586,18.8515284669644
0.00713518042878845,18.8545455613642
0.00639238679023898,18.857784110043
0.00567306553991671,18.8612722619366
0.00498147856041674,18.8650427137402
0.00432203069161796,18.8691336108122
0.00369916602599158,18.8735898137733
0.00311718184098309,18.8784650635705
0.00257996678953251,18.8838258347786
0.00209068526405634,18.8897584168427
0.00165164635964254,18.8963790147442
0.00128101576116575,18.9034839485404
0.000976937316014473,18.9111679783009
0.000777554321684104,18.9181527732952
0.000595473811548886,18.9267200390927
0.000451758700597448,18.9360321244735
0.000342579518090342,18.9460321244735
0.000267207347802873,18.9560321244735
0.000215872053961148,18.9660321244735
0.000181453469775514,18.9760321244735
0.000158827568352013,18.9860321244735
0.000144413146960145,18.9960321244735
0.000135764501733071,19.0060321244735
0.000131228546666042,19.0160321244735
0.000129689829092737,19.0260321244735
0.000130397383639874,19.0360321244735
0.000132851890031505,19.0460321244735
0.000136731998314782,19.0560321244735
0.000141845197984193,19.0660321244735
0.000148094668853218,19.0760321244735
0.000155457303141754,19.0860321244735
0.000163970028657143,19.0960321244735
0.000173722588394753,19.1060321244735
0.000184855620105139,19.1160321244735
0.000197563474324644,19.1260321244735
0.000212101795838015,19.1360321244735
0.000228800529088391,19.1460321244735
0.000248083783446562,19.1560321244735
0.000270499062580297,19.1660321244735
0.00029675997779535,19.1760321244735
0.000327809166455997,19.1860321244735
0.000364912517617506,19.1960321244735
0.000409803474612384,19.2060321244735
0.000463944393127363,19.2158715281501
0.000525753841608878,19.224974097983
0.000596078487327255,19.2333738211605
0.000676044207865923,19.2411246592938
0.000766958672846573,19.2482775403252
0.000870311862723515,19.2548797547871
0.000987792798212828,19.2609752109116
0.00112131398634313,19.2666046891158
0.00127304103117313,19.2718060644383
0.00144542652792328,19.2766145109501
0.00164124897826246,19.2810627025008
0.00186365951026321,19.2851810083188
0.00211623741026973,19.2889976767196
0.00240305708058973,19.2925390108028
0.00272877258003226,19.2958295502935
0.00309872365974062,19.2988922618542
0.0035190745367022,19.3017487368045
0.0039969986106615,19.3044194124214
0.00454093334032894,19.306923836091
0.00516094585283674,19.3092809960582
0.00586658904964657,19.3115020521636
0.00664604466028516,19.3135454615397
0.00750879112160847,19.3154454584557
0.00846927046336115,19.3172365333951
0.00954980635048774,19.3189550704523
0.0107894409499842,19.3206473000415
0.0123007453287737,19.3224241863254
0.0144716966345291,19.3246108467662
0.0160978776634571,19.3260682085096
0.0178324083842019,19.3275255702531
0.0194293278840377,19.3288309270212
0.0208466312584953,19.3300051087691
0.0221182147538185,19.3311177446163
0.0232477633398368,19.3322133115194
0.024219753343049,19.3333300160231
0.0250006856687322,19.3345151197472
0.0255246882479244,19.3358527432476
0.0256101318119038,19.3375995125089
0.0250857028279001,19.339292752542
0.0240694190780199,19.340985992575
0.022921748704455,19.3424196780781
0.0216352374952502,19.3438131454997
0.0202092732045663,19.3452418415911
0.0186524951257294,19.3467461359215
0.0169705789063048,19.3483649370568
0.0155828320800309,19.3497567994253
0.0131278931676779,19.3524731689589
0.010811187349754,19.3554436423252
0.00899734777784497,19.3581679286668
0.00755274578477522,19.3606955648339
0.00632237322105792,19.3631980781235
0.00524540693819213,19.3657542386648
0.00435653881828142,19.3682185721812
0.00362443055560261,19.370577615598
0.00301047435010438,19.3728649240492
0.00248335944029142,19.3751278994804
0.00201450143599445,19.3774477715782
0.00156573619877558,19.3800278647687
0.00122858955820551,19.3822718154343
0.000933611571710516,19.3845157660999
0.000716932349078843,19.3863746723652
0.000542936148202779,19.3880257493723
0.000388944429825134,19.3896272347474
0.000243738520046486,19.391279389814
9.78792689794442e-05,19.3931025309271
-6.43406344853024e-05,19.3953604815483
-0.00032803706187012,19.3996935674895
-0.000532405548869963,19.403829954625
-0.000679221882541296,19.4074061850187
-0.000810191348107041,19.4112131096086
-0.000947143082369592,19.4161783183036
-0.00105438531987574,19.4216004717895
-0.00110573162811145,19.4263898740356
-0.00110458322936822,19.4307257691394
-0.00104784133726107,19.4346311125101
-0.000931106923410261,19.4381562797253
-0.000749350839357025,19.4413474402568
-0.000496504140074728,19.4442589768623
-0.000164519957821874,19.446947910455
0.000258427016389603,19.4494742880119
0.000792298030117468,19.4519091086254
0.00147268648308039,19.454341373886
0.00237848790057571,19.4569272129039
0.00365329071934784,19.4598686657742
0.00527514225343159,19.4629522799451
0.00663934458140064,19.4651829631959
0.00818912099400674,19.4674136464468
0.00969763063929281,19.4693199355917
0.011278012212178,19.4710747577418
0.0129160893287907,19.4726675756992
0.0147141112019546,19.4741930495202
0.0167024745875166,19.4756572443309
0.0188956224806896,19.4770539657897
0.0213458075513637,19.4784004217768
0.0240787518978722,19.4796941060057
0.0271390186203344,19.4809409041486
0.0305684148122197,19.4821429149815
0.0344095270866555,19.4833011922522
0.0387204761833816,19.4844198977108
0.0435643558557764,19.4855020229251
0.0490147039730575,19.4865506923198
0.0551578526918701,19.4875691385838
0.0620972064545675,19.4885608900626
0.0699595914535254,19.4895299850247
0.0788984467176307,19.490480575262
0.0891040538773852,19.4914172780674
0.100816783968457,19.4923453868104
0.114346455812839,19.4932711438843
0.13010644278384,19.4942024097423
0.148667295131028,19.4951494747189
0.170713774786094,19.4961208927411
0.196236628026386,19.4970950615856
0.22589599970086,19.4980819183942
0.260575054399154,19.4990957085745
0.301592061478669,19.5001605302568
0.339707189793418,19.5010634512389
0.380054923043453,19.501966372221
0.415155281469804,19.5027372192466
0.44554946586051,19.5034201057082
0.472145596782487,19.5040580965017
0.495134588214967,19.504678408679
0.51423916532448,19.505303554188
0.528699717948946,19.5059588382715
0.536907475589165,19.5066830497913
0.535643353258242,19.5074767642227
0.522855313023454,19.5082921956803
0.497183442154301,19.5091467134046
0.456789618256287,19.5100533293697
0.399585752979909,19.5110205676585
0.353067146288317,19.511677977837
0.301293439749877,19.5123353880155
0.255484311003976,19.5128799287063
0.216583109589153,19.5133300349553
0.182613615394172,19.5137232201944
0.152294280012938,19.5140815000351
0.124872593420485,19.5144180166036
0.0998462116198292,19.5147419957904
0.0768188564875585,19.515061356867
0.0553968833202198,19.5153849636928
0.035010205808396,19.5157272438761
0.0140568781274447,19.5161311026973
0.00119029761380831,19.5164179262688
-0.00624789940314644,19.5166027316732
-0.0130486181620898,19.5167875370775
-0.0189677318229917,19.5169637769544
-0.0250201694142838,19.5171626808144
-0.0309368393410498,19.5173806178649
-0.0365266645027802,19.5176148153827
-0.0416819819124767,19.5178641093813
-0.046345353577812,19.5181283964477
-0.0504894048785299,19.5184083077511
-0.0541046414254097,19.5187050461311
-0.0573945018446253,19.5190452123533
-0.0598815780530754,19.519380218123
-0.0618581806865134,19.5197383463501
-0.0633416563628654,19.5201233576917
-0.0643462634009218,19.5205394798506
-0.0648844808599677,19.5209919693811
-0.0649654003918756,19.5214874575644
-0.064592736440232,19.5220344766681
-0.0637602931556363,19.522645377158
-0.0624473953676456,19.5233366714994
-0.0606109716486203,19.5241323370869
-0.0581630366460113,19.5250720313846
-0.0548962464210583,19.5262373253297
-0.050776556764057,19.5276540173818
-0.0467691955841805,19.529021463532
-0.0429321136126883,19.5303470915272
-0.0392949422755766,19.5316338471144
-0.035873008835969,19.5328828855915
-0.0326736533542998,19.5340944573117
-0.029698961739214,19.535268371201
-0.0269471678806258,19.5364042389111
-0.0244135298870113,19.5375016019398
-0.0220909833273084,19.5385599938546
-0.019970688492309,19.5395789645435
-0.0180425137742863,19.5405580808409
-0.0162954683996937,19.5414969113981
-0.0146976383908188,19.5424070016376
-0.0131571577623753,19.5433402142441
-0.0116789790389476,19.5442978104291
-0.0102670943248294,19.5452817851884
-0.0089253204768945,19.5462944697263
-0.00765724358063615,19.5473386174242
-0.00646616758520709,19.5484175113987
-0.00535506050387587,19.5495351082756
-0.00432649817949086,19.5506962345745
-0.00338260520628776,19.5519068619109
-0.00252499198233927,19.5531745044887
-0.00175468577396713,19.5545088144209
-0.00107205166490263,19.55592251374
-0.000476695249045319,19.557432936872
2.86164149524578e-05,19.5590500045002
0.000427916659949742,19.5607077842131
0.000738528617970527,19.5624246613918
0.000975450346879267,19.564220127494
0.00115269427886308,19.5661198507673
0.00128366757817303,19.5681594433617
0.00138173009001846,19.570392116745
0.00146117729228212,19.5729062720042
0.00153967549685045,19.5758767530932
0.00164286040958005,19.579614465761
0.00176957545247825,19.5834758051432
0.00194165091931504,19.5878732008102
0.00212718266392471,19.5920697200635
0.00231257244084847,19.5959914829671
0.00249872805596624,19.5997987304553
0.00268667822493208,19.603577888866
0.00287784034746308,19.6073840500473
0.00307408654039539,19.6112583537352
0.0032776873897688,19.6152352669576
0.0034912412794806,19.6193461541496
0.00371764254516267,19.6236216182892
0.00396008938118952,19.628093026956
0.00422217662894179,19.6327938718332
0.00450813230813269,19.6377612133563
0.00482325634915518,19.6430368774067
0.00516492880520488,19.6485142785733
0.00551401450949447,19.6538365650445
0.0058787900993189,19.6590966011601
0.00625970265652837,19.6642554662472
0.00666131063454054,19.6693307834333
0.00708768763501456,19.6743277102355
0.0075435896969589,19.67925473808
0.00803399450859704,19.6841168594776
0.00856428885018536,19.6889170181422
0.00914032092512806,19.6936558858148
0.00976852574421587,19.6983324395028
0.0104560522840371,19.7029445551719
0.0112261869066868,19.7075770820009
0.0120945022545595,19.7122326718075
0.0130817810206962,19.7169233263907
0.0142171336859197,19.7216764634584
0.0155470141931221,19.7265569359165
0.0171635606313747,19.7317322999723
0.0193528217547643,19.7378091582537
0.0211157453846159,19.7421947076599
0.0229820107139016,19.7465802570661
0.0245566058106819,19.7502571855881
0.0258700991525657,19.7534803823562
0.0269722131505366,19.7565006472942
0.0278529935544916,19.7594270166093
0.0284639495392101,19.7622166125068
0.028806391085204,19.7649872689825
0.028854731438586,19.7678848614004
0.0285154921481123,19.7711970817474
0.0277476080927643,19.7746369769359
0.0268763745964774,19.7773734759373
0.0258199010144102,19.7801099749386
0.0247496944487431,19.7825682606842
0.0236788908430344,19.7848573308039
0.0226063944031379,19.7870539402184
0.0215345480062724,19.7891989512305
0.0204669170593486,19.7913172494141
0.0194072091450263,19.7934259521099
0.0183589517141711,19.7955378732742
0.0173254039105286,19.7976632381285
0.0163095410239912,19.799810640144
0.0153140609297133,19.8019876279334
0.0143413945521874,19.8042010982566
0.0133937209181269,19.8064575680117
0.0124729765470212,19.808763391152
0.0115808657735242,19.8111249336114
0.0107188749751343,19.8135487144141
0.00988827522197868,19.8160415677723
0.00909013983122221,19.81861076386
0.00830564309202646,19.8213353466446
0.00753476311408757,19.8242457254729
0.00678124624089103,19.8273642975829
0.0060490326975182,19.8307171216176
0.00534228542208674,19.8343343923433
0.00466534344696569,19.8382512528672
0.00402264489911561,19.8425088437638
0.00341859511546634,19.8471558617426
0.00285733537192019,19.8522514324075
0.00234244807320502,19.8578702835495
0.00187667938556313,19.8641116102073
0.00147054691264626,19.8709468438168
0.00112945454648337,19.8783081719538
0.000855822440528814,19.8864293065781
0.000681461670124177,19.8936241319924
0.000514260970463415,19.9028903170272
0.000392088786267674,19.9123574001209
0.000301328347932502,19.9223574001209
0.000239016526775801,19.9323574001209
0.000196886205588745,19.9423574001209
0.000168897741074176,19.9523574001209
0.000150751174349361,19.9623574001209
0.000139475888188072,19.9723574001209
0.00013305730236221,19.9823574001209
0.000130417327848804,19.9911787000604
0.00012979846496282,20
