ecg,time
0.00759346119501302,15.0022709152562
0.0069002798134638,15.0049340651427
0.00623103867726367,15.0077432317834
0.00558165622235083,15.0107455316228
0.00495551273621622,15.0139639187447
0.00435596908711893,15.0174253528318
0.00378642308839081,15.0211610403497
0.00325023684545959,15.0252072861251
0.00275063162449491,15.0296066835285
0.00229053810348053,15.0344100092831
0.00187239151580202,15.039679656144
0.00149790977599221,15.0454957816495
0.00116799109037504,15.0519654149891
0.000882834547483761,15.0592330615035
0.000695749206794806,15.0654284336534
0.000563103658861793,15.0716238058033
0.000436831555801244,15.0799584687049
0.000342300985275886,15.0889640830597
0.000273800776198639,15.0985496669899
0.000227469976861952,15.1085496669899
0.000199367612623377,15.1185496669899
0.000183984363463875,15.1285496669899
0.000177399689490835,15.1385496669899
0.000176954324603645,15.1485496669899
0.000180951943018701,15.1585496669899
0.000188377756839674,15.1685496669899
0.000198678122990976,15.1785496669899
0.000211615256247588,15.1885496669899
0.000227184357986746,15.1985496669899
0.000245574196902499,15.2085496669899
0.000267157636668932,15.2185496669899
0.000292506516160916,15.2285496669899
0.000322432023153847,15.2385496669899
0.000358057730169149,15.2485496669899
0.0004009400013373,15.2585496669899
0.000452074055602009,15.2683387045827
0.000510172256735578,15.2774144035452
0.000575967143422576,15.2858095719956
0.000650450384709219,15.293574293533
0.00073478498470199,15.3007558954844
0.000830297886481905,15.3073984615119
0.000938492216790046,15.3135430761559
0.00106106864302371,15.3192280533348
0.00119995190237838,15.32448912253
0.00135732049687921,15.3293595923754
0.0015356399965108,15.3338705181154
0.00173770297841941,15.3380508668011
0.00196667528919754,15.3419276687847
0.00222615037092292,15.3455261532835
0.00252021696914721,15.3488698929496
0.00285354125824963,15.3519809573217
0.00323147242888876,15.354880064028
0.00366017715680257,15.3575867401461
0.00414681885601456,15.3601195106162
0.00469980396979917,15.3624961178632
0.00532912927855752,15.3647337966853
0.0060441461844767,15.3668422523662
0.00683210409418156,15.3687803347561
0.007701696893874,15.3705793215569
0.00866597198062348,15.3722702597039
0.00974440568956158,15.3738846827531
0.0109692549388776,15.3754599416908
0.0124360874704746,15.3770864701944
0.014389347900083,15.3789493843531
0.0162447036778662,15.3805064901482
0.0182713364974585,15.3820635959434
0.0200775626636562,15.3833883430855
0.0216505771157459,15.3845401284143
0.0230615851162844,15.3856143257842
0.024326655953692,15.3866610105636
0.0254361899321504,15.387717543713
0.0263626639896297,15.3888254514985
0.0270524467994339,15.3900509367307
0.0273790688929433,15.391559604415
0.027060589232117,15.3933048632628
0.0261078546985592,15.3950501221106
0.0249772577138425,15.3964716250429
0.0236953359078098,15.3978276108073
0.0222569100190988,15.3992124329227
0.0206698102574561,15.4006700924716
0.0189401374998639,15.4022395470524
0.0182849519640179,15.402838303338
0.0176409861956076,15.4034370596237
0.0152557810239964,15.4058123600945
0.0128418171042088,15.4085434820716
0.0108336064040809,15.4111697078271
0.00915153917496753,15.4137208106084
0.00773287203506358,15.4162221004928
0.00652041373741862,15.4187140341264
0.00546282979570587,15.4212602735481
0.00453850630137525,15.4238857305683
0.00391626816162292,15.425944070282
0.00337246451372929,15.4280024099958
0.00293988388604011,15.4298660945334
0.00257391310277672,15.4316454872895
0.00224375519564918,15.4334549370336
0.0019283031276148,15.4354169408641
0.00160236472339406,15.4377613758066
0.00119969578156328,15.4412989436114
0.000861469681154785,15.4451518451331
0.000633953745367425,15.448544954847
0.000458145777179501,15.4519973563133
0.000312275592675606,15.4560469828498
0.000205027684311159,15.461451743823
0.000189930137332898,15.4663236235524
0.000248222897471391,15.4707621214187
0.000371855462698845,15.4747896278104
0.00055787220015648,15.4784494285752
0.000806190893338348,15.4817818877846
0.00111934922474156,15.4848347773003
0.00150261574990991,15.4876583430232
0.0019643973852989,15.4903024722116
0.00251802580651299,15.4928203588733
0.00318450884847101,15.4952705223759
0.00399796831879317,15.4977224408851
0.00501346018960003,15.5002595080487
0.00628380111794602,15.5029121081985
0.00774236554313115,15.5054842071263
0.00926144021309496,15.5077756739198
0.0107818706755059,15.5097583602202
0.0123401206244885,15.5115243614007
0.0140119806956474,15.5131704774702
0.0158120772211844,15.5147058299324
0.0178039472949057,15.516173451825
0.0200059151210648,15.5175709235446
0.0224662166089589,15.5189133269761
0.0252224430111333,15.520204392601
0.0283118765941503,15.521445962212
0.0317849407224001,15.5226433212685
0.0356896979850198,15.5237984161236
0.0400862853436944,15.5249149312099
0.045043691077293,15.5259963389974
0.0506413827427694,15.5270459234957
0.0569713544882377,15.5280668369995
0.0641496982843801,15.5290633633955
0.0723147965682225,15.5300396406561
0.0816378385827877,15.5310002855589
0.092334812871415,15.5319506130899
0.104683858228895,15.5328969010273
0.119056640704662,15.5338471070305
0.135968980361444,15.5348117857371
0.156175056460686,15.5358058833024
0.179582001399053,15.5368019116687
0.206803011054048,15.537810251925
0.23866081129166,15.5388456008496
0.276359601874785,15.5399314808208
0.320228534410018,15.5410706694875
0.361292468316579,15.5420670932833
0.395529355832084,15.5428805923431
0.425127599286348,15.5435990363292
0.45100554082681,15.5442683231864
0.473319809307777,15.5449156219712
0.49180356281509,15.5455628239754
0.505762022688861,15.5462331257482
0.513801386624484,15.5469586501683
0.513085692012849,15.5477705401086
0.501272073567173,15.5485975827875
0.477128141095155,15.549455954463
0.439032915579737,15.5503577106735
0.385159842216002,15.5513116897732
0.341100160535072,15.551961495754
0.291969533854385,15.5526113017348
0.248123007626598,15.5531533578172
0.210581044161626,15.5536044383854
0.177620078673112,15.5540000944035
0.148100759303729,15.5543614364841
0.121342154429915,15.5547012485315
0.0968827859323988,15.5550285961797
0.0743542359777605,15.5553512963711
0.0533877306951773,15.5556780785386
0.0334505431387202,15.5560229829951
0.0130879130089583,15.5564263879428
-0.000816482777599543,15.5567462458273
-0.00811519299350602,15.5569346562295
-0.014784176815584,15.5571230666317
-0.0206456357524653,15.5573047185999
-0.0266162314712068,15.5575093045542
-0.0324253952032501,15.5577328108985
-0.0378947956152767,15.557972597496
-0.0429249717871038,15.5582276118431
-0.0474634456436453,15.5584978379937
-0.0514849061574673,15.5587839820902
-0.0552382434562817,15.559113594377
-0.0581235114268304,15.5594350386753
-0.0604909242729732,15.5597773243252
-0.0623572647523934,15.5601436970964
-0.063736654424843,15.5605376881586
-0.0646427589479999,15.5609636493586
-0.0650873065855434,15.5614269954624
-0.0650784645763587,15.5619345588876
-0.0646188336016926,15.5624951370182
-0.0637002106229081,15.5631217681585
-0.0623000601754911,15.5638313762947
-0.0603723973628696,15.5646489976919
-0.0578234321813303,15.5656165447655
-0.0544277736146838,15.5668225710497
-0.0503519057380027,15.5682257425749
-0.0464015695173948,15.5695807640937
-0.0426298496267177,15.5708936744399
-0.0390627481053462,15.5721672816023
-0.0357134242047242,15.573402709349
-0.0325876537046192,15.5746002255492
-0.0296862692386215,15.5757596788127
-0.0270064658051534,15.5768807281511
-0.0245426464394652,15.5779629618849
-0.0222870652812512,15.5790059547456
-0.0202303683308823,15.5800092885641
-0.0183620682638434,15.5809725501463
-0.0166709652517389,15.5818953137865
-0.0150824625011369,15.5828147141099
-0.0135531247621583,15.5837576598994
-0.0120874249823704,15.5847257496053
-0.0106892787360069,15.5857211065703
-0.00936239898377743,15.5867462227011
-0.00811024223761174,15.5878040517507
-0.006935955133087,15.5888981300007
-0.00584231817927863,15.5900327389005
-0.00483168634838233,15.5912131294022
-0.00390592558627767,15.5924458399777
-0.00306634332978467,15.5937391623289
-0.00231360931246723,15.5951038506646
-0.00164765948638942,15.5965542554886
-0.00106756855892582,15.5981102507459
-0.000586599884179771,15.5997417718647
-0.000204214581372988,15.6014212750503
9.59715757028867e-05,15.6031670887851
0.00032872374291087,15.6050008683278
0.0005080157954011,15.6069516585005
0.000647511394607436,15.6090608589105
0.00076132722738352,15.611392680942
0.000865598238646145,15.6140601720719
0.000983209608241781,15.6173128688813
0.00112824795473002,15.6210550304164
0.00130625810848768,15.6250818392511
0.00151971251888697,15.6293778164415
0.00173613507522025,15.63341958634
0.00195494726795929,15.6373526825477
0.00217626112585041,15.6412638419744
0.00240089886692765,15.6452092544721
0.00263045723261942,15.6492313985241
0.00286718803746673,15.6533662332265
0.00311386654729929,15.657646878809
0.00337369963289621,15.6621057925781
0.00365032981177853,15.6667765769992
0.00394796413656311,15.6716954442285
0.00427169696971544,15.6769024923672
0.00461557869023955,15.6822492037877
0.00496617785925541,15.6874826495742
0.00532999665273879,15.69266388083
0.00570784166889481,15.6977590423258
0.00610383434962795,15.7027780859517
0.00652200929024708,15.7077243416824
0.00696710609080465,15.7126048809161
0.00744416025048815,15.717424327375
0.00795865029140336,15.722185737487
0.00851654870132591,15.7268902487723
0.00912445636124546,15.7315376093375
0.00978976428091382,15.7361268846555
0.0105209162088573,15.7406577570647
0.0113477026198707,15.7452367565337
0.0122882896636526,15.7498643363652
0.0133735006281844,15.7545813059455
0.0146544619390378,15.7594757864982
0.0162434969401616,15.7647883663225
0.0184977785462439,15.7713510996366
0.0199659448396986,15.7752542246945
0.0214779735632664,15.7791573497524
0.0227935679635932,15.7826182504998
0.0238977235231933,15.7857502005726
0.0248089437529364,15.7887363723541
0.0255068321354887,15.7916657277136
0.0259447230434189,15.7944883269918
0.0261159405492291,15.7973241841431
0.0259822329341516,15.8003400547064
0.0254052205768198,15.8039312641989
0.0243192175514288,15.8078394116967
0.0231328687766664,15.8110735760846
0.0220317982605494,15.8136953773518
0.0209582049302376,15.816075134872
0.0198951841954505,15.8183399809818
0.0188417649530642,15.8205424921382
0.0178003563303735,15.8227121023366
0.0167740351200178,15.824868358546
0.0157658914495687,15.8270255926862
0.0147788327655859,15.8291950729982
0.0138155177212762,15.8313861683505
0.012878338519545,15.8336070400918
0.0119694181240857,15.8358650953298
0.0110906149825925,15.8381673026427
0.0102435328208884,15.840520422418
0.00942952488764394,15.8429312093626
0.00864970653338596,15.8454065697401
0.00790496553657892,15.8479537133621
0.00719597138389764,15.8505803098463
0.00651917626879392,15.8533115691286
0.00586071392969939,15.8562272562181
0.00522404930564177,15.8593484404734
0.00461251010730651,15.8627004481868
0.00402948426922997,15.8663125487716
0.00347836000678628,15.8702187040062
0.00296243466808523,15.874458590769
0.00248478784300335,15.8790791048853
0.00204809808591424,15.8841370007997
0.00165441733363588,15.8897037371855
0.00130499950248259,15.8958733323301
0.00100031849504072,15.9027726075802
0.000742436640691968,15.9104968327051
0.000585093031086902,15.9172062921849
0.000474668646940734,15.9239157516647
0.000368155113074136,15.9328939747406
0.00029375220631288,15.9420287779062
0.00023962431020405,15.9520287779062
0.000206022654718297,15.9620287779062
0.000186753712355751,15.9720287779062
0.000177395038270939,15.9820287779062
0.000174896766912756,15.9920287779062
0.000177272598225804,16.0020287779062
0.000183303213114723,16.0120287779062
0.000192291516883349,16.0220287779062
0.000203892995998514,16.0320287779062
0.000218013774745481,16.0420287779062
0.000234757318930566,16.0520287779062
0.000254403800826299,16.0620287779062
0.000277413750983581,16.0720287779063
0.000304454501745374,16.0820287779063
0.000336453512723039,16.0920287779063
0.000374688609144947,16.1020287779063
0.000420933987166858,16.1120287779063
0.000474582939042055,16.1215208554907
0.000535413904010335,16.1303113192604
0.000604270605731976,16.1384432297906
0.000682208928294667,16.1459653688909
0.000770448991021208,16.1529234817315
0.000870376889818179,16.1593602097727
0.000983561645633992,16.1653153257186
0.00111177852554031,16.1708259394007
0.00125703721186996,16.1759266632783
0.00142161158904937,16.180649774951
0.0016080763996162,16.185025380283
0.00181934766918291,16.1890815723809
0.00205873306093687,16.1928445716481
0.00232998886060569,16.1963388614529
0.00263739283509752,16.1995873345411
0.00298583380936446,16.2026114446085
0.00338092456985766,16.2054313557528
0.00382915065327433,16.2080661106948
0.00433806875556188,16.2105338271695
0.00491658086316501,16.2128519287101
0.00557532892716049,16.215037445465
0.00631478311301393,16.2170759739779
0.0071297005170444,16.2189554442078
0.00803001789816312,16.2207067704354
0.00903041694535073,16.222360500392
0.0101534226496726,16.2239489316734
0.0114379761109435,16.2255129505287
0.0130248401550693,16.2271793459438
0.0152691215016577,16.2291998954594
0.0170058473250568,16.2305890591904
0.0188653941768955,16.2319782229213
0.0205940330828327,16.2332291884863
0.0221283077817463,16.23434949364
0.0235087564916395,16.2354086580837
0.024742242751257,16.2364505441191
0.0258144781885091,16.2375121063236
0.0266926179796907,16.2386385159866
0.0273118328359438,16.2399093643806
0.0274970550328238,16.2415627772172
0.0270269474095439,16.2432092347964
0.0260195795807215,16.2448556923755
0.0248571756990418,16.2462461555624
0.0235392771978483,16.2476005672761
0.0220648937622704,16.2489952519015
0.0204421961991941,16.2504712585103
0.0186759048630751,16.2520688188006
0.0167900952938243,16.2538427948935
0.0152025516273043,16.2554568057537
0.0127867033968326,16.2581989953592
0.0107719766630019,16.2608460053194
0.00909029596555066,16.2634122209925
0.00768398569360662,16.2659088308434
0.00647968981280603,16.2684016881558
0.0054291930493396,16.2709500856069
0.00451122302931021,16.2735786875262
0.00387749416582232,16.2756970442249
0.00332601226363578,16.2778154009237
0.00289510333174964,16.2797055666388
0.00253446622898712,16.2814936348779
0.00221164088825094,16.2832988504151
0.0019057483761931,16.2852393459366
0.00159398947026186,16.2875215594744
0.00121235319190531,16.2909134012199
0.000876862874213417,16.2947638550016
0.000651999509299149,16.2981474034859
0.000481154941001272,16.3015300534066
0.000340561835665385,16.3054390672596
0.000236452606962208,16.3105264399939
0.000215763958083535,16.3155090611998
0.000270153250528919,16.3200039373142
0.000390462436736849,16.3240899281387
0.000573143102575595,16.3278002009717
0.00081809240030254,16.3311799299415
0.00112719917623136,16.3342708683311
0.00150525242748376,16.3371232312429
0.00195991447692835,16.3397859948233
0.00250304595579761,16.3423095727869
0.00315296256431975,16.3447479969262
0.00393897790763237,16.3471640002569
0.00490714020035383,16.3496298509413
0.00610704185234032,16.3521846751645
0.00751636319644755,16.3547169249237
0.00903205637890975,16.3570410516121
0.0105672688276232,16.3590713137737
0.0121366067472802,16.3608729848623
0.0138091072325996,16.3625413423036
0.0156009099926271,16.3640910896199
0.0175776819835592,16.3655696977948
0.0197611710466267,16.3669778645911
0.0221934640507171,16.3683275360029
0.0249168740237972,16.3696257783412
0.0279655123105637,16.3708731981415
0.0313911953248299,16.3720760725801
0.0352419963831047,16.3732365016224
0.0395762257287526,16.374357852527
0.0444624160910711,16.3754437657688
0.0499786921923936,16.3764974990738
0.0562153008132786,16.3775221705034
0.0632860714996738,16.378522044823
0.0713263709322253,16.3795012187238
0.0805033806344066,16.3804642577441
0.0910276311630861,16.3814164058541
0.103168938751079,16.3823637882103
0.117288742808334,16.3833142877492
0.1338847638217,16.3842781512357
0.153684525072814,16.3852699846424
0.176693293739631,16.3862665700465
0.203441154165434,16.3872744128636
0.234725500907454,16.3883077542499
0.271700269716883,16.3893890068806
0.315013220648302,16.3905283989606
0.356807650443736,16.3915513838036
0.39152558065261,16.3923797854451
0.421460646747037,16.3931066159038
0.447636974907114,16.3937808862138
0.470258079268139,16.3944307357926
0.489093687672448,16.3950782027604
0.503498783051754,16.3957460014848
0.512178278087762,16.3964646338253
0.512430500817104,16.3972770323748
0.501695180351868,16.398102667403
0.478784674702027,16.3989579543334
0.442116776561373,16.399855296811
0.389887392794095,16.4008036535632
0.345499323565498,16.4014701341582
0.295663392591054,16.4021366147532
0.251205489912076,16.4026896914219
0.213263357562349,16.4031470788744
0.180021865736904,16.4035465900332
0.150285767831993,16.4039104353293
0.12334969590285,16.4042518699883
0.0987416883727337,16.4045801541188
0.076090508498115,16.4049031283682
0.055032964093809,16.4052293288101
0.0350643842133908,16.4055719867483
0.014904699969352,16.4059666404514
0.00642739128131744,16.4061532782107
-0.00138925409032295,16.40633991597
-0.00937877865397563,16.4065487740074
-0.0159191541292657,16.4067369132894
-0.0218304767398756,16.4069237896668
-0.0277846676007463,16.4071325672143
-0.0335342758986961,16.4073595977119
-0.0389199367279907,16.4076026109878
-0.0438534473764366,16.407860790792
-0.0482890049334067,16.4081342801118
-0.0522031551139487,16.408423904465
-0.0557636853505618,16.4087498412362
-0.0585557176199422,16.4090749045053
-0.0608334428950466,16.4094213786808
-0.062612763245982,16.4097925094132
-0.0639078053461596,16.4101919559326
-0.0647319885408283,16.4106242338571
-0.0650965313388176,16.4110949724932
-0.0650087871023191,16.4116112955242
-0.0644699925387361,16.4121825283689
-0.0634696320562149,16.4128224200443
-0.0619821237687168,16.4135488670422
-0.0599557707889696,16.4143889216056
-0.0572836597658304,16.4153891663796
-0.0536946553429026,16.4166544197133
-0.0496387441613501,16.4180477687274
-0.0457193153329348,16.4193948215852
-0.0419844119028526,16.420700385717
-0.0384571467827684,16.4219668949133
-0.0351490987644866,16.4231952870261
-0.0320650252737592,16.4243857392173
-0.0292050229853528,16.4255380591718
-0.0265657235994616,16.4266518907969
-0.0241410929134848,16.4277268199807
-0.0219230521950906,16.4287624240871
-0.0199020059747025,16.4297582879674
-0.0180673070363219,16.4307139987559
-0.0164076678930481,16.4316291261679
-0.0148291935788137,16.4325528323123
-0.013310815816384,16.4335002966977
-0.0118567927489809,16.4344732738434
-0.0104710064551549,16.4354739490782
-0.00915712546840037,16.4365048923169
-0.00791855190968451,16.4375691551445
-0.00675836747826354,16.4386703981606
-0.00567927656886588,16.439813063282
-0.00468354608170077,16.4410026125355
-0.00377294083997341,16.4422458684675
-0.00294865240865881,16.4435515159973
-0.00221121707107986,16.4449308730163
-0.00156041472798259,16.4463991348889
-0.000995131832294382,16.4479775180032
-0.000533025210842155,16.4496165423003
-0.000166192491873963,16.4513070408605
0.000121305056326306,16.4530674688503
0.000344067089617123,16.4549206212221
0.000515981515495912,16.4568973683213
0.00065074594525517,16.4590423200247
0.000762725769041899,16.4614260304098
0.000868828023789205,16.4641767173866
0.000994747192974901,16.4675965145559
0.00114590016936096,16.4713589783318
0.00133495313654266,16.4754853491158
0.00155141797220494,16.479726579718
0.00177046200415567,16.4837453216317
0.00199168590413191,16.4876735610264
0.00221538231489859,16.4915908941028
0.00244257714702555,16.4955504666345
0.00267504151854536,16.4995933240648
0.00291517007860895,16.5037547951815
0.00316585410934947,16.5080677771821
0.00343040922069922,16.5125648487726
0.00371260097057064,16.5172799945719
0.00401680759833728,16.5222500370833
0.00434839244631547,16.5275158910978
0.00469455696372841,16.532822085878
0.00504986928599293,16.5380455677504
0.00541813032350039,16.5432030148369
0.00580142336782202,16.548278605878
0.00620368579726348,16.5532781806433
0.00662920288931239,16.5582069311117
0.00708278363421036,16.563071114503
0.00756959507850945,16.5678750781034
0.00809525038224218,16.5726213923019
0.00866588924290414,16.5773108332869
0.00928831362479442,16.5819429138366
0.00997016828944351,16.5865167218683
0.0107248998739511,16.591059027114
0.0115794282317327,16.5956483589335
0.0125546196662137,16.6002943137146
0.0136850054621006,16.6050458628123
0.0150314194476596,16.6100151497738
0.0167424058029153,16.6155333421061
0.0189999378426526,16.6219180585766
0.0204208802446559,16.6256421854894
0.0218638444253032,16.6293663124022
0.0231156816641429,16.6327085880433
0.0241663341630679,16.6357850203818
0.0250237117186397,16.6387554052872
0.0256504508701879,16.6416437203861
0.0260174892367926,16.644456879709
0.0261117513097859,16.6473213579298
0.0258798592246454,16.6504332841698
0.025104816330061,16.6543865160233
0.0239736481154794,16.658050569048
0.0228297163339869,16.6610244259302
0.0217411971009823,16.6635560485417
0.0206711424655098,16.6658970389692
0.0196105977537178,16.6681413108807
0.0185601508972013,16.6703325968349
0.0175225186468352,16.6724969275944
0.0165008165834144,16.6746521401498
0.0154980970669414,16.6768115869799
0.0145172048133683,16.6789859350703
0.0135607280808328,16.681184171035
0.0126309865614739,16.6834142139109
0.0117300325603211,16.6856833204242
0.0108596548687025,16.6879983793751
0.010021389444544,16.6903661259433
0.0092165257781588,16.6927933300803
0.00844611557248784,16.6952869608851
0.0077109885031802,16.6978543207135
0.00701175670345303,16.7005032178401
0.00633958366932342,16.7032821117132
0.00568668250187559,16.7062507405034
0.0050564661877415,16.7094313198458
0.00445228502345213,16.7128501597229
0.00387753271194792,16.7165377111246
0.00333558365103358,16.7205293485524
0.0028296911329168,16.7248664994481
0.00236284576166908,16.7295983812033
0.00193758252409296,16.7347850554284
0.00155574829111567,16.7405031191877
0.0012183734237644,16.7468543135452
0.000925754952286374,16.7539759824802
0.000748422443065589,16.7594876740074
0.000612927071913397,16.7649993655347
0.00047277551811965,16.773100729237
0.000375395590984408,16.7812100764338
0.000295815455746461,16.7906502354469
0.000240116720612016,16.8006502354469
0.000205300729956183,16.8106502354469
0.00018508368709867,16.8206502354469
0.000174973059578926,16.8306502354469
0.000171848660398196,16.8406502354469
0.000173662074706981,16.8506502354469
0.000179145513570518,16.8606502354469
0.00018756524045369,16.8706502354469
0.000198546859796555,16.8806502354469
0.000211968352694256,16.8906502354469
0.000227902728037552,16.9006502354469
0.000246593835550487,16.9106502354469
0.000268456086134446,16.9206502354469
0.000294095631670637,16.9306502354469
0.000324355936034465,16.9406502354469
0.000360395994044273,16.9506502354469
0.000403816958519023,16.9606502354469
0.000455213297449047,16.9703612896904
0.000513574614744943,16.9793632582949
0.000579658712206596,16.987691418859
0.000654467604513614,16.995395268418
0.000739170731714869,17.0025215193692
0.000835100523337316,17.0091137153741
0.000943766042082991,17.0152124648915
0.00106687468773534,17.020855657401
0.0012063589153973,17.0260786393397
0.00136440564704212,17.0309143739892
0.00154349009631281,17.0353936044812
0.00174641531543071,17.0395450145918
0.00197635904297498,17.0433953752365
0.0022369278026688,17.0469696780112
0.00253222510297148,17.0502912782463
0.00286693392583785,17.0533820459894
0.00324642231568278,17.0562625144085
0.00367687875270029,17.0589520400961
0.00416549197104709,17.0614689896925
0.00472069798953672,17.0638309568549
0.00535252898805862,17.0660550352048
0.00606963548434517,17.0681488839218
0.00685976567876119,17.0700737469245
0.0077316238225436,17.0718606372109
0.00869823337637444,17.0735402734078
0.00977900917976736,17.0751438315719
0.0110060420674553,17.0767081710722
0.0124762747687598,17.0783244371625
0.0144301134762521,17.0801720103931
0.0163052646129583,17.0817314399651
0.0183555575096642,17.0832908695371
0.0201750630080595,17.0846112143231
0.0217583984109009,17.0857579589888
0.0231788495846368,17.086827291789
0.0244528667819999,17.0878692430999
0.0255709371261284,17.0889210689581
0.0265055398165607,17.0900241751271
0.0272029898251758,17.0912445933364
0.0275366613764675,17.0927476064903
0.0272224347954683,17.0944871781891
0.0262703516824429,17.0962267498878
0.0251381675815964,17.0976439166784
0.0238530600518205,17.0989963568606
0.0224098650568276,17.1003782396751
0.0208163512653145,17.1018335769219
0.0190784919199166,17.1034014496204
0.0184284456898729,17.1039920601415
0.0177888266671192,17.1045826706625
0.0163667590260055,17.1059553200913
0.01374191492634,17.1087595485627
0.0115569678464574,17.1114574006497
0.00974891140069685,17.1140477402433
0.00823386584536999,17.1165708053895
0.00695605119282925,17.1190484967016
0.00584337738608008,17.1215699149911
0.0048711965738481,17.1241617919545
0.00402170063347464,17.1268471034359
0.00348581987532588,17.1288209228849
0.00301526102829025,17.130794742334
0.00263324530196834,17.1326118599424
0.00230440494190924,17.1343742608088
0.00200378996029907,17.1361905650836
0.00171234816767845,17.138193157287
0.00140309777729642,17.1406664864512
0.00103173841203798,17.1443320594646
0.000748771125661174,17.1479563776868
0.000552916178532473,17.1512136654512
0.000396194852165645,17.1546546319863
0.000266279578029756,17.1587774584574
0.000178492634083262,17.1643209944671
0.000181269934524756,17.1691157879892
0.000254084317866854,17.1735033467162
0.000390413087406492,17.177480235137
0.000588324063326964,17.1810949332331
0.000848150884332259,17.1843852383543
0.00117278838762174,17.1873992814906
0.00156772493162281,17.1901867818133
0.00204165824946357,17.192797637254
0.00260794542314324,17.1952833760619
0.00328752576304024,17.1977008084066
0.0041155743740902,17.2001207421941
0.00514554668461036,17.2026196480937
0.00642772029679497,17.2052234058306
0.00790087280206911,17.2077525406021
0.00944266005873124,17.2100176979764
0.0109884978966008,17.2119813650515
0.012574857936213,17.2137329870348
0.0142742001708882,17.2153637745498
0.0161091701705609,17.2168899881185
0.0181329851838119,17.218344633339
0.0203824105263575,17.2197376431056
0.022885941911304,17.2210706723392
0.0256919957508293,17.2223537706027
0.0288359028080489,17.2235874708113
0.0323701833816349,17.22477752807
0.0363466710253609,17.2259266219931
0.0408219276237866,17.2270369713344
0.0458688598505603,17.2281127452457
0.0515689940897157,17.2291572440359
0.0580183694593759,17.2301738708757
0.0653332334156054,17.2311664409344
0.0736574619841633,17.2321393671215
0.083167740803392,17.2330973328271
0.0940874970090233,17.2340457463771
0.106706298638381,17.2349910980956
0.12141008237154,17.2359414727541
0.13873948029324,17.2369078402795
0.159372702870594,17.237900580393
0.183283256765969,17.2388963373205
0.211106039576684,17.2399058499213
0.243698063748963,17.2409444558202
0.282335254538854,17.2420373254936
0.32690974808461,17.2431773954549
0.367024016522801,17.2441415487817
0.400610646714692,17.2449367360066
0.429735617544431,17.245644947208
0.455186625558598,17.2463083806706
0.477058231590112,17.2469530394222
0.495032318636175,17.2476006958834
0.508341821043476,17.2482753045217
0.515444821478547,17.2490114576309
0.513359840517823,17.249823348537
0.500023298410325,17.2506529288367
0.474141671205741,17.2515159975968
0.434045078233938,17.252424108843
0.377881376693094,17.253386041044
0.334373469602963,17.2540127058244
0.286305957704375,17.2546393706048
0.243370130836681,17.2551660660511
0.206434453453855,17.2556082920948
0.173905635770109,17.2559985282623
0.144723321943104,17.2563563783626
0.118241757556132,17.2566939742483
0.0940147472153999,17.2570201172319
0.0716776998422701,17.2573426130847
0.0508521826802017,17.2576705290461
0.0309568940470266,17.2580193112577
0.0101988646173188,17.258438720684
-0.000657476314029861,17.2586912925417
-0.00798537631520718,17.2588797696104
-0.0146808515834586,17.2590682466791
-0.0205395029424399,17.2592491259001
-0.0265153740263999,17.2594530424989
-0.0323351453344996,17.2596759491955
-0.0378180496265588,17.2599151639699
-0.0428631620035596,17.2601696067166
-0.047417135493246,17.2604392425158
-0.0514545520964355,17.2607247629726
-0.0552216292187013,17.261053277951
-0.0581229476136257,17.2613739622071
-0.0605058410206044,17.2617154167339
-0.0623870384020733,17.2620808667795
-0.063780672185618,17.2624738244362
-0.06470045759444,17.2628986178546
-0.0651582089315466,17.263360631317
-0.065162219101099,17.2638666566569
-0.0647152644490304,17.2644254349489
-0.0638094929348061,17.265049873424
-0.0624227577673795,17.265756786778
-0.0605097773718246,17.266570954665
-0.0579783131802734,17.2675337160793
-0.0546080830207953,17.2687317545321
-0.0505271512439583,17.2701366742027
-0.0465699187205719,17.271493163659
-0.0427902278053624,17.2728074864768
-0.0392145862182657,17.2740824991582
-0.0358564403357398,17.2753193476286
-0.0327217597366749,17.2765183089508
-0.0298115234414372,17.2776792343391
-0.0271230424408423,17.278801782189
-0.0246508122397691,17.2798855388393
-0.0223871589636328,17.2809300767606
-0.020322781982059,17.2819349759298
-0.018447230338779,17.2828998221752
-0.0167493252769826,17.2838241900451
-0.0151585998200868,17.2847426731606
-0.0136268328164954,17.2856846580428
-0.0121585431944933,17.2866517099437
-0.0107576531861493,17.2876459392249
-0.00942788473170133,17.2886698214965
-0.00817270541260846,17.2897262901258
-0.00699527512948808,17.2908188555534
-0.00589838996294276,17.2919517659574
-0.00488442289826443,17.2931302286443
-0.00395526052254741,17.2943607235285
-0.00311223383222609,17.2956514615556
-0.00235603953687811,17.2970130816927
-0.00168664486574759,17.2984597627104
-0.00110316179804011,17.3000111077526
-0.000617886375006731,17.3016411000792
-0.000231901651717355,17.3033183434834
7.12774269378208e-05,17.3050611521314
0.000306453617771949,17.3068909511237
0.00048762257395351,17.3088364203785
0.000628446094159507,17.3109383246329
0.000742997948787277,17.3132596413338
0.000847274042580961,17.3159105490786
0.000963671423442985,17.3191312298344
0.00110785110944967,17.3228706211076
0.00128393608500449,17.3268784499225
0.00150249095561863,17.3312938420149
0.00172112646536024,17.3353843681838
0.00194035594712294,17.3393312414902
0.0021609199977867,17.3432360798477
0.00238395695860869,17.3471611243973
0.00261122756715237,17.351151637338
0.00284505387023975,17.3552448482776
0.00308822020381868,17.3594743477483
0.00334389277776588,17.3638724638233
0.00361562687330047,17.3684722208261
0.00390747623994253,17.3733088414792
0.00422427027377579,17.3784210565919
0.00456875001650075,17.3837996246739
0.00491727596821633,17.3890266032896
0.00527995439458127,17.3942222158155
0.00565589099020091,17.3993281263916
0.00604947350067304,17.404359192337
0.00646445025932709,17.4093156276328
0.00690556393955811,17.4142052818719
0.00737779526739434,17.4190328778914
0.00788658993362365,17.4238019340235
0.00843786625983407,17.4285139321853
0.00903814929963054,17.4331688685113
0.00969472185294571,17.4377658871815
0.0104158683820068,17.4423044952389
0.0112280649567943,17.4468760295412
0.0121511142392151,17.4514950544494
0.0132136515251859,17.4561958577851
0.0144627032841619,17.4610566551143
0.0159965959603739,17.4662830460365
0.018168002981237,17.4727188867377
0.0196816161838214,17.4767880924683
0.0212546363314983,17.4808572981988
0.0226101405047218,17.484400485995
0.0237444813932136,17.4875691997069
0.0246848893641712,17.4905682050014
0.0254217280653982,17.4935239428657
0.0258977412629421,17.4963554371866
0.0261093408400876,17.4991806850568
0.0260249104962669,17.5021552429322
0.0255324920260601,17.5056095284886
0.0244602705636581,17.5096867949014
0.023523403772029,17.5123518287027
0.022445834240656,17.5150168625041
0.0213696293979025,17.5174568693275
0.0203033232627051,17.5197568679783
0.0192460350265067,17.5219789519469
0.0181996780689907,17.5241584131248
0.017167211705094,17.5263177783476
0.0161517574768983,17.5284730414126
0.0151563053045728,17.5306364695166
0.0141836131985264,17.5328180569395
0.0132361770236126,17.5350263598326
0.0123162229930317,17.5372690258517
0.0114257105533626,17.539553153018
0.010566341087415,17.5418855461099
0.0097395623954493,17.5442729315991
0.00894658049323613,17.5467221237247
0.00818836969199028,17.5492401791312
0.0074656812069989,17.5518345533425
0.00677905557812627,17.5545132513107
0.00611310078046924,17.557355315282
0.0054676333185073,17.5603942142911
0.00484599783434267,17.5636537061255
0.00425156530157026,17.5671614524866
0.00368773368756305,17.5709494892931
0.00315784881667333,17.5750551297039
0.00266509227332027,17.5795222430956
0.00221232000913626,17.5844033710716
0.00180185945881227,17.5897634387568
0.00143528018424945,17.5956866365599
0.00111334059243521,17.6022857856987
0.000836138506577977,17.6097130289343
0.000616577477134273,17.6179047946372
0.000487508984903461,17.6252105523004
0.000383855689389163,17.6335151448554
0.000303050906864718,17.6427815765571
0.000245049739481494,17.6527815765571
0.000208674628221023,17.6627815765571
0.000187427060216288,17.6727815765571
0.000176666375213161,17.6827815765571
0.000173158806046337,17.6927815765571
0.000174772553597359,17.7027815765571
0.000180183797637794,17.7127815765571
0.000188624273065345,17.7227815765571
0.00019970016081542,17.7327815765571
0.000213280261384566,17.7427815765571
0.000229435794956809,17.7527815765571
0.000248414992048507,17.7627815765571
0.000270642770667993,17.7727815765571
0.000296742865814138,17.7827815765571
0.000327585482715793,17.7927815765571
0.000364369221609666,17.8027815765571
0.000408754020495725,17.8127815765571
0.000460978633124451,17.8224237928339
0.000520265149605735,17.8313584179897
0.000587401612276007,17.8396233407741
0.000663411954874625,17.8472680058269
0.000749487248006147,17.8543389637701
0.000846983218371021,17.8608795911647
0.000957435060131066,17.8669303296351
0.00108257973619881,17.8725289029512
0.00122438330036954,17.8777104923618
0.00138507054854457,17.8825078999346
0.0015671599687384,17.8869517137755
0.00177350376692409,17.8910704702765
0.00200733627236115,17.8948908001195
0.00227232920803493,17.8984375636519
0.00257266212096986,17.9017339964464
0.00291310782537003,17.9048018621244
0.00329914139807392,17.9076616023177
0.00373708149662276,17.9103325013037
0.00423427834875014,17.9128328782335
0.00479937304609995,17.9151803116426
0.00544266678109641,17.917391926182
0.0061692749753569,17.9194655301661
0.00697001057874311,17.9213743172641
0.00785414523412883,17.9231493641543
0.00883547028280017,17.9248214216864
0.00993483431641122,17.9264223021929
0.0111874524639796,17.9279908549865
0.0127091817986988,17.9296341313071
0.0147867762386496,17.9315612962076
0.0165720815145436,17.9330257753423
0.0185033283042195,17.9344902544769
0.0202764165558325,17.9357818849366
0.0218359275214823,17.9369205117852
0.0232370327609312,17.9379881426835
0.0244919328824255,17.9390320921052
0.0255892845536006,17.9400894351161
0.0264996946152586,17.9412028531667
0.027165778877453,17.9424428694421
0.0274462596353428,17.9439967730636
0.0270754776252683,17.9456999645349
0.0261085687806194,17.9474031560062
0.0249697085208407,17.9488116695427
0.0236767466996049,17.9501658861158
0.0222267406214625,17.9515527514483
0.0206278115290801,17.9530150786218
0.0188856705786825,17.9545921396671
0.0175054966920086,17.9558668967785
0.0161985647809269,17.9571416538898
0.0136223908505151,17.9599156084653
0.0114720158636702,17.9625888970067
0.00968689199792947,17.9651612273032
0.00818510770090521,17.9676748753438
0.00691279464094456,17.9701538017393
0.0058044958887006,17.9726776655807
0.00483600114529951,17.9752727602666
0.00398964978975643,17.9779620449733
0.00335414358687728,17.9803460323752
0.0029088057904807,17.9822722616305
0.00254532016547653,17.9840499874802
0.00222348107089692,17.9858216300789
0.0019216203174769,17.9876992376743
0.00161896271399438,17.9898556870807
0.00127045739926217,17.9928083434956
0.000917893041666413,17.9965766802426
0.000674209442850349,17.9999519180884
0.000492182225271682,18.0032097978957
0.000340284194700344,18.0068654862141
0.000216648420642025,18.0114541952557
0.000157481244065002,18.0167294735692
0.00018009062004627,18.0213886875047
0.000270393853119314,18.0256358146332
0.000423324383199898,18.0294869787841
0.000637815455566466,18.0329885406135
0.000914946476359366,18.0361813436841
0.00125869376643278,18.0391169159661
0.00167554841750057,18.0418442031769
0.00217587706274448,18.0444145146464
0.00277604859601667,18.0468832557043
0.00350195315569011,18.0493126219881
0.00439567148933799,18.0517776431181
0.00552151587942226,18.0543613094216
0.00690991906004727,18.0570334386089
0.00843593849324394,18.0595242688299
0.0099677210229279,18.0616730791392
0.0115053734640089,18.063544345714
0.0131133821685232,18.0652463520802
0.0148396999161249,18.0668327538566
0.0167364564235855,18.0683410267152
0.0188199509003871,18.0697701116071
0.0211447081403252,18.0711424847447
0.0237373441132878,18.0724573391374
0.0266464831002454,18.073723646012
0.0299123456484716,18.0749431902755
0.0335826829534868,18.0761190463135
0.0377142722561034,18.0772550191071
0.0423683720502679,18.0783538164955
0.047617225603737,18.0794186087382
0.053548864688675,18.0804532658462
0.060265994012288,18.081461406791
0.0678927604207362,18.0824469542168
0.0765796508134985,18.0834140456227
0.0865182269434873,18.0843677877535
0.0979503882165758,18.0853138782124
0.111192321188331,18.0862592384083
0.126671719435573,18.0872127230736
0.144994152038654,18.088186402861
0.166613483856735,18.0891785081102
0.191692738639895,18.0901765704263
0.220924522426784,18.0911924442023
0.255263186620007,18.09224356897
0.296207137584952,18.0933606586568
0.331926896732178,18.0942564936891
0.369394263951855,18.0951523287213
0.402580612270461,18.0959366578673
0.431537966123867,18.0966409179992
0.456843124755747,18.0973021371101
0.478561377778758,18.0979457536364
0.496355694040706,18.0985935257081
0.509431160713456,18.0992697369848
0.516186080704768,18.1000100258318
0.513594891692637,18.1008218802335
0.499690996215771,18.1016523892294
0.473157559843369,18.1025172161696
0.43230589954364,18.1034277386129
0.375273025772199,18.1043927420249
0.331959828189935,18.1050111872142
0.284265023772745,18.1056296324035
0.24164918103141,18.1061508211906
0.204928459312578,18.1065898231003
0.172554187770712,18.1069780584018
0.143493016265987,18.1073346071864
0.117111268398145,18.1076713727975
0.0929679019121606,18.1079970659815
0.0706992660242128,18.1083194974959
0.0499224249925165,18.108647882058
0.0300345402673202,18.1089982797157
0.00907839790130013,18.1094249869379
-0.00102691781520575,18.1096617238045
-0.00830420581095406,18.1098495683513
-0.0149538448495156,18.1100374128981
-0.0208309353073821,18.1102195691109
-0.0268073129797527,18.1104244697308
-0.0326155311211653,18.1106481607893
-0.0380800012155719,18.1108880648297
-0.0431028704280927,18.1111431678315
-0.0476326079490052,18.1114134784102
-0.0516446474123965,18.1116997200239
-0.0553846618163114,18.1120291927109
-0.0582604586348199,18.1123507840623
-0.060618326129748,18.1126932724956
-0.0624750741852235,18.1130599144849
-0.0638448641462838,18.113454259817
-0.0647413610014867,18.1138806845077
-0.0651762485857689,18.1143446357944
-0.0651575961657778,18.1148529913339
-0.0646878322343775,18.1154146142105
-0.0637583858498016,18.1160426793422
-0.0623462177242647,18.1167542607204
-0.0604043628012462,18.1175747252052
-0.0578367772780565,18.1185467485401
-0.0544105352342953,18.1197614656976
-0.0503331063611266,18.1211637002334
-0.0463824258537706,18.1225181748839
-0.0426110037692284,18.123830709346
-0.0390445107691964,18.1251040388909
-0.0356959515549109,18.1263392476812
-0.0325710222971835,18.127536581069
-0.0296705108315334,18.1286958744408
-0.0269915851512634,18.1298167788017
-0.0245286309626085,18.1308988774794
-0.0222738910528445,18.1319417419962
-0.0202180038015653,18.1329449520438
-0.0183504769478745,18.1339080929327
-0.0166601076165197,18.1348307378398
-0.0150720439534411,18.1357501842415
-0.0135431677679325,18.1366931797889
-0.0120779489454675,18.1376613248998
-0.0106803028295839,18.1386567435801
-0.0093539421811449,18.1396819286284
-0.00810232338115603,18.1407398349628
-0.00692859302017252,18.1418340003844
-0.00583553167700055,18.1429687083376
-0.0048254945661898,18.1441492124267
-0.0039003481286413,18.1453820547153
-0.00306140066155565,18.1466755318931
-0.00230932330806677,18.1480404053226
-0.00164405427257146,18.1494910362127
-0.00106467182808992,18.1510473154526
-0.000584490661599502,18.1526789192079
-0.000202860162604718,18.1543585512511
9.65914802675259e-05,18.1561045403219
0.000328620023778783,18.1579385556403
0.000507188616454597,18.1598896643851
0.000645947705796265,18.1619993053285
0.000758995934629872,18.1643317664133
0.000862440338606792,18.1670002743339
0.00097911593102008,18.1702549570171
0.00112303292216811,18.1739972758726
0.00129987741154755,18.1780252406479
0.00151640433470329,18.1824066646808
0.00173355915387908,18.1864814538818
0.00195162174575507,18.1904215128608
0.0021712220585265,18.1943244767339
0.00239345818754029,18.1982509823906
0.00262007287901993,18.2022455421382
0.00285337957884872,18.20634502932
0.00309615730571422,18.2105828687085
0.00335157095515515,18.2149913735617
0.00362317879566114,18.2196036566543
0.00391504653610533,18.2244551246688
0.00423203295607447,18.2295847772402
0.00457550181408403,18.2349612252489
0.0049234416359189,18.24019173459
0.00528536159645323,18.2453871662991
0.00566064570542011,18.2504931424812
0.00605363361239303,18.2555238264339
0.00646811806321046,18.2604800737368
0.00690882778866075,18.2653696413974
0.00738073790988081,18.2701972787757
0.00788928124215615,18.2749664503302
0.00844036464511649,18.279678597896
0.00904050309744866,18.2843336863218
0.00969697152124983,18.288930841955
0.010418048639116,18.2934695646649
0.0112302072292027,18.2980411987046
0.0121532539331885,18.3026603320737
0.0132158319300142,18.3073612800198
0.0144649910928614,18.3122223272526
0.0159991403086213,18.3174492954674
0.018171569957187,18.3238876355714
0.0196846941822172,18.3279553174767
0.0212570923204231,18.332022999382
0.022612206047279,18.3355654764619
0.0237462593390552,18.3387338820094
0.0246863986369577,18.3417327766887
0.0254228997258705,18.3446883133065
0.0258985873259025,18.3475197433427
0.0261098737574095,18.3503450754272
0.0260250710636543,18.3533199426668
0.0255320364609681,18.356775190635
0.0244597371796144,18.3608510220727
0.0235227973730621,18.3635157596629
0.0224452275205645,18.3661804972531
0.021369020081369,18.3686203508506
0.0203027051071036,18.3709202819532
0.0192454072919731,18.3731423441601
0.0181990417361546,18.3753218131303
0.0171665679851331,18.3774812086279
0.01615110735245,18.379636521261
0.0151556493711323,18.381800017086
0.0141829516243342,18.3839816905104
0.0132355095211919,18.3861900988251
0.01231554884671,18.3884328916306
0.0114250286083543,18.3907171698028
0.0105656497978482,18.3930497418243
0.00973885985142544,18.3954373389119
0.00894586443538986,18.3978867813396
0.00818763761255392,18.4004051330862
0.00746493038002842,18.4029998588682
0.00677828317135641,18.4056789748555
0.00611234791802342,18.4085213510453
0.00546690371243228,18.4115606047439
0.00484529576823367,18.414820498928
0.00425089502318499,18.4183287046091
0.00368709934651624,18.4221172693908
0.00315725436404513,18.4262235214813
0.0026645413384281,18.430691350108
0.00221181573570905,18.4355733241857
0.00180140423489783,18.4409344095694
0.001434875486041,18.4468588594356
0.00111298700403009,18.4534595944282
0.000835836010008073,18.460888917244
0.00061692441442347,18.4690821225546
0.000484710460437581,18.4766172923884
0.000383241305037322,18.4848384873643
0.000302830021805709,18.4941410639224
0.000245461201048438,18.5041410639224
0.000209575342746888,18.5141410639224
0.000188722294844036,18.5241410639224
0.00017829300055695,18.5341410639224
0.000175080417268032,18.5441410639224
0.00017697554497488,18.5541410639224
0.000182673153317323,18.5641410639224
0.000191420283583561,18.5741410639224
0.000202836854781961,18.5841410639224
0.0002168056508756,18.5941410639224
0.000233413809876316,18.6041410639224
0.000252929134761408,18.6141410639224
0.000275801855414514,18.6241410639225
0.000302689645542628,18.6341410639225
0.000334509582176067,18.6441410639225
0.000372526789201135,18.6541410639225
0.000418498258099493,18.6641410639225
0.00047198677616488,18.6736618888676
0.000532657838052268,18.6824793350925
0.000601347292230984,18.6906355941211
0.00067910881498699,18.6981797002725
0.000767161484638261,18.7051576564566
0.000866890710672052,18.7116123296968
0.000979864845054279,18.7175836906346
0.00110785838511039,18.7231090244971
0.00125288010114573,18.7282231005315
0.00141720290547261,18.7329583365923
0.00160340038158209,18.7373449642863
0.00181438731706416,18.7414111900232
0.00205347002536564,18.7451833372638
0.00232440330935947,18.7486859831505
0.00263146342213586,18.7519421058607
0.00297953754621914,18.7549732375867
0.00337423690512115,18.7577996151755
0.00382204560684293,18.7604403492087
0.00433051920916422,18.7629136216929
0.00490855934973255,18.7652369184822
0.00556680906087903,18.7674273319591
0.00630583791979847,18.7694706732975
0.00712037007479935,18.7713546569942
0.00802037512781512,18.7731103158837
0.00902059921422831,18.7747683455322
0.0101437012150776,18.7763612558609
0.0114289490873395,18.7779303317757
0.0130179849827897,18.7796034114509
0.0152741699771627,18.7816396044251
0.0170069995833044,18.7830294665462
0.0188606877719195,18.7844193286674
0.0205790573182989,18.7856687025701
0.0221050226679124,18.7867893016092
0.0234779564759952,18.7878498516482
0.0247040140197753,18.7888939071046
0.0257684912132255,18.7899584913197
0.0266380633558216,18.7910892163131
0.0272468320704196,18.7923671435186
0.0274142939306174,18.7940390139181
0.0269285824184983,18.7956816715145
0.0259143419168426,18.797324329111
0.0247487395376251,18.7987147391484
0.0234284572453407,18.8000711000921
0.0219526226461893,18.8014685591427
0.0203294008869094,18.8029479479561
0.0185634070656296,18.8045496048
0.0166804997983607,18.8063288212332
0.0149751924257149,18.8080773193455
0.0126084209950276,18.8107958572044
0.0106333597838191,18.8134200009935
0.00898083895175836,18.8159680649371
0.007593596823578,18.8184549930026
0.00639946978398407,18.8209507957447
0.00535737106705428,18.823504094349
0.00444658612010777,18.8261390861669
0.00383518301581363,18.8282004923361
0.00330105923369635,18.8302618985054
0.00287693696177145,18.8321255273414
0.00251866830939495,18.8339022549695
0.00219583268316625,18.8357066914061
0.00188778969621663,18.8376600341508
0.0015702884398466,18.8399867508904
0.0011730446761642,18.8435433540375
0.000839797243022742,18.8474202959501
0.000617182773500547,18.8508186145327
0.000446007372185184,18.8542661904347
0.000304478125051815,18.8583105425701
0.000201670087133674,18.8637137703363
0.000189852587249162,18.8685838977853
0.000250784372718531,18.8730205448081
0.000376668106362168,18.8770460599872
0.00056460095764964,18.8807019678014
0.000814778676439907,18.8840324059951
0.00112965171801558,18.8870825252078
0.00151449754608486,18.8899026407727
0.00197767227711692,18.8925423787607
0.00253231489858118,18.8950542079313
0.00319904366785892,18.8974956497073
0.00401117392975859,18.8999345431458
0.00502228252373826,18.9024520046422
0.00628444763752167,18.9050793155048
0.00773937258257868,18.9076372425168
0.00926452769147591,18.9099302795811
0.0107937130661438,18.9119171058291
0.0123597214839572,18.9136852195399
0.0140394559302678,18.9153329967808
0.015845193436644,18.9168677834181
0.0178424484668431,18.9183346306705
0.0200509196133767,18.9197320200576
0.0225163583874354,18.9210734184829
0.0252788434733904,18.9223639563096
0.0283739209498831,18.9236046107758
0.0318531249876462,18.9248011386564
0.0357653047063239,18.9259556583628
0.0401695673909103,18.9270714887367
0.0451356666334805,18.9281522776112
0.0507433000316068,18.9292013075752
0.0570847830817481,18.9302217381545
0.0642763863364241,18.9312178279308
0.0724569733481854,18.9321937286708
0.0817982628239429,18.9331540607236
0.0925169495693586,18.9341041455641
0.104892441954989,18.9350502930262
0.119297330477851,18.9360004393602
0.136249871304484,18.9369651884399
0.156497806455309,18.9379590795883
0.179954056526562,18.9389549951728
0.207233782849278,18.9399633434436
0.239162705538875,18.9409988694566
0.276951096791058,18.9420852250461
0.320893796614278,18.9432244092187
0.361876717435973,18.9442176915546
0.396057809936333,18.9450293414066
0.425616010745979,18.9457466982826
0.451458099513702,18.9464153151084
0.473735195359734,18.9470622511941
0.492175866515178,18.9477093856127
0.506078826557625,18.9483799847447
0.514036944797091,18.9491063996842
0.513198129317586,18.949918202311
0.501246340052366,18.9507454096479
0.476943294698909,18.951604170052
0.43866277930565,18.9525064974658
0.384574966372958,18.9534612178738
0.340552570612583,18.9541089742917
0.29150498357216,18.9547567307096
0.24773082721849,18.9552974225245
0.210236303720837,18.9557477126641
0.177308650731126,18.9561428794341
0.147815102490613,18.9565039003187
0.121077598943117,18.9568435018532
0.0966358691705449,18.9571707262197
0.0741217562266612,18.957493388568
0.0531656476047474,18.9578202453189
0.0332308592823733,18.958165448902
0.0128371550271308,18.9585700788895
-0.000693001069372335,18.9588813821294
-0.00800975022650537,18.9590699247813
-0.0146951549166307,18.9592584674333
-0.0205516900337187,18.9594396228607
-0.0265235884173318,18.9596438067626
-0.0323381939891024,18.9598669746656
-0.0378153568042319,18.9601064516518
-0.0428545335556371,18.9603611629955
-0.0474026045779117,18.9606310778624
-0.0514340406076252,18.9609168913186
-0.0551971209863907,18.9612459900106
-0.058092425071694,18.9615670252047
-0.0604696084394144,18.9619088542757
-0.0623454212198183,18.9622747104727
-0.0637339814766303,18.9626681114237
-0.0646489794464439,18.9630933919308
-0.0651021956545999,18.9635559445361
-0.0651018809563201,18.9640625716393
-0.0646507606446302,18.9646220283484
-0.0637408859677602,18.9652472580937
-0.0623500237984719,18.965955098077
-0.0604327505916563,18.9667703855476
-0.0578965319745252,18.9677345837552
-0.0545201178799631,18.968934767841
-0.0504420891565264,18.9703390133098
-0.0464884199205936,18.971694882687
-0.0427126945762905,18.973008575425
-0.0391412384740465,18.9742829396861
-0.0357873869478179,18.9755191190001
-0.0326570291351706,18.9767173907867
-0.0297510798339917,18.9778776078816
-0.0270667972699205,18.9789994307719
-0.0245986339010942,18.9800824479092
-0.0223388818619831,18.9811262336235
-0.0202782151072216,18.9821303693082
-0.0184061652832063,18.9830944416237
-0.0167115435538258,18.984018025245
-0.0151218506603587,18.9849369616275
-0.0135912160088058,18.9858794210092
-0.0121241359443146,18.9868469849859
-0.0107245294029941,18.987841770323
-0.00939611385024162,18.9888662606565
-0.00814235132550432,18.9899233993814
-0.00696639506295302,18.9910167096382
-0.00587103329031618,18.9921504559455
-0.00485862987437763,18.9933298670337
-0.0039310609094033,18.9945614515463
-0.00308964535674044,18.9958534600303
-0.0023350660615571,18.9972165879367
-0.00166727405846544,18.9986650981592
-0.00108536186050811,19.0002187263976
-0.000602104465836484,19.0018494702268
-0.00021778739127557,19.0035278239663
8.40258701815247e-05,19.0052721084323
0.000318120967256283,19.0071038614874
0.000498484664787853,19.0090519416301
0.000638782249824368,19.0111574239722
0.000753112525727459,19.013483888322
0.000857546411835498,19.0161429103618
0.000974733707280533,19.019379204663
0.00111956684230023,19.0231198989924
0.00129685266862898,19.027136983514
0.00151180233099821,19.031466790214
0.00172898101461811,19.0355228245976
0.00194807407709262,19.0394600902295
0.00216934984119826,19.0433694841542
0.00239370717149375,19.0473089294764
0.00262278128515989,19.0513217114668
0.00285883921157997,19.0554441577264
0.00310465637160532,19.0597095211874
0.0033634269327949,19.0641502126712
0.0036387675995491,19.0687996516901
0.00393483962235392,19.0736937438644
0.00425665639240261,19.0788721610456
0.00460088364438063,19.0842282730575
0.00495102150266376,19.0894598021795
0.00531463922197556,19.0946452011433
0.00569204409367678,19.0997434437431
0.00608743746119863,19.1047659093725
0.00650477405325732,19.1097150494605
0.00694879628099091,19.1145981637161
0.00742452572283831,19.1194199108551
0.00793743286919575,19.1241834822842
0.0084934756570249,19.1288901142014
0.00909923398180769,19.1335396248737
0.00976206822329101,19.138131099718
0.0104903763503435,19.1426641664269
0.0113129910044482,19.1472410046036
0.0122485451091449,19.1518660692371
0.0133272192046772,19.1565782674965
0.0145989096008273,19.1614627379888
0.016171645722635,19.1667493290505
0.0184251810825703,19.1733390700563
0.019902726958805,19.1772762751393
0.0214274396037655,19.1812134802224
0.0227518422750991,19.1846920429257
0.0238628622268985,19.1878319913287
0.0247807981134578,19.1908208355247
0.0254876213805389,19.1937559839075
0.0259342980746959,19.1965803868626
0.0261148725388449,19.1994135072413
0.0259927087548206,19.2024192751934
0.0254362129814831,19.2059762132713
0.0243540861219866,19.2099205248413
0.0231610873607346,19.2131896599106
0.0220582913976469,19.2158217415795
0.020984313438469,19.2182054274396
0.0199210769561822,19.2204722769122
0.018867409026926,19.2226758669473
0.0178256823545059,19.2248459802103
0.0167989683869084,19.2270023322928
0.0157903602731302,19.2291593495028
0.0148027710746766,19.231328356956
0.0138388659341092,19.2335187586434
0.0129010438145743,19.2357387371003
0.0119914341961362,19.2379957115781
0.0111119021039025,19.2402966551772
0.0102640574301319,19.2426483275884
0.00944925931314954,19.2450574779531
0.0086686291390682,19.2475310009831
0.00792305976319718,19.250076092231
0.00721322600303163,19.2527004001413
0.00653601352760003,19.2554272649202
0.00587704817400385,19.2583380649381
0.00523979893476626,19.2614537670038
0.00462759130198462,19.2647996065364
0.00404381270062558,19.268404742379
0.00349185237399467,19.2723030050638
0.00297501139872823,19.2765339090064
0.00249637710692599,19.2811441360593
0.0020586404383794,19.2861901427434
0.00166387180405928,19.2917429255209
0.00131334611517424,19.2978958005994
0.0010075548175012,19.3047746087413
0.000748363445725818,19.312481129105
0.000553539873741459,19.3209759513779
0.000449893842392356,19.3277898421364
0.000351109875134403,19.3367835576231
0.0002820865947674,19.3459274825159
0.000232052565763014,19.3559274825159
0.000201225321474101,19.3659274825159
0.000183842307759476,19.3759274825159
0.000175767987794818,19.3859274825159
0.000174155204871766,19.3959274825159
0.000177160582014764,19.4059274825159
0.00018366320212093,19.4159274825159
0.000193032902271287,19.4259274825159
0.000204971568694601,19.4359274825159
0.000219419416183366,19.4459274825159
0.000236507483430386,19.4559274825159
0.000256541180017636,19.4659274825159
0.000280007394825434,19.4759274825159
0.000307604441997739,19.4859274825159
0.000340299688778565,19.4959274825159
0.000379425870332921,19.5059274825159
0.000426836515210478,19.5159274825159
0.000481374306149484,19.5253273989144
0.000543185722443412,19.5340287588379
0.000613154357007548,19.5420779132062
0.000692360192213421,19.5495233612609
0.000782046076517828,19.5564104578665
0.000883622324566831,19.5627814791509
0.000998685007107091,19.5686758574548
0.00112904000555822,19.5741303827066
0.00127673170059282,19.5791793654477
0.00144407311768065,19.5838548005729
0.00163368363175627,19.5881865306282
0.00184853008776845,19.5922024035693
0.00209197828757322,19.595928410625
0.00236785186651891,19.5993888237557
0.00268050682907615,19.6026063435822
0.00303492453004107,19.6056022506734
0.00343682823289278,19.6083965565995
0.00389283784708897,19.6110081759423
0.00441067730561211,19.6134551269317
0.00499946177277125,19.6157547695332
0.00567011419677268,19.6179241199069
0.00641941773058696,19.6199395924947
0.00724533291538265,19.6218002460547
0.00815837956197191,19.6235369854262
0.00917406165701969,19.6251803842079
0.0103164951485898,19.6267634223098
0.0116282931045657,19.6283292594504
0.0132735330646621,19.6300229886228
0.0156970696745006,19.6321570703987
0.0174241309929647,19.6335126795959
0.0192568922844109,19.634868288793
0.0209346746234662,19.636081656017
0.0224321433577674,19.6371840556235
0.0237799207165866,19.6382365263589
0.0249791453012251,19.6392798635434
0.0260116930501108,19.6403515244405
0.0268396392968914,19.6415010205625
0.0273858977356365,19.6428238397915
0.0274032878694206,19.6446695965663
0.0268228375192872,19.6461879768421
0.0258132825005198,19.647706357118
0.0246330858572735,19.6490729907403
0.0232899675103048,19.6504298628661
0.0217909652875496,19.6518354983139
0.0201448883479039,19.6533287483949
0.018355346224787,19.6549511041318
0.0164539846317941,19.6567617082071
0.0138182097471795,19.6595666337577
0.0116272064985459,19.6622600800337
0.00980948719452704,19.6648518602157
0.00828126898337569,19.6673850826588
0.00699791697779954,19.6698624270232
0.005880784153494,19.6723823212057
0.00490480516955323,19.6749719508957
0.00405204179920682,19.6776543237597
0.00340310144023624,19.6800661460204
0.00294991587392221,19.682011619188
0.00258121933730035,19.6838037637319
0.00225551621604865,19.685587802107
0.0019507361454622,19.6874763689157
0.00164607074670649,19.689641401866
0.00129755145237349,19.6925891707972
0.000945425903586099,19.6963501569493
0.000701360732348231,19.6997358982768
0.000519992279017853,19.7029989286313
0.000369914574922494,19.7066480227303
0.00024955304583066,19.7112037667915
0.000194023298668863,19.7164686945141
0.000220640709169283,19.7211182624146
0.000315339834559049,19.725358500919
0.000472992101060246,19.7292052707689
0.000692449985075768,19.7327036897542
0.000974842519999141,19.735895502513
0.00132410424903707,19.7388310992234
0.00174665967322571,19.7415585719177
0.0022527529596933,19.7441283406507
0.00285837175279301,19.7465941672001
0.00358839308741497,19.7490152920803
0.00448195123086261,19.7514601898145
0.00559589196498432,19.7539992356224
0.00695370771061399,19.7565990833205
0.00845697598399934,19.7590429788033
0.00998916794327194,19.7611835587231
0.0115376950866129,19.7630589488163
0.0131630253878387,19.7647698176359
0.0149001633737921,19.766356900686
0.0168090189553357,19.7678662849081
0.0189029325162922,19.7692949177543
0.0212379706788105,19.7706665974538
0.0238422897376882,19.7719813424825
0.0267622088832254,19.7732468824639
0.0300411978301532,19.7744663443719
0.0337240393771003,19.7756415987354
0.0378695296540394,19.7767771116201
0.042540386479511,19.777875828405
0.047807509990336,19.7789404818088
0.053760485214368,19.7799751748961
0.0605028882132583,19.7809835463946
0.068159960672125,19.7819695418382
0.0768838541733619,19.7829373531445
0.0868679945525928,19.7838921099538
0.0983575808941766,19.7848396096067
0.111673748678831,19.7857869071458
0.127252395858728,19.7867430773932
0.145714266565717,19.7877206018634
0.167451403645469,19.7887146490362
0.192676274912741,19.7897154573774
0.222094618732682,19.7907352743472
0.256685732428386,19.7917922744987
0.298010655616721,19.7929190073659
0.333271844323879,19.7938047876399
0.370148153590674,19.7946905679138
0.40292863863406,19.7954709520163
0.431572422548716,19.7961744012037
0.456590625522025,19.7968363927672
0.478016428714977,19.79748184738
0.495488869555787,19.7981324230399
0.508183381190152,19.7988125761433
0.514444159238336,19.7995585314099
0.51123399186142,19.8003724654804
0.496680705256375,19.8012055467121
0.469452587049948,19.8020731167953
0.42786224465265,19.8029862420042
0.370060019387169,19.8039538640505
0.327291471035986,19.8045606240451
0.280394406295869,19.8051673840397
0.238437973378665,19.8056809472653
0.202173039262567,19.8061157226105
0.170134863710908,19.8065015433118
0.141340501565275,19.8068567018687
0.115180126559979,19.8071927580457
0.0912241457658947,19.8075182857125
0.0691131620752066,19.8078410991276
0.0484603256904664,19.8081706221927
0.0286347329074077,19.8085238059367
0.00743228571894416,19.8089620299822
-0.00182972608219032,19.8091822899299
-0.0102003536360696,19.8094025498777
-0.016646719068821,19.8095897844578
-0.0225874008010789,19.8097796123167
-0.0285321308025538,19.8099907246641
-0.0342465936102726,19.8102196817101
-0.0395825779612694,19.8104644398901
-0.0444584992702799,19.8107243279843
-0.0488324877261682,19.8109995870041
-0.0526823272389983,19.811291116802
-0.0561170580530313,19.8116132306962
-0.0588551834827744,19.8119401924311
-0.0610808951913494,19.812288925253
-0.0628094718294158,19.8126626622571
-0.0640550509594612,19.8130651441663
-0.0648309070864125,19.8135009920753
-0.0651479441059463,19.8139759750001
-0.0650129975678129,19.8144974085653
-0.0644263034072112,19.8150750419088
-0.0633759604760465,19.8157229588993
-0.0618342458584231,19.8164598017041
-0.0597453653040909,19.8173140568386
-0.0569925527715173,19.8183357759711
-0.0532671541654877,19.8196430050605
-0.0492211228870766,19.8210308069084
-0.0453184088404029,19.8223732655793
-0.0416035955606379,19.8236746693962
-0.0380981424683944,19.824937215095
-0.0348127239420369,19.8261617185123
-0.0317515182877832,19.8273482946985
-0.0289142090020319,19.8284967209287
-0.0262971156201318,19.8296066274657
-0.0238939647286636,19.830677595093
-0.0216964974544685,19.8317091998499
-0.0196949891109204,19.8327010261283
-0.0178787079786414,19.8336526595653
-0.0162363212764268,19.8345636659908
-0.0146637732875938,19.8354896709407
-0.0131518341217217,19.8364395518608
-0.0117046495440033,19.8374151465168
-0.0103260836927751,19.8384186740497
-0.00901978162565409,19.8394527470109
-0.00778911696357613,19.8405204705939
-0.00663713763589071,19.8416255736974
-0.00556650874460863,19.8427725866494
-0.00457945207241794,19.8439670881468
-0.00367768106301265,19.8452160583553
-0.00286232894286876,19.8465284013762
-0.002133865500744,19.8479157511028
-0.00149199376232066,19.849393780009
-0.000935508486261248,19.8509844700062
-0.00048425187086469,19.85262772213
-0.000126551561221799,19.8543243498952
0.000153300125417656,19.8560929175506
0.000369807645213376,19.8579568697839
0.000536804475958528,19.8599481307662
0.0006679954489886,19.8621131892253
0.000777867591888262,19.864526391245
0.000883747630797642,19.8673253679675
0.00101306091133473,19.8708476962179
0.00116592226947372,19.8746262507494
0.00135930373935014,19.8788139653549
0.00157606967729976,19.8830426947916
0.00179471751821413,19.887052959489
0.00201512763004714,19.8909757309885
0.00223778974705333,19.8948893727882
0.00246388241021942,19.8988464666803
0.00269527982693534,19.9028877592017
0.00293443972027567,19.9070484268173
0.00318428510342873,19.9113612672996
0.00344814492450608,19.9158588233848
0.00372978899628149,19.9205750796085
0.0040336004076683,19.9255468955211
0.00436495584771461,19.9308152444524
0.00471071045263977,19.9361188517071
0.0050658367787854,19.9413410961267
0.00543399018191754,19.9464964220881
0.00581733082365754,19.9515701090051
0.00621978155563332,19.9565677342792
0.00664564937363909,19.9614946839663
0.00709974766512939,19.9663571454393
0.00758725534441868,19.971159452023
0.0081137980698134,19.9759041343457
0.00868553164615422,19.9805919379245
0.00930927795068416,19.9852223561706
0.00999270778918109,19.9897944857958
0.0107498369424061,19.9943381100287
0.0112671083236372,19.9971690550144
0.011823190756631,20
