ecg,time
0.00251387461124437,15.0012928157763
0.00285614958060831,15.0044990561978
0.00324525625412265,15.0074873050334
0.00368778899033114,15.0102785506016
0.0041914610192792,15.012892789435
0.00476540699747689,15.0153493195193
0.00542062612076967,15.0176671269106
0.00615693831236155,15.0198286847518
0.00697152334623061,15.0218276156764
0.00787617404439635,15.0236988365635
0.00888895291186963,15.0254782475799
0.0100396067533747,15.0272073190492
0.0113858919609963,15.0289474854303
0.0131511055187338,15.0309102073543
0.0149278602240109,15.0326433118636
0.0168787329307964,15.0343764163729
0.0185618238991253,15.0358011956079
0.0200153978089414,15.0370301152895
0.0213141406718473,15.0381728841244
0.0224733786468299,15.0392833354375
0.0234836894065058,15.0404004890361
0.0243187906061618,15.0415666044892
0.0249282102141978,15.0428470314668
0.0251966564202728,15.0443973076538
0.024861019907999,15.0462400283413
0.0239132007677552,15.0480827490288
0.0228061817434442,15.049570624887
0.0215682306773394,15.0509740942426
0.0201925919397283,15.0523952574838
0.0186871785343239,15.0538791701917
0.0170593505130562,15.0554631992805
0.0153393664431579,15.0571931707186
0.0139949979881481,15.0586463729786
0.0115755145138476,15.0615643295403
0.00957401006716511,15.0643796056814
0.00798959229481402,15.0669775672845
0.00668008657781098,15.0694702155993
0.0055351873542474,15.0720033713212
0.00452849661735267,15.0746063504466
0.00364157616047745,15.0773024557244
0.0028595050136273,15.0801151494443
0.00220188784839296,15.0829193732035
0.0016749268818854,15.0855641804984
0.00124182810543399,15.0880932428453
0.000876688948420042,15.0905505338138
0.000563333790914754,15.0929613692233
0.000292168731776549,15.0953278784355
5.55741526318889e-05,15.0976509263359
-0.000155482719700321,15.0999642439669
-0.00035288172194814,15.1023663567695
-0.000560160553962991,15.105170775341
-0.000696859121484046,15.1071943239343
-0.000824586080317891,15.1092178725275
-0.000930553366423937,15.1109968309407
-0.00102295415117306,15.1126226328504
-0.00111020244450175,15.1142208615075
-0.00119799555830481,15.1158893295672
-0.00129310630286962,15.1177622349202
-0.00141132110662859,15.1201787477281
-0.0016087360041468,15.1244082255576
-0.00177394152546326,15.1281115549108
-0.0019143474464509,15.1313663528786
-0.00206394665470808,15.1349477530619
-0.00224826314477063,15.1395724846079
-0.00244930781858346,15.1451648384272
-0.00258639880030708,15.1500896690966
-0.00264994225968897,15.1544880442472
-0.00262953414316969,15.1584190884659
-0.00251824260425386,15.161975993316
-0.00230991840333414,15.1652450287435
-0.00200072734760138,15.1682685069815
-0.00158918859918881,15.1710766275679
-0.0010700108025787,15.173720592939
-0.000426476500211515,15.1762768761418
0.000384246527767614,15.1788657991989
0.0014957986392356,15.1817722166072
0.00291322741626056,15.1848820254814
0.00471714727231593,15.1883115614367
0.00606798361557616,15.1906254034806
0.00754397523128032,15.1929392455246
0.00895146046362884,15.1949368922068
0.0103808818312472,15.1967590530356
0.0118527425507325,15.198428351292
0.0134569429653223,15.2000331969526
0.0152058867156377,15.2015638095456
0.0171489417547918,15.2030426018641
0.0193062694869545,15.204463994269
0.0217164581100453,15.2058349366601
0.0244056300939708,15.2071532066389
0.0274131526740662,15.2084227799349
0.0307794105861661,15.2096460129696
0.0345494859057673,15.2108253276683
0.0387729053069714,15.2119628908125
0.0435141439256633,15.2130629053243
0.0488454602437979,15.2141287666832
0.0548524346927655,15.2151640400193
0.0616375206772669,15.2161724984281
0.0693235969786448,15.2171580381646
0.0780637337695204,15.2181252102832
0.0880476763182396,15.2190789495651
0.0995169972555602,15.2200249840035
0.112787441149143,15.2209702560114
0.128285645177685,15.2219236102988
0.146616938831128,15.222897174054
0.168245241416158,15.2238896687682
0.193321863090586,15.2248880384415
0.222538456279762,15.2259041555155
0.256847770287564,15.2269554580743
0.297743657578155,15.2280725698755
0.333523753075315,15.2289709255233
0.37106353646952,15.2298692811711
0.404298428064209,15.2306552384192
0.433294341417197,15.2313606496287
0.458633796242206,15.2320226936224
0.480386054269116,15.2326668597992
0.498218363303221,15.2333148948197
0.511342509557998,15.233990988288
0.518171746325702,15.2347304858597
0.515692859259046,15.2355425212426
0.501917884097342,15.2363729479064
0.475536195302417,15.2372374386689
0.434865328835859,15.238147394884
0.378047218857723,15.2391116049288
0.334718239065771,15.2397316419771
0.286972927580477,15.2403516790254
0.244310736867512,15.2408739591479
0.20755884210818,15.241313626886
0.175161912827867,15.241702297031
0.146082531701636,15.2420591458584
0.119685295927172,15.2423961188216
0.0955285292533588,15.2427219429089
0.073248662115882,15.2430444261814
0.0524639153933252,15.2433727505883
0.0325762835948468,15.2437228415945
0.0116656279203642,15.2441479751609
0.00141013046886618,15.2443878757058
-0.00588132933376209,15.2445759255813
-0.0125440270793605,15.2447639754568
-0.0184187358594713,15.2449458762904
-0.0243971523373754,15.2451505919725
-0.0302104905999766,15.2453741465463
-0.0356819771946811,15.2456139378412
-0.0407130728004148,15.2458689363997
-0.0452518566759975,15.2461391407943
-0.049273416476579,15.2464252672095
-0.0530248452011778,15.246754665173
-0.0559109529852782,15.2470761197858
-0.0582795600325959,15.2474184453673
-0.0601475367632633,15.2477848927836
-0.0615291159762341,15.248179003726
-0.0624380706239854,15.2486051438203
-0.0628862357067569,15.2490687464996
-0.0628818868609268,15.2495766704037
-0.0624277348943158,15.2501377512962
-0.0615156695267834,15.2507651056021
-0.0601232540514635,15.2514757470228
-0.0582045044825891,15.2522949075161
-0.0556652555367978,15.2532649524177
-0.0522776595543855,15.2544759667692
-0.0482307050245353,15.2558787006801
-0.0443092566772871,15.2572335226504
-0.0405660770814563,15.2585463448856
-0.0370269485813947,15.2598199309694
-0.0337048976497961,15.2610553799814
-0.0306056098018455,15.2622529453467
-0.0277298528304094,15.2634124668573
-0.0250747745392699,15.2645335979221
-0.0226347438922829,15.265615923176
-0.0204019911631072,15.2666590148634
-0.0183671462066153,15.267662453117
-0.0165197113582007,15.2686258235955
-0.01484848038135,15.2695486998569
-0.0132799860106906,15.2704680207996
-0.0117710065804553,15.2714108844312
-0.0103260306778056,15.2723788865377
-0.00894899573506662,15.2733741493413
-0.00764364184911498,15.2743991633831
-0.00641345920889527,15.2754568807411
-0.00526163629141681,15.2765508356021
-0.00419100578064692,15.2776853067439
-0.0032039881415486,15.2788655416358
-0.00230253234719714,15.2800980740969
-0.00148805256069885,15.2813911894301
-0.000761358338837553,15.2827556327274
-0.000122573613564147,15.2842057409176
0.000428965080673017,15.2857613665425
0.000880737358734512,15.2873927580137
0.00123374756586061,15.2890720746764
0.00150414499573493,15.290817643191
0.00170643613935961,15.2926511003244
0.00185426303776273,15.2946014616592
0.00196083280853719,15.2967100759818
0.00203957113159135,15.2990410558044
0.00210541090453732,15.3017072179841
0.00217857430174471,15.3049573410078
0.00227581417782103,15.3086992443132
0.00240620661279847,15.3127245101145
0.00256074075127323,15.3167189709267
0.00272675384736345,15.3205492775977
0.00290147300948443,15.3243190619409
0.0030834758535683,15.3280936986289
0.00327257193777564,15.3319190808572
0.00346964129479223,15.3358319150929
0.00367643417462463,15.3398645458212
0.00389539940367678,15.3440476664032
0.00412956402314058,15.3484121176417
0.00438249011619013,15.3529902503143
0.00465837084373205,15.3578173612143
0.00496232882097903,15.3629330705088
0.00530100874454723,15.3683825657621
0.00564708832861183,15.3736693608347
0.00601043827858189,15.3789156369843
0.00639010353036023,15.3840631147305
0.0067906057285314,15.3891301521984
0.0072158287438617,15.3941197327447
0.00767056365820145,15.3990407238064
0.00815984121474965,15.4038984499235
0.00868913615998353,15.4086964360744
0.00926439737246478,15.4134359479111
0.00989217163173148,15.4181165361565
0.0105797446254536,15.4227366922001
0.0113528351785567,15.4273950284526
0.0122252257706657,15.432080459206
0.0132189466410103,15.4368102008873
0.014364659756269,15.4416161520334
0.0157127083464928,15.4465743189829
0.0173677780578808,15.4518862977523
0.0197000146653056,15.4583707323959
0.021360370838454,15.462537775804
0.0230949172639386,15.466704819212
0.0245893657201309,15.4703136141555
0.0258437579826113,15.4735320963035
0.0268911580774091,15.4765761373849
0.0277088241940632,15.4795180735553
0.0282590702534859,15.4823420896519
0.028539027198829,15.4851697483568
0.0285153180400059,15.4881619366676
0.0280665186542102,15.4916794444531
0.0272720481718496,15.4949594083363
0.0261740176151685,15.4982393722195
0.025083132763924,15.5009609266224
0.0240081548062056,15.5033906354136
0.0229340819028219,15.5056809927201
0.0218597165941036,15.5078964655918
0.0207879333472996,15.5100712888848
0.0197223981879518,15.5122273314202
0.0186667694012034,15.514380210172
0.0176244877771195,15.5165419611635
0.0165987212264211,15.518722428157
0.0155923591551166,15.5209300657907
0.0146080187204969,15.52317245331
0.0136480565031235,15.5254566430564
0.012714581832485,15.5277894120972
0.0118094630140877,15.5301774750693
0.0109343409797876,15.5326276465406
0.0100906374311302,15.5351469999104
0.00927956386686562,15.5377430198999
0.00850213104251987,15.5404237592007
0.00773907221242839,15.5432762873303
0.00699232913717252,15.5463269701089
0.00626569931536925,15.5495999237475
0.00556316617118934,15.5531231061526
0.00488888941919741,15.5569289220468
0.00424713757403584,15.5610551477525
0.00364217744535656,15.5655462590998
0.00307810086639843,15.5704556106708
0.00255856902964561,15.5758494839777
0.00208655387469808,15.5818140404308
0.00166425386826331,15.5884652366047
0.00130565436506983,15.5956764460922
0.00101977398129042,15.6034848008038
0.000809334490755966,15.611757560327
0.000662453081750779,15.6197939429269
0.000540626272238068,15.6290913970805
0.000453194936739424,15.6390913970805
0.000399550801776293,15.6490913970805
0.000371068786117976,15.6590913970805
0.000361678436566094,15.6690913970805
0.000367393803015958,15.6790913970805
0.000385970875741965,15.6890913970805
0.000416627689767647,15.6990913970805
0.000459895013876607,15.7090913970805
0.000515483230322948,15.7187510007435
0.000581594818689021,15.7276672433171
0.000658558720256837,15.735884305143
0.000747283527529947,15.7434589853548
0.000849050563374211,15.750443947183
0.000965444392457629,15.7568876194756
0.00109833511053841,15.7628346476298
0.00124988682418668,15.7683262782373
0.0014225815327448,15.7734006767626
0.00161925329679395,15.7780932060713
0.00184313369698531,15.7824366808223
0.00209790890157787,15.7864616046593
0.00238779262379754,15.7901963919483
0.00271761771525893,15.7936675869165
0.00309295673237434,15.7969000934642
0.00352028145329522,15.7999174248789
0.00400718138061843,15.802741988694
0.00456267480855754,15.8053954404904
0.0051976698892119,15.8078991589601
0.00591810449465154,15.8102523582006
0.00671800795745271,15.8124316231422
0.0076105240614738,15.8144773123477
0.00861677363839461,15.8164330680288
0.00977393977151979,15.8183535946439
0.0111634374608874,15.820333369007
0.0131445408850024,15.8227495681885
0.0146059389571307,15.8243371555788
0.0161615660588175,15.8259247429691
0.0175878615313552,15.8273441625871
0.0188498242670634,15.8286204926526
0.0199762675015023,15.8298280846052
0.0209692075429086,15.8310142411224
0.0218133796187273,15.8322190659743
0.0224770475679188,15.833491113412
0.0228989386268723,15.8349143053577
0.0229171515432963,15.8367298298788
0.0223853353096655,15.8385371188634
0.0213943579214052,15.8403444078481
0.0202934457279408,15.8418622812164
0.0190778417635831,15.8433197031074
0.0177462809260288,15.8447981153823
0.0163076181291187,15.8463383943523
0.0154411792292254,15.8472589530185
0.0145884876055157,15.8481795116848
0.0136742620661274,15.8492099552874
0.0114576626730486,15.8519472734394
0.00949837978461406,15.8547403427983
0.00792564863557509,15.8573412588214
0.00661513387651387,15.859849109589
0.00546583569675558,15.8623987739957
0.00445229084734809,15.865019349147
0.00355643726428958,15.8677343586487
0.00279081778200104,15.8704617807348
0.00217333013146095,15.8730325941226
0.0016663034003877,15.8754724905274
0.00124090240113183,15.8778153460672
0.000875533493086021,15.8800992983656
0.000553297763777274,15.8823709240093
0.00025908767578391,15.8847003619331
-2.69247405745929e-05,15.8872442578216
-0.000277022106350632,15.8897335829384
-0.000454978407139441,15.8916758063767
-0.000620160270135807,15.893618029815
-0.000757575807079671,15.8953425459847
-0.000880012561772816,15.896965757427
-0.000997057032185482,15.898595591734
-0.00111628114021917,15.9003349011051
-0.00124846071033978,15.9023558763864
-0.00142765968443503,15.9052467586952
-0.0016411709770706,15.9089049226385
-0.00181108158705884,15.9119717127015
-0.00197012203239331,15.9149619309831
-0.00214469091209671,15.918382509053
-0.00235487320661349,15.9227372720525
-0.00259017579301093,15.9281543170268
-0.00276516556749987,15.9332675448137
-0.00285348800248626,15.9378423605696
-0.00284758229985133,15.9418078943416
-0.0027457324365102,15.9454464166716
-0.00254255537168617,15.9488024080617
-0.00224071534243849,15.9518655799445
-0.00183857689436979,15.95471010693
-0.00132918437555514,15.9574048447175
-0.000693467478229597,15.9600352145873
0.000117877151957533,15.9627413904459
0.00119354615193933,15.9657017427511
0.00256794840773097,15.9689193378898
0.00403590254093615,15.9719764794098
0.00567356550536799,15.9750972149535
0.00681219800879859,15.9771041985143
0.00804414558088235,15.9791111820752
0.00932004667368906,15.9809980013373
0.0106285223115166,15.9827304292387
0.0120428466062204,15.9843889423625
0.0135965337680235,15.9859866249106
0.0153156580933482,15.98752542146
0.0172338114685528,15.9890122343492
0.0193742451793979,15.9904440465326
0.0217649980828453,15.9918216027527
0.0244390963532095,15.9931475821483
0.0274287279057983,15.9944228948729
0.0307711840875039,15.995649639445
0.0345138325841174,15.9968318536462
0.0387085571078537,15.9979726700292
0.0434160026459409,15.9990754325227
0.0487061583775517,16.0001433718984
0.0546649739809222,16.0011804465823
0.0613938200141352,16.0021904768615
0.0690151633721583,16.0031775006746
0.0776791082533924,16.0041459052047
0.0875722768407585,16.0051005574576
0.0989328390639962,16.0060471770702
0.112071170064996,16.0069926295619
0.127406136086481,16.0079456555209
0.145529650574621,16.008918147129
0.166948070697123,16.0099110643936
0.191776093311924,16.0109093288204
0.220693928679195,16.0119246195904
0.25463485971509,16.0129739835136
0.295046621891347,16.0140869286149
0.331113764649978,16.0149982258798
0.369049514981303,16.0159095231446
0.402524426627761,16.0167024144478
0.431699109129486,16.0174118150528
0.457201690551978,16.0180761769688
0.479124548580053,16.0187213964492
0.497155360182246,16.019369240138
0.510535834724345,16.0200435585124
0.517742526236528,16.0207786094774
0.515810710180997,16.0215906111172
0.502647410434428,16.0224199842703
0.476966683998239,16.0232825530021
0.437105571284251,16.0241899133239
0.381216747314904,16.0251508444907
0.337662665702275,16.0257799360883
0.289495615647079,16.026409027686
0.246472364737093,16.0269373585063
0.209477710674346,16.0273805517286
0.176906055161824,16.0277713979958
0.147689588227572,16.0281296540831
0.121179276321528,16.0284675183549
0.0969275611452968,16.0287938184265
0.074569645380956,16.0291163586548
0.0537284018069925,16.0294441638128
0.0338285750816647,16.0297925053216
0.0131216890080701,16.0302099046228
0.00200906796317938,16.0304679283864
-0.00533169456914406,16.030656574918
-0.012039127615802,16.0308452214497
-0.0178964998387371,16.0310258781682
-0.0238751032504087,16.0312296348498
-0.0297004056971168,16.0314524243288
-0.0351905841507349,16.031691542824
-0.0402441069713173,16.0319458967004
-0.0448072876397034,16.0322154422898
-0.0488542846359003,16.0325008648494
-0.0526334235897576,16.0328293910526
-0.0555450629779321,16.0331499716176
-0.0579387774708721,16.0334913006865
-0.0598313768375568,16.0338565999536
-0.0612370760131336,16.034249375006
-0.0621697083016319,16.0346739456372
-0.0626412488482853,16.0351356850341
-0.0626602063049001,16.0356413697579
-0.0622296482081162,16.0361997189696
-0.0613421848685418,16.0368235931212
-0.0599762767903434,16.0375297590049
-0.0580876044662011,16.0383428895951
-0.0555857082177666,16.0393040816169
-0.052254826167378,16.040499221687
-0.0482088772470601,16.0419045437533
-0.0442853277161754,16.0432613025776
-0.0405382326673865,16.0445758443359
-0.0369941899579871,16.0458510491464
-0.033666654788472,16.0470880754085
-0.030561577150217,16.0482872069796
-0.0276799092753794,16.0494482988213
-0.0250189370801132,16.0505710114089
-0.0225731357985085,16.05165493224
-0.0203348169548629,16.0526996344446
-0.0182946704142681,16.0537046984073
-0.0164422398883108,16.0546697102668
-0.0147663441070575,16.0555942448841
-0.0131977797292661,16.0565126383365
-0.0116885455870409,16.0574545289143
-0.0102431784942311,16.0584214785429
-0.00886562513014618,16.0594155963169
-0.00755963758596047,16.0604393562405
-0.00632872068022685,16.0614956896599
-0.00517608040726918,16.0625881044434
-0.004104570152058,16.0637208454482
-0.0031166346471697,16.0648991156179
-0.00221425122426525,16.066129389008
-0.0013988672662603,16.0674198684814
-0.000671331612244454,16.0687811814728
-3.18155108090684e-05,16.0702274895764
0.000520285677233866,16.0717783688797
0.000973432415498104,16.0734082117044
0.00132710931652718,16.0750852318242
0.0015975454778113,16.0768277424164
0.00179926555821262,16.0786571456977
0.00194590994831177,16.0806020853266
0.00205065413206335,16.0827032630274
0.00212684009204503,16.0850235340839
0.00218920027081056,16.0876727944244
0.00225736776198288,16.0908903138887
0.00234934574361183,16.0946294631816
0.0024719928331236,16.09858258552
0.002614503918242,16.1023998242319
0.00277322070166774,16.1061693731195
0.00294472305212101,16.1099522981127
0.00312677462970024,16.1137926267933
0.00331854971495112,16.1177261834197
0.00352052072287755,16.1217849999172
0.0037342531559079,16.1259998220073
0.00396220507605819,16.1304018268277
0.00420758597796053,16.1350239692561
0.00447435820591425,16.1399024511814
0.00476745510696691,16.1450780876318
0.00509332289598903,16.150597681317
0.00542543391287274,16.1559521282899
0.00577298068417037,16.1612589081626
0.00613522035458819,16.166461418179
0.00651648073212836,16.1715790012713
0.0069204473573924,16.176615923765
0.00735159231451604,16.1815820897406
0.00781455052644891,16.1864836052162
0.00831434080808151,16.1913247724238
0.00885639393200345,16.1961075223931
0.00944668482721174,16.2008320050318
0.0100918549677034,16.2054970380206
0.0108038273238516,16.2101284332648
0.0116053825905987,16.2147949198657
0.0125122974877848,16.2194923609684
0.0135486394300322,16.2242410608494
0.0147494276603157,16.2290824987963
0.0161757294940957,16.2341170173787
0.0179697255962211,16.2396321698711
0.0203877791005407,16.2461062517981
0.0219610988273768,16.249969252488
0.0235762098857851,16.2538322531778
0.0249878662499369,16.2572832759278
0.0261787662696137,16.260431298117
0.0271646059966147,16.2634527244532
0.0279015727496236,16.2663472023328
0.0283724606758195,16.269159033669
0.0285673859481171,16.272015651544
0.0284374741001186,16.2751073287324
0.0277874309734708,16.2789844850312
0.0269529181357497,16.2819853096171
0.0258825255850555,16.2849861342029
0.0248029391499858,16.2875962684997
0.0237291015720938,16.2899799483356
0.0226546742714549,16.2922469045522
0.0215804742305062,16.2944498151191
0.0205097525264765,16.2966186967863
0.0194462101819782,16.2987734252237
0.0183934558548348,16.300928523724
0.0173548581747859,16.3030953827048
0.0163335087161899,16.3052834548962
0.0153322207531003,16.3075009668887
0.0143535396768283,16.3097553775349
0.0133997521968549,16.3120537051977
0.0124729004521283,16.3144027630077
0.0115747910379949,16.3168093572446
0.0107070021874218,16.3192804647125
0.00987090053237314,16.321823370912
0.00906764243765526,16.3244458505603
0.00829524882167559,16.327167097347
0.00753630488831043,16.3300718585753
0.00679470421273523,16.3331810257773
0.00607427701102846,16.3365198044743
0.00537905716816845,16.3401173455095
0.00471324231155389,16.3440074874879
0.00408111535277143,16.3482297808649
0.00348691891190537,16.3528310082478
0.00293466495280896,16.3578677399804
0.00242785761293514,16.3634112090487
0.00196927135517257,16.3695551731003
0.00156247033700353,16.3763976391814
0.00129753085700668,16.3819556538118
0.00109562689448786,16.3875136684423
0.000879902081838614,16.3954660783915
0.000718119448337531,16.4036807049883
0.000590372613364163,16.4127583105286
0.000496611954964428,16.4227583105286
0.000439938949535971,16.4327583105286
0.000410956402459336,16.4427583105286
0.000403124496123915,16.4527583105286
0.000412268091268207,16.4627583105286
0.000436201831640916,16.4727583105286
0.000474449396593756,16.4827583105286
0.000526734495563106,16.4925228946349
0.000590507565189055,16.5015399240914
0.000665626041615618,16.5098499414705
0.000752718082095314,16.517510272128
0.000852888349690993,16.5245741616365
0.000967599903017486,16.5310905438454
0.00109863052330022,16.5371045099951
0.00124806722271583,16.5426577088048
0.00141832196521339,16.547788672505
0.00161216065061488,16.5525330996273
0.00183274443463917,16.5569241128673
0.00208368371180775,16.5609924989522
0.00236910768827451,16.5647669309945
0.00269375214962634,16.5682741857184
0.0030630753840135,16.5715393708301
0.00348341082599503,16.5745861712947
0.0039621759044299,16.5774371267608
0.00450816755092736,16.5801139729608
0.00513199755085238,16.5826380959844
0.00584293839925955,16.5850194888604
0.00663193350081813,16.5872213702837
0.0075113408493348,16.5892839226954
0.00850095585844018,16.5912502308366
0.0096349152345344,16.5931726238913
0.010985156083273,16.5951367326946
0.0128336552114034,16.597441961575
0.0143501325379573,16.5991191290346
0.0159796171327188,16.6007962964942
0.0174385184596575,16.6022504169091
0.0187198850342073,16.6035413857718
0.0198632519345996,16.6047554052693
0.0208739985869513,16.6059425573148
0.0217388618155956,16.6071430015596
0.0224286249876896,16.608403192833
0.0228875912759244,16.6097995425961
0.0229787464101185,16.6115327221842
0.0225080030834543,16.6133932797817
0.0215368382194669,16.6152538373791
0.0204480699129644,16.6167887872707
0.0192464010393439,16.6182477790283
0.0179282314990267,16.6197219557317
0.0165021389090211,16.6212540238816
0.0155476810580343,16.6222692098188
0.0146078173506683,16.623284395756
0.013731627811364,16.6242730362177
0.0115193887361143,16.6270049696081
0.00955932628622192,16.6297990879606
0.00798616522840438,16.6324012451888
0.00667633985686554,16.6349089574177
0.00552810152444997,16.6374582447775
0.00451596088452912,16.6400782740941
0.0036218804979868,16.6427925751098
0.00286402665087862,16.6454972282715
0.00224602453021119,16.6480761342702
0.00173133775000792,16.6505655144899
0.00129085340224007,16.6530178180422
0.000899617459884611,16.6555151732096
0.000528469763652361,16.6582366526251
0.000208362731381684,16.6609290711412
-1.35477920697399e-05,16.6630231837544
-0.000215445308726061,16.6651172963676
-0.000380621403568992,16.6669810110515
-0.000525473894315615,16.6687378523175
-0.000661800367654905,16.6705037392275
-0.000798501077548516,16.6723905760369
-0.000947644718701759,16.6745881477453
-0.00114734685280383,16.6777658900573
-0.00137004402001253,16.6816336974751
-0.00154182604504385,16.684854327031
-0.00170084231762685,16.688023081232
-0.00187154290587956,16.6916406999312
-0.00206928832801066,16.6961826862175
-0.00227712073902845,16.7016970680115
-0.00241108372534064,16.7065334683974
-0.00246752194757872,16.7109333108835
-0.00243531867460044,16.7149051314807
-0.00230815873090802,16.718502632422
-0.00208305599548728,16.7217795497889
-0.00175724788385231,16.7248023555445
-0.00132469011269458,16.7276413288016
-0.000770955578375698,16.7303775809044
-6.44822879335986e-05,16.7331160640038
0.000870584254393844,16.7360390040424
0.00209166100665096,16.739196799908
0.00362862649039841,16.7425864140462
0.00534557859190156,16.7459042137958
0.00654780769203657,16.7479962118029
0.00786845559464494,16.75008820981
0.00919617146018909,16.7519787618244
0.0105982843667955,16.7537574414946
0.012087111584244,16.7554251313939
0.0137166033145559,16.7570251639287
0.0155129032248626,16.7585615537605
0.0175074473042756,16.7600407471572
0.0197270491646618,16.7614635452383
0.0222047600003263,16.7628336441855
0.0249680319327563,16.76415032798
0.0280576231931658,16.7654183192273
0.03151447393793,16.766640075885
0.0353847508721066,16.7678181810991
0.0397232387210073,16.7689559042333
0.0445960011839243,16.7700571228141
0.0500792946848648,16.7711254127138
0.0562639791989537,16.7721645390479
0.0632590578309905,16.773178443414
0.0711981770349633,16.7741714945171
0.0802476469637384,16.77514860025
0.0906174734559738,16.7761153395804
0.102580457598021,16.7770784220869
0.116502863125908,16.7780463362279
0.132900206902211,16.7790306075182
0.152444407683889,16.7800433236073
0.175089936968722,16.7810593642115
0.201452760079944,16.7820903881095
0.232376493760739,16.7831532171384
0.269133849347278,16.7842753611446
0.310789018316603,16.7854267374694
0.349393678451094,16.7864288509929
0.382239431056184,16.7872659787057
0.410868101293333,16.788012125806
0.435917425353791,16.7887081441254
0.457458570162159,16.78937974021
0.475207043824985,16.7900478744076
0.488498482229774,16.7907340806187
0.496068447689663,16.7914661492127
0.495376569504244,16.7922901480334
0.48396991408344,16.7931287522283
0.460681448764434,16.7939924763017
0.424051131101613,16.7948926991476
0.372446598566139,16.7958388668995
0.330803274686605,16.7964748693881
0.284436246018422,16.7971108718768
0.24274656893328,16.797645871486
0.206735642442856,16.7980950843534
0.174926574282502,16.7984914354242
0.146328671300669,16.7988547329034
0.120337509292508,16.7991972055284
0.0965349038518498,16.7995276749562
0.0745801328231567,16.7998538593803
0.0541246870820419,16.8001844874584
0.0346542201097803,16.8005337429283
0.0147390733758911,16.800942797142
0.00136232443689247,16.8012614341196
-0.00585565619325583,16.8014541607222
-0.0124465732273352,16.8016468873248
-0.0182454203797435,16.8018330408102
-0.0241330741849162,16.8020421986957
-0.0298486057975581,16.8022703739144
-0.0352207755466899,16.802514962062
-0.0401545687287705,16.8027749492871
-0.0446002014295717,16.8030503580304
-0.0485272070602459,16.8033419329576
-0.0519020145501845,16.8036490120796
-0.0547476490466234,16.8039742231582
-0.0570849109811896,16.8043207987574
-0.0589264629904967,16.8046916102212
-0.0602860912154839,16.805090177161
-0.0611772223251689,16.8055208361275
-0.0616114455836022,16.8059889722782
-0.0615969473867182,16.8065013641007
-0.061136598514539,16.8070667131709
-0.0602227866128054,16.8076979588348
-0.0588344057055537,16.8084116797101
-0.0569283651730303,16.8092322714224
-0.0544174345126526,16.8102000858442
-0.0510963446661836,16.8113982729464
-0.0471002172698834,16.8127962635357
-0.0432325240495084,16.8141450624596
-0.0395452396573379,16.8154508505441
-0.0360632928803013,16.8167166439552
-0.0327989498915438,16.8179437101376
-0.0297571826573409,16.8191324227452
-0.0269380992703882,16.8202827121342
-0.0243382602607523,16.8213943020705
-0.0219515357064399,16.8224668321948
-0.0197697549304256,16.8234999167766
-0.017783247821851,16.8244931659755
-0.0159813152047176,16.825446183654
-0.014352641180929,16.8263585493997
-0.012797160314181,16.8272840584019
-0.0113024660872731,16.828233399397
-0.00987275427180197,16.8292083886603
-0.00851191624089024,16.8302112377816
-0.00722362950136348,16.8312445490646
-0.00601130648852194,16.8323114142209
-0.00487804196857592,16.8334155444464
-0.0038265580415874,16.8345614466774
-0.00285914651734643,16.8357546682991
-0.00197760792772105,16.8370021467431
-0.00118318556259093,16.8383127262339
-0.00047649134565598,16.8396979538201
0.000142582662866224,16.8411733701736
0.000674979846596873,16.8427607446612
0.00110254388044904,16.8444029852423
0.00143601893163548,16.8460980719313
0.00169099245842804,16.8478645451333
0.00188178436816487,16.8497256747491
0.00202197450078495,16.8517130982725
0.00212489545680795,16.8538727890214
0.00220443152119256,16.8562780440175
0.00227676106707223,16.8590638590119
0.00236628940125695,16.8625576437776
0.0024807174966777,16.8663277448322
0.00262105299997359,16.8701303976952
0.00278694574676825,16.8740028965856
0.00297496394934638,16.8779795128575
0.00318145884905314,16.8820917094647
0.00340399549131903,16.8863702699471
0.00364186860799805,16.8908468021812
0.0038961610515716,16.8955552420651
0.00416965617697054,16.9005332602913
0.00446683213269929,16.9058235487618
0.00479252015802621,16.9114472823151
0.0051195793962306,16.9168699495635
0.00545944758950723,16.9222426008416
0.00581125099021055,16.9275008681471
0.00617967840272738,16.9326703799574
0.00656830108788877,16.9377560842106
0.0069813795039445,16.9427691009666
0.00742321677317603,16.9477161713125
0.00789841621562856,16.9526021094508
0.00841193333793114,16.9574294061559
0.00896921676198158,16.9621988473363
0.00957632437259865,16.9669098194872
0.0102400478797887,16.9715607314982
0.0109768285538718,16.9762021988109
0.0118065779471511,16.9808756285683
0.012747166782292,16.9855842500475
0.0138247900413907,16.9903518598016
0.0150792326292764,16.9952305656141
0.0165838886474481,17.000349445484
0.0185316571187662,17.0061151792458
0.0204302223565081,17.0111046920537
0.0220189172755532,17.0149970260726
0.0236468284421038,17.0188893600915
0.0250463595870265,17.0223200205264
0.0262255417228759,17.0254566585303
0.0271995263214711,17.0284751558456
0.0279209828720495,17.0313618306629
0.0283763543555933,17.034172735876
0.0285542524913977,17.0370370133604
0.0284021047902134,17.0401526419797
0.027702474795233,17.0441279231498
0.0268593575905473,17.0470775192656
0.025792561052733,17.0500271153814
0.0247145837535067,17.0526142421279
0.0236407784794646,17.0549875701453
0.0225661656736309,17.0572491996966
0.0214919200171668,17.0594493828797
0.020421363119581,17.0616171880063
0.0193581983840009,17.0637720289146
0.0183060194609741,17.0659281738763
0.0172681741941781,17.0680968673251
0.0162477333014355,17.0702874772319
0.0152474888643427,17.0725081880267
0.014269965391507,17.0747664471827
0.0133174311753157,17.0770692816089
0.0123919077916883,17.0794235409664
0.0114951851096708,17.081836080661
0.0106288246031507,17.0843139489602
0.00979417589195366,17.08686452826
0.00899238072592519,17.0894957110877
0.00822056241672605,17.0922301598098
0.00746242619361598,17.0951496205101
0.00672186124123041,17.0982752573637
0.00600270410144289,17.1016325488033
0.00530899349540678,17.1052509514353
0.00464492256027151,17.1091646767781
0.00401475999455084,17.1134137181434
0.0034227179962011,17.1180454141132
0.00287275570512805,17.123117076561
0.00236829148095846,17.1287010549145
0.00191198758788008,17.1348927098301
0.00150837613101506,17.1417705820615
0.0011781659193088,17.1491790549349
0.000964845540857038,17.1558436182116
0.000775493551587438,17.1637501619252
0.000620930129519693,17.1725594804407
0.000499491657162926,17.1824698444254
0.000418910725081398,17.1924698444254
0.000369064554660518,17.2024698444254
0.000341665387642117,17.2124698444254
0.000330894529981751,17.2224698444254
0.000332921397796039,17.2324698444254
0.000345469941530587,17.2424698444254
0.000367469330703731,17.2524698444254
0.00039884011347404,17.2624698444254
0.000440434115443279,17.2724698444254
0.000492471689408448,17.2821863551533
0.00055337687634479,17.2911726890942
0.000623598503348078,17.2994679055452
0.000704044187799321,17.3071257903626
0.000795915974654832,17.3141966011445
0.000900660921043665,17.3207268003676
0.00101996289891879,17.32675941281
0.00115575480105351,17.3323343386334
0.00131024183929818,17.3374886145583
0.00148593200161972,17.3422566438697
0.00168567414854224,17.3466704081408
0.0019127045890665,17.3507596655063
0.0021707044994309,17.3545521354786
0.00246387008257702,17.3580736776525
0.00279700191246849,17.3613484739001
0.00317561860764416,17.3643992187244
0.00360610644802625,17.367247322882
0.00409592144215921,17.369913146197
0.00465387131433082,17.3724162813894
0.00529052567257102,17.3747759227927
0.00601133168844117,17.3769903488786
0.00680862390345639,17.3790340531528
0.00769330886818376,17.3809422736133
0.00868214702192539,17.3827511339516
0.00980220354670921,17.3845010825785
0.0111043092784265,17.3862490672882
0.0127636177863497,17.3881659571694
0.0146579948641788,17.3900718907398
0.0162499564568849,17.3915265896192
0.0179290375949307,17.3929812884985
0.0194300639161812,17.3942623719456
0.0207678113952235,17.3954340589553
0.0219655546464847,17.3965575939898
0.0230201954346406,17.3976744107264
0.0239114651423859,17.3988240850746
0.0245993776091186,17.4000606065152
0.0250016323852398,17.4014918824844
0.0248280806708507,17.4035522372325
0.0241664326094331,17.4051032037257
0.0231441929043246,17.4066541702188
0.0219758647727799,17.4080728683844
0.0206668196092951,17.4094828084777
0.0192253130860383,17.4109378776758
0.0176605604367952,17.4124754994095
0.0166836354894439,17.4134348706008
0.0157304684925659,17.4143942417921
0.0137397946807419,17.4165482101038
0.0113168927021419,17.4195306489847
0.0093774842373804,17.4223208286905
0.00784123450774016,17.4248956010407
0.00655749934305658,17.4273930993413
0.00543396843474575,17.4299357717902
0.00444582947813449,17.4325516080333
0.00357528495881838,17.4352638371545
0.00280783400851656,17.4380961072852
0.00216823118182607,17.4408963946538
0.00165351199969308,17.443549132045
0.0012282549344196,17.4461013815828
0.000867340124496827,17.4486023791262
0.00055430084063617,17.4510903174179
0.000278051623059675,17.4535942957286
2.76362916549405e-05,17.4561715407687
-0.000216462672604464,17.4590242282672
-0.000402436357196271,17.461462892353
-0.000571207748986158,17.4639015564388
-0.000700050469354679,17.4659209164009
-0.000806873413270548,17.4677045858733
-0.000904680342588316,17.4694274171443
-0.00100042850067366,17.4711981801445
-0.00110083129290867,17.4731443956016
-0.00121841956376044,17.4755380276935
-0.00143654844308331,17.4802868273182
-0.00162569094144268,17.4847135061356
-0.00177538270046943,17.4884205845519
-0.00192504784180643,17.4923331748337
-0.0021006991027839,17.4973177663123
-0.00225770517544946,17.5026323046462
-0.00234841831167972,17.5073097547313
-0.00236474746739792,17.5115167323335
-0.0022970590374415,17.5152963646366
-0.00213835837435773,17.5187324531825
-0.00188216210735862,17.5218999548345
-0.00152221014305967,17.5248550624767
-0.00105238778883276,17.5276393791683
-0.000462150914408436,17.5303041084127
0.000272302102292741,17.532925892912
0.00121111734830953,17.535644667776
0.00248851636746934,17.5386945455161
0.00407666011771922,17.5418865102297
0.00556401665856322,17.5444958033296
0.00688239576316045,17.5465767662129
0.00834303803629864,17.5486577290962
0.0098338108177135,17.5505568010059
0.0114009498608338,17.5523299661648
0.0130290336750145,17.5539554289286
0.0148137690374889,17.5555191906923
0.0167685823401868,17.5570131611912
0.0189300297762302,17.5584478062142
0.0213365277444318,17.559830451468
0.0240133573443685,17.5611587809639
0.0270040386364341,17.562438937649
0.0303484339458479,17.5636728074983
0.0340889876932653,17.5648619122698
0.0382825026211663,17.5660105926478
0.0429906969511117,17.5671219861527
0.0482861239853081,17.5681994748596
0.0542532723746665,17.569246392673
0.060997244645108,17.5702669569154
0.0686439472418699,17.5712653770944
0.0773485761222134,17.5722462927817
0.0873062869065123,17.5732150040881
0.0987678712151708,17.574177760959
0.112067208721844,17.5751424267632
0.127666139806751,17.5761193845287
0.146241919042463,17.5771234975066
0.167913311585463,17.5781365578791
0.193098443731725,17.5791604647154
0.222557256241623,17.5802100270946
0.257390370728521,17.5813082213922
0.298045073832621,17.5824600264894
0.339106195550483,17.5835378820546
0.373593843711263,17.5844146610553
0.403423096954443,17.5851810311947
0.42954964748986,17.585887432201
0.452183743886427,17.5865627034336
0.471142581656229,17.5872286166259
0.485886002384245,17.5879061061718
0.495362811620991,17.5886204724852
0.497521504453696,17.5894106684075
0.489532343494901,17.590243801482
0.470033044469113,17.5910979876784
0.437641601783123,17.5919858668851
0.390756701704568,17.5929169155048
0.347697356161117,17.593611278467
0.298582415726641,17.5943056414292
0.25447342504604,17.5948793228502
0.216845822583311,17.5953501427896
0.183881249222772,17.5957592890292
0.15437940934325,17.596130572084
0.127642155220448,17.596477931956
0.103208744613164,17.5968109087835
0.0807230473283315,17.5971373507258
0.0598479614741885,17.5974654194623
0.0401451773429592,17.5978068844506
0.0206454398636574,17.5981894402222
0.00555858902288933,17.5985305136796
-0.00227825581108057,17.5987296803706
-0.00942848735902092,17.5989288470617
-0.0155737537992298,17.5991167828002
-0.0214673137205591,17.5993154334829
-0.0272977741251171,17.5995346872814
-0.032855204029733,17.5997713479634
-0.0380127393277968,17.6000237293487
-0.0427016415029104,17.6002914068344
-0.0468862569215615,17.6005748030282
-0.0508502243291269,17.6009034264537
-0.0539027936494807,17.6012211747221
-0.0564379364343045,17.601558898552
-0.0584718803667452,17.6019196598316
-0.0600181899992574,17.6023067111653
-0.0610906202167118,17.6027240487519
-0.0617016573002419,17.6031766169202
-0.061861011302881,17.6036706031032
-0.0615738721576322,17.6042138843488
-0.0608373694003493,17.6048175446736
-0.0596360603514837,17.6054965700112
-0.0579368882686263,17.6062717321769
-0.0556738134973925,17.6071756679196
-0.0527036891224524,17.6082689226986
-0.0486707184219395,17.609689606101
-0.0447441442187505,17.6110548926045
-0.0409844569649353,17.6123755006101
-0.0374233950732971,17.6136553817101
-0.0340767835519694,17.6148962711397
-0.0309517904273543,17.6160987767501
-0.0280500585708568,17.6172629410041
-0.0253692971563076,17.6183885360048
-0.0229042550292395,17.619475217552
-0.0206474251948418,17.6205226018695
-0.0185896170027304,17.6215302976959
-0.0167204489307855,17.6224979110633
-0.0150287806349756,17.6234250321864
-0.0134513100025547,17.6243422377215
-0.0119327678653445,17.6252828645918
-0.0104777599111103,17.626248427571
-0.00909023835472778,17.6272410189923
-0.00777396156619571,17.6282630910119
-0.00653244079529975,17.6293175470104
-0.00536888836847121,17.6304078588612
-0.00428616344088537,17.6315382246121
-0.00328671521397056,17.6327137854105
-0.00237252307333341,17.6339409320849
-0.001545032369251,17.6352277524956
-0.000805083272289861,17.6365847098827
-0.000152827712913566,17.6380257213416
0.000412375592522294,17.6395699782002
0.000880215191313168,17.6411978171557
0.0012476537414819,17.6428717649313
0.00153116538660653,17.6446101332616
0.00174543743317642,17.6464340030221
0.00190428214357164,17.6483715083309
0.00202106856015029,17.6504624659045
0.00210937904350338,17.6527680201934
0.00218428112892103,17.6553941326975
0.00226592219930346,17.6585675500837
0.00237361576644047,17.6623040966817
0.00250599256625934,17.6660880619325
0.00266148219893716,17.6698623728317
0.00283727962618272,17.6736753603344
0.00302989045037959,17.6775658456821
0.00323671823311254,17.6815672106649
0.00345663857646844,17.6857104909857
0.00369006052190764,17.6900263937988
0.00393878569203238,17.6945467970818
0.00420584751823776,17.6993061105453
0.00449547217212116,17.7043426833934
0.00481329050514166,17.7097000675861
0.00515025754408233,17.7151606305108
0.00549541634142625,17.7204966198043
0.00585459224241122,17.725758071596
0.00622939422196138,17.7309224922675
0.00662409831241267,17.7360040789898
0.00704282517464771,17.741010008182
0.00749016419741455,17.7459485415389
0.00797093210306736,17.7508248978059
0.0084903247489414,17.7556421978089
0.00905399925088213,17.760401481213
0.00966820344472958,17.7651022163605
0.0103399100589253,17.7697428345383
0.011088530410397,17.7743896692453
0.0119319756885353,17.7790666139531
0.0128894166377089,17.7837814302964
0.0139883276869082,17.7885600601003
0.0152714362296602,17.7934611819527
0.0168203209929128,17.7986327513427
0.0188666737423194,17.8045718062142
0.020679074538088,17.809267549818
0.0226141335517043,17.8139632934219
0.0242037450988678,17.8177753664545
0.025518029888028,17.821074587511
0.0266196650929677,17.8241492607984
0.0275091567931642,17.8271432567271
0.0281283547223479,17.8299873952639
0.0284799243877251,17.8328015147764
0.0285408939593986,17.8357306212373
0.0282260201107271,17.8390467441784
0.0272364668923564,17.8434081238068
0.0263441977827462,17.846113917289
0.0252860932110245,17.8488197107713
0.0242134133822364,17.8512831746582
0.0231397197919633,17.8535947854231
0.022065176515967,17.8558224074159
0.0209924673446708,17.8580038010549
0.0199252099901183,17.8601626510942
0.0188670904169465,17.8623155749914
0.017821599176863,17.8644752113821
0.0167919595409362,17.8666517870216
0.0157811154574089,17.8688540092665
0.0147917360731456,17.8710896269092
0.0138262288816364,17.8733658014229
0.0128867495326256,17.8756893832103
0.0119752122270946,17.8780671252756
0.0110933033916448,17.8805058514364
0.0102424847800261,17.8830126334567
0.00942401064856798,17.8855949232049
0.00863892992394239,17.8882607313329
0.00787291758843871,17.8910769444944
0.00712239538894596,17.8940872367982
0.00639118680781466,17.8973147915683
0.00568322937999193,17.9007867729184
0.00500264286653196,17.9045346422447
0.00435367012868481,17.9085950174181
0.00374057690103786,17.9130108801163
0.00316748606944819,17.9178335565404
0.00263815459428581,17.923126088971
0.00215566584344129,17.9289697948244
0.00172231549613209,17.9354733410745
0.00134921484003218,17.9425786675225
0.00104826509915523,17.9502600601042
0.000808428731102844,17.9590906160913
0.000660347500993366,17.9667141662262
0.000527306639196084,17.9760596014775
0.000429963527277481,17.9860596014775
0.000366972966702546,17.9960596014775
0.000329081490009773,18.0060596014775
0.000309608304099209,18.0160596014775
0.000303916481034434,18.0260596014775
0.000309017378161933,18.0360596014775
0.000323206735133466,18.0460596014775
0.000345782796096691,18.0560596014775
0.000376887012045113,18.0660596014775
0.000417478606042121,18.0760596014775
0.000468609203467444,18.0859116725128
0.000528389421847926,18.0950253705611
0.000597313200311612,18.103435556492
0.000676320256828676,18.1111971901253
0.000766629442347317,18.1183617400269
0.000869695043853565,18.1249767333946
0.000987201401610355,18.1310861304314
0.00112107691845631,18.1367306581342
0.00127351830313762,18.1419480892721
0.0014470219266947,18.1467734847052
0.00164442186747977,18.1512394150202
0.00186893686427058,18.1553761675238
0.00212422723036826,18.1592119395212
0.00241446504879244,18.1627730235812
0.00274442281059734,18.1660839948615
0.00311958637590874,18.1691679066421
0.00354630388294707,18.1720464992151
0.00403198627877733,18.1747404372648
0.00458538754846954,18.1772695986715
0.00521701240330021,18.1796534494847
0.00593354196301641,18.1818939093152
0.00672645813767751,18.1839613348931
0.00760665947792483,18.1858915005902
0.00859097585609928,18.1877212208358
0.00970667381655568,18.1894918277975
0.0110052406850856,18.1912618562436
0.0126614078973252,18.1932039855657
0.0145151707963504,18.1950995368866
0.0160897536315152,18.1965640133287
0.0177493504330737,18.1980284897707
0.0192316268290432,18.1993179829786
0.0205524535414162,18.2004980992147
0.0217342903301226,18.2016300792707
0.022773685785533,18.2027554707137
0.023650220849379,18.2039140786218
0.0243237985438985,18.2051603195701
0.0247118224362584,18.2066032034727
0.0245210832933695,18.2086843046222
0.0238535444671656,18.2102410118223
0.0228310621726008,18.2117977190225
0.0216651547285655,18.2132227877712
0.0203609698091235,18.2146387183135
0.0189267868078034,18.2160991513821
0.0173718341133533,18.2176413866015
0.0164079760120062,18.2185969726495
0.0154691455821004,18.2195525586975
0.0131276019191565,18.2221428204712
0.0107952239223611,18.2251139417508
0.00895535358084063,18.2278523856093
0.00748836967446596,18.2303913076024
0.00624007198925591,18.232897456722
0.00514517122068299,18.2354559204832
0.00418104056953409,18.238092778573
0.0033307179151543,18.240831216591
0.00258020344436916,18.2436952303805
0.00198293125655855,18.2463882358298
0.00149861834043454,18.2489367748621
0.00109584058127213,18.2513837381317
0.000753209364650241,18.2537653876519
0.000456849863360692,18.2561040300975
0.000197358630031856,18.2584116025648
-3.38324133843314e-05,18.2607122636872
-0.000247697402383243,18.2630811622344
-0.00046416922618806,18.2657497431178
-0.000623416693457165,18.2679070950285
-0.000770952903144509,18.2700644469392
-0.000888289397956989,18.2718939316984
-0.000988129172098735,18.2735314040509
-0.00108110512548259,18.2751230132683
-0.00117349188912916,18.2767672103225
-0.00127193161739391,18.2785856870341
-0.00138990175115795,18.2808506712799
-0.00160171308249401,18.2851279300533
-0.00178861486840824,18.2891000662397
-0.00194322543861133,18.2925129770478
-0.0021030493523195,18.2961653934122
-0.00229920619294594,18.3008733140295
-0.00250705272525951,18.3064130608062
-0.00265127768800773,18.311368628304
-0.00271874685496555,18.3157947840972
-0.00269921164243113,18.3197486300169
-0.00258668648425331,18.3233122698204
-0.00237679867554825,18.3265705558436
-0.0020663399264799,18.329580556103
-0.00165278459526469,18.3323851891268
-0.00113026419202517,18.3350351073022
-0.000480274505794518,18.3376102292427
0.000344051475648438,18.3402386190768
0.00146338876636707,18.3431693466233
0.0028896205662473,18.3463201201231
0.00456289781486613,18.3495604186841
0.00589190526617283,18.3519027647647
0.00733770904906014,18.3542451108452
0.00873082187483641,18.3562952458665
0.0100853377755425,18.358090197839
0.0115152518911908,18.3597807548189
0.0130626116504277,18.3613960400268
0.0147554455107766,18.3629430267001
0.016634880759772,18.3644368753074
0.018723629090293,18.3658741157511
0.0210579688560566,18.3672605329863
0.0236616986807739,18.3685929641096
0.026574498331882,18.3698762578416
0.0298342985555223,18.3711122633029
0.0334837961241417,18.3723032116947
0.0375707868732923,18.3734514168031
0.042156629625963,18.3745610095987
0.0473101042994669,18.3756353617472
0.0531124753379387,18.3766780026946
0.0596605149634196,18.3776926150593
0.0670704494895409,18.3786830625416
0.0754857755924206,18.3796537295494
0.0850834635761633,18.3806093397072
0.0960871199472138,18.3815553038881
0.108786118425372,18.3824980727035
0.123566450505421,18.383445706946
0.140965703310119,18.3844089717542
0.161690997547333,18.3853995480099
0.18569078049729,18.3863927732475
0.213597285227777,18.3873992104809
0.2462612951677,18.3884338871288
0.28494221564315,18.3895213117326
0.329738983593816,18.3906593425782
0.370288969916387,18.3916262996173
0.404148405540845,18.3924208549315
0.433475785483172,18.3931271043201
0.459106490339546,18.3937881605411
0.481152948519578,18.394430295216
0.499306494393337,18.3950753858494
0.512807077739105,18.3957474857716
0.520117445398225,18.3964814461218
0.518241675048237,18.3972912659533
0.505094436894854,18.3981190371674
0.479379418110317,18.3989807578466
0.439412069921428,18.399888159031
0.383317912721155,18.4008499416628
0.339423818015031,18.4014818874296
0.290851103482164,18.4021138331964
0.24750990463085,18.4026437948074
0.210293010513447,18.4030876502076
0.177555879705146,18.4034786731781
0.148207713104757,18.4038368565013
0.121588016023402,18.4041744988995
0.097242993296804,18.4045004707511
0.0748041562739015,18.4048225886302
0.0538922933522267,18.4051498594685
0.0339322692054276,18.4054974619246
0.0131905559887287,18.4059132871056
0.00191919029843999,18.4061736498505
-0.00543689733724003,18.4063618261813
-0.0121588475774114,18.4065500025122
-0.018021205781034,18.4067299465048
-0.0240096215217813,18.4069330172695
-0.0298476274888903,18.4071551331628
-0.0353518689479638,18.4073935736237
-0.0404198689479878,18.4076472323288
-0.0449973709230895,18.4079160556176
-0.049058898851563,18.4082007201669
-0.0528467486712797,18.4085276838103
-0.0557730355311693,18.4088473523143
-0.0581805572745467,18.40918770986
-0.0600860539953413,18.4095519569877
-0.0615037705105787,18.4099435853274
-0.062447595219892,18.4103668979619
-0.0629295781062156,18.4108272473938
-0.0629583199908594,18.4113313838287
-0.0625369981443766,18.4118879915834
-0.0616584354618243,18.4125098406066
-0.0603012696634568,18.4132136430795
-0.0584214715233835,18.4140239312445
-0.0559291981658955,18.4149815007535
-0.0526107784598008,18.4161713014585
-0.048554172633373,18.4175783604464
-0.0446184525248463,18.4189367175046
-0.0408583033148354,18.4202528884395
-0.0373007808943264,18.4215297731944
-0.0339596179742262,18.4227685353649
-0.0308409658370822,18.4239694572678
-0.0279459374181472,18.4251323892616
-0.0252719508847818,18.4262569861229
-0.0228135891006531,18.4273428296649
-0.0205632481899258,18.428389488034
-0.0185116806719361,18.429396537804
-0.0166484723462383,18.4303635628345
-0.0149624652772118,18.431290137547
-0.0133896350913946,18.4322073506896
-0.0118758604431183,18.4331480060819
-0.0104257354869137,18.4341136230515
-0.00904321349903194,18.4351062941116
-0.00773205586164106,18.436128472491
-0.00649577898645414,18.4371830635928
-0.00533760278480885,18.4382735424473
-0.0042603968741207,18.4394041116891
-0.00326662449706799,18.4405799189498
-0.00235828371720218,18.4418073641835
-0.00153684480246604,18.4430945482304
-0.000803181561802601,18.4444519532251
-0.000157492275276541,18.4458935247729
0.000400798502836227,18.4474384994753
0.000861278552944203,18.4490664144572
0.00122137764101567,18.4507405757873
0.00149746854554716,18.4524792849593
0.00170414045026415,18.4543036553256
0.00185508250659928,18.4562418746503
0.00196349715655524,18.4583338550376
0.00204271874039589,18.460640927361
0.00210739520248065,18.4632694833534
0.00217680090199061,18.4664476327735
0.00226993745280553,18.4701840476115
0.00239426454820584,18.4741667269423
0.00254478049845889,18.4781689484085
0.00270751772268726,18.48200322809
0.00287944772183236,18.4857741610977
0.00305893448350761,18.4895481249938
0.0032456081278721,18.4933714883433
0.00344020560439049,18.4972811934237
0.00364436497487467,18.5013097083457
0.00386044507794141,18.5054877801075
0.00409139559206558,18.5098462604512
0.00434070221128132,18.5144174766188
0.00461246825800474,18.5192366690409
0.00491169557570528,18.5243433843614
0.00524485407714696,18.529782733385
0.00558735218712353,18.5350951401444
0.0059460211274852,18.5403555725
0.00632080064422866,18.5455198155035
0.00671579002694727,18.5506013459004
0.00713488753470578,18.555604579976
0.00758276351581894,18.5605382947406
0.00806435333972277,18.565408209447
0.0085850107072407,18.5702181205793
0.00915054934395379,18.574969560032
0.00976736148735913,18.5796622787479
0.0104425530639932,18.5842948522256
0.0111977893996127,18.5889455782975
0.012049417497772,18.5936251392956
0.0130175992087219,18.5983447298743
0.014130815761439,18.6031320856787
0.015434166052895,18.6080512699836
0.0170161903784829,18.6132663166402
0.0191458909966322,18.6193597997524
0.0209022721123326,18.623861898904
0.0227640019735408,18.6283639980557
0.0243236863420253,18.6321104694925
0.0256208790259177,18.6353854760001
0.0267074819318616,18.638450739172
0.0275770679545898,18.6414295002071
0.028177318494949,18.6442672610149
0.0285094219053517,18.6470840381616
0.0285477769265183,18.6500284534796
0.0281988596539584,18.6533923965528
0.0271787691120131,18.6577334210528
0.0262795434650708,18.660412642408
0.0252209795312086,18.6630918637632
0.0241485006614503,18.6655399318586
0.0230747454624849,18.6678432640037
0.0220002819364291,18.6700661854433
0.0209279326202736,18.6722449667722
0.0198613392083853,18.6744025941393
0.0188041790136692,18.676555304728
0.0177599250739432,18.6787155081824
0.0167317810910816,18.6808932844355
0.0157226718096586,18.6830972422296
0.0147352480355887,18.6853350623853
0.0137718994876792,18.6876138597541
0.0128347655920156,18.6899404508404
0.0119257443513138,18.6923215669575
0.0110465069821375,18.6947640173785
0.0101985007359013,18.6972748652948
0.00938296538492903,18.6998615607981
0.00860093637577448,18.7025321161256
0.00783615185027269,18.7053612118963
0.00708718059630239,18.708385841502
0.00635783884964834,18.7116295372287
0.005652086284187,18.7151197590476
0.00497406373271121,18.7188883278014
0.00432803203119249,18.722972311145
0.00371826861441602,18.7274152840906
0.00314889871746086,18.732269410036
0.00262366950392502,18.7375990143115
0.00214564949653191,18.7434874603166
0.00171713896105463,18.7500465841314
0.00135057917466941,18.7571895196519
0.00105705719242204,18.7649158215508
0.000826697084744594,18.7737101111333
0.000683292382252236,18.7814238229797
0.000558356549764462,18.7907308242764
0.000469011455519094,18.8007308242764
0.000414509849345603,18.8107308242765
0.00038605204797676,18.8207308242765
0.000377460082797721,18.8307308242765
0.000384707346547237,18.8407308242765
0.000405587494752329,18.8507308242765
0.000439449383156039,18.8607308242765
0.000487073898272533,18.8707308242765
0.000546416744494914,18.8801143500022
0.000616651954849152,18.8887654985446
0.000698266806096351,18.896738164375
0.000792270728971767,18.904087930552
0.000900036959196601,18.910865996233
0.00102324620650131,18.917119469687
0.00116387572414881,18.9228918062772
0.0013242114902437,18.9282231713944
0.00150687510857853,18.9331507437428
0.00171486089152308,18.9377089873547
0.0019515861801194,18.9419299023035
0.00222095377034756,18.9458432583247
0.00252743267475586,18.9494768160994
0.00287616112720051,18.9528565523574
0.0032730823918064,18.9560069004764
0.00372512842419991,18.9589510162228
0.00424047441566554,18.9617110921672
0.00482890858873083,18.9643087630085
0.00550239395606096,18.9667656701872
0.00625624218844579,18.9690497758969
0.00709484237925433,18.9711772065644
0.00803455804428095,18.9731899307302
0.00910245956943675,18.9751356453284
0.0103505896834431,18.9770825422672
0.0119232692081093,18.979189757197
0.0135882782289608,18.9811423766298
0.0150388881598228,18.9826968300083
0.0165637407637183,18.9842512833868
0.0179215156650403,18.9856197374566
0.0191285703321749,18.9868731684455
0.0202037765087875,18.9880750059502
0.0211426138259661,18.9892683999572
0.0219248877220853,18.9904945673335
0.022511776950925,18.9918093532732
0.0228240897713393,18.9933230349877
0.0225892388446601,18.9954644779899
0.0219241882722862,18.9970969253128
0.0209230311173758,18.9987293726357
0.0197969657804442,19.0002119142708
0.018550569842078,19.0016733750068
0.0171915209211793,19.0031698242758
0.0157293030728342,19.0047382585897
0.0152331662046275,19.0052691466646
0.0147424181003337,19.0058000347394
0.01387925714276,19.006765560346
0.0116832805162599,19.009446396382
0.00968349488643914,19.0122579881799
0.00807741224991854,19.0148775498427
0.00674909780422891,19.0173841076067
0.00558499243087127,19.0199290515837
0.00455857492845363,19.0225425185128
0.00365139562754864,19.025248138056
0.00287472895932301,19.0279694893061
0.00224691139061632,19.0305400996841
0.00173017730113095,19.032986512986
0.0012953746814273,19.0353445551438
0.000920246147697171,19.0376572867332
0.000586501180108767,19.0399837296198
0.000275620483430735,19.0424288919447
-4.67895036657765e-05,19.0453078763277
-0.000256762631816274,19.0474042096706
-0.000449261831783914,19.0495005430136
-0.000606105143888131,19.0513433912135
-0.000740413676198337,19.0530240181021
-0.000865102163097213,19.0546726276176
-0.000988457471281066,19.056389566355
-0.00111959369203967,19.0583097160868
-0.00127834967915203,19.0607646199547
-0.00154327134204141,19.0651669846039
-0.00175938759463041,19.0690294899517
-0.00193726369228643,19.0723852773968
-0.002122240611432,19.0760538288398
-0.00234378015021059,19.0807569705794
-0.00256652995711026,19.0861451758926
-0.00272000539530332,19.0911019144165
-0.00278617708566179,19.095558995142
-0.00275786975394267,19.0994624751294
-0.00263030493187144,19.1030765950072
-0.00240277426096222,19.1063583541685
-0.00207592554526911,19.109369911308
-0.00164663139834538,19.1121825982479
-0.00110434233612378,19.1148720163968
-0.000421668500978516,19.1175405075491
0.000466282627312471,19.1203521488381
0.00162570444120026,19.1234026553364
0.00311147578460856,19.1267590052549
0.00470094236059381,19.1299651150726
0.0058966081796025,19.1321878809997
0.00718850477004904,19.1344106469268
0.00848338223350749,19.1364417085098
0.00976017450673395,19.1382458539523
0.0111216050914499,19.1399608114328
0.0125947825858926,19.1415974385488
0.0142185553192681,19.1431749032667
0.0160194781019041,19.1446949830962
0.0180269529910592,19.1461606904779
0.0202703917837031,19.1475735596035
0.0227725682192654,19.1489307039147
0.025571128193232,19.1502371328551
0.0287015792966925,19.1514946102529
0.0322025051389434,19.1527048781224
0.0361231423822282,19.1538717080331
0.0405198250935295,19.154998635339
0.0454576052139056,19.156089075512
0.0510133027878137,19.1571465986189
0.0572773608644201,19.1581747723574
0.0643607358265035,19.1591777186391
0.0723973872584398,19.1601596651804
0.081552844544203,19.161125270695
0.0920355560655901,19.1620798446553
0.104113885044177,19.1630296554098
0.118145082266638,19.1639825589384
0.134622910651775,19.1649488950865
0.154270536458698,19.1659434393407
0.177100948247924,19.1669432500659
0.203631212366445,19.1679544206815
0.234655754061192,19.1689914042316
0.271325362551351,19.1700768772965
0.31416772782168,19.1712180412569
0.355805092579005,19.1722497075353
0.390481298058404,19.1730865863835
0.420397744225893,19.1738205410359
0.446561169728453,19.1745006608254
0.469176526770264,19.1751551842907
0.488022664207749,19.1758060878691
0.502474218974487,19.1764757282741
0.511283308584878,19.1771935327941
0.511837366647513,19.1780087353579
0.501489453251044,19.1788358301729
0.479077981874933,19.1796911225798
0.44305691187117,19.1805869862388
0.391660680465141,19.1815324585748
0.347556201195622,19.1822018330511
0.297942249204863,19.1828712075273
0.253629432362879,19.1834265772613
0.215795766329381,19.1838856163166
0.182639183562695,19.1842864166168
0.152971573797513,19.1846513228599
0.126092300827894,19.1849936498362
0.101532954172217,19.1853226806408
0.0789256445162418,19.1856462487833
0.0579118058069976,19.1859728321927
0.037997452966269,19.1863154440107
0.0179536656936791,19.1867083774453
0.00947519381246121,19.186895094142
0.00165367199422992,19.1870818108387
-0.00652082644362021,19.1872955887652
-0.013100358611847,19.1874851251628
-0.01899423730118,19.1876716864838
-0.02494135790168,19.187880358457
-0.0306915722948663,19.188107439326
-0.0360826704993161,19.1883505871289
-0.0410248048067458,19.1886089420255
-0.0454712193888372,19.1888826195906
-0.0493967353219824,19.1891724262404
-0.0529127935411484,19.1894926203948
-0.0557275907720595,19.1898173508441
-0.0580296525670638,19.1901634714106
-0.0598340745735556,19.1905341220473
-0.0611550025970132,19.1909329247782
-0.0620059818619461,19.1913643479762
-0.062398470403719,19.1918339571155
-0.0623402056594695,19.192348786401
-0.0618330866144907,19.1929179731877
-0.0608675967983516,19.1935551004666
-0.0594196679228659,19.1942777060954
-0.0574403444396805,19.1951121520029
-0.05482875093274,19.1961033726216
-0.0513337899133279,19.1973501830738
-0.0473152863822094,19.1987452015233
-0.0434301317190485,19.2000932961316
-0.0397275854202509,19.2013995827816
-0.0362312962569721,19.2026666294307
-0.0329530563275981,19.203895447816
-0.0298977045286004,19.2050862573409
-0.0270653639447475,19.2062388906371
-0.0244526701309899,19.2073530068054
-0.0220535848351685,19.2084282012646
-0.0198600236196035,19.209464057546
-0.0178623862286672,19.2104601646432
-0.0160500221463477,19.2114161126136
-0.0144116417461924,19.2123314733798
-0.0128550353372576,19.2132550905665
-0.0113588943807019,19.2142024585866
-0.00992750003643488,19.2151753281661
-0.00856475998361057,19.2161758833068
-0.00727437417226751,19.2172066921354
-0.00605978337832068,19.2182708038974
-0.00492411705938066,19.2193718761319
-0.00387013896534568,19.2205143467251
-0.00290019037313205,19.2217036723245
-0.00201613035258067,19.2229466681577
-0.00121927171166651,19.224252008923
-0.00051030992390754,19.225630997746
0.000110760258557022,19.2270988076898
0.000644751235027056,19.228676619408
0.00107522917587243,19.2303154706216
0.00141018809980858,19.2320057044948
0.00166532624653562,19.2337657731487
0.00185496132328339,19.2356184420885
0.00199261602402395,19.2375945337585
0.00209147831976427,19.2397385726927
0.0021651261073801,19.2421209416701
0.00222904823338173,19.2448694387179
0.00230556235501573,19.2482846658205
0.00240639861791092,19.252046520418
0.00253333097556131,19.2558566793538
0.00268144476471619,19.2596268058813
0.00284716086309965,19.2634134716826
0.00302710914467416,19.2672599772011
0.00321912779814889,19.2712018520151
0.0034225152211377,19.2752709805874
0.00363794700597392,19.279498104199
0.00386728213597194,19.2839144859556
0.00411337818197323,19.2885532727848
0.00438002170690637,19.2934509440093
0.00467207059917835,19.2986486597597
0.00499593204632212,19.3041936783492
0.00532530778384341,19.3095740060586
0.00566918274596301,19.3149035169111
0.00602694917835681,19.3201266874351
0.00640290270384557,19.3252631225133
0.00680069335947584,19.3303176744989
0.00722470022983586,19.335300584692
0.00767943998556007,19.3402182784732
0.00816978306612534,19.3450753080493
0.00870099001803465,19.3498738524045
0.00927884486152171,19.3546143027987
0.00990977535613972,19.359295667436
0.0106011229055287,19.3639169900827
0.0113788313027609,19.3685774571491
0.0122566286025445,19.3732650741432
0.0132568282258625,19.3779977687504
0.0144106185851849,19.3828086465072
0.0157696414773209,19.3877767747545
0.0174431795322372,19.3931137198181
0.0198322015576386,19.3997104791984
0.0214726142440852,19.4038072613892
0.0231802025213183,19.40790404358
0.0246584730778432,19.4114802847056
0.0259012561335648,19.4146847436159
0.0269376952936036,19.4177239369554
0.0277409736124327,19.4206568673259
0.028277199352903,19.42347824881
0.0285423188721502,19.426310376027
0.0285005257282763,19.429318395683
0.0280205392937643,19.4328879902071
0.0272192071451277,19.4361162604818
0.0261271686392421,19.4393445307566
0.0250385587947377,19.4420474232501
0.0239637287749973,19.4444703357816
0.0228894474057182,19.4467576578583
0.0218148979411277,19.448971842714
0.0207430205315476,19.4511464658181
0.0196774859305749,19.4533031054722
0.0186219423761013,19.4554572338801
0.0175798166433317,19.4576208158327
0.0165542616587212,19.4598036681783
0.0155481515816474,19.462014250155
0.0145640891714842,19.4642601692616
0.013604416478748,19.466548529855
0.0126712296739719,19.4688861814713
0.0117663844539215,19.4712799353709
0.0108915092158849,19.4737367318193
0.0100480159948477,19.4762637962056
0.00923710664997435,19.4788688059939
0.00845978529493281,19.4815600470478
0.00769743679862965,19.4844226754324
0.0069515678880652,19.4874847367505
0.00622599022041755,19.4907705354313
0.00552469272364728,19.4943082905584
0.0048518385598401,19.4981307263397
0.00421169550572685,19.5022760220501
0.00360852345771775,19.506789178617
0.00304639853770838,19.5117242707712
0.0025289516755287,19.5171486726024
0.00205911551897946,19.5231502227614
0.00163904998301594,19.5298474435207
0.00138309866993385,19.5348726759442
0.00117732703999626,19.5398979083678
0.00094288378993397,19.5475609017405
0.000773196180243712,19.5551437105527
0.000625017011957652,19.5642068585148
0.000513681581605903,19.5742068585148
0.000443221883727625,19.5842068585148
0.000402959878517941,19.5942068585148
0.000385315950656349,19.6042068585148
0.000385166165229236,19.6142068585148
0.000399423703686894,19.6242068585148
0.000426686224575692,19.6342068585148
0.000467008407847173,19.6442068585148
0.000520090496391003,19.6539136855255
0.000583825414662346,19.6628794091473
0.000658310734318498,19.6711457412967
0.000744296933875975,19.6787688430278
0.000842945297354181,19.6858009037634
0.000955736480969128,19.692289963442
0.00108444074025717,19.6982803491135
0.00123111947931115,19.7038130477449
0.00139814436090982,19.7089260117995
0.00158822739230804,19.7136544264325
0.00180446210465834,19.7180309537283
0.00205037582822654,19.7220859600419
0.00232999647525002,19.7258477266578
0.00264793578700741,19.7293426555365
0.00300949834073765,19.7325954832198
0.00342082385190911,19.7356295098643
0.00388907967506473,19.7384668536709
0.00442273018330809,19.7411287582826
0.00503192789799354,19.7436359924663
0.00572911047096956,19.7460094107133
0.00650256933211827,19.7481999866232
0.00736235482211734,19.7502434281571
0.00832549556455074,19.7521800188057
0.00941997354368692,19.7540554686006
0.0106998097249188,19.7559359777245
0.012334121513852,19.757999717766
0.0140293531087531,19.7598752805418
0.015895287695775,19.7617508433175
0.0174750263190543,19.7632631554947
0.0188320977369482,19.7645615762466
0.0200408616222422,19.7657665919462
0.0211157179086289,19.7669351309354
0.022047421887124,19.7681076847362
0.0228108227738127,19.7693272731509
0.0233581927489633,19.7706588928966
0.0235830671300797,19.7722516544659
0.0232346251341804,19.7741856944423
0.0222934467030515,19.7761197344187
0.0212104867959764,19.777668133758
0.0200138226612001,19.7791152021638
0.0186948942677173,19.7805705910758
0.0172614032527041,19.7820805575663
0.0157214143013428,19.7836814671366
0.0141185334793908,19.7854161728277
0.0115689099255456,19.7885152308608
0.00956575672250268,19.7913595726342
0.00798914586720343,19.7939644043899
0.00668109231052357,19.7964685712684
0.00553542338801155,19.7990141293489
0.00452637448268921,19.8016303884828
0.00363582581815208,19.8043408179143
0.00286145900237155,19.8071205413845
0.00223658878166273,19.8097571808075
0.00172224650878994,19.8122828766661
0.00128788469712209,19.8147445065314
0.00090936127284455,19.8172058151948
0.00056450009784216,19.8197733398192
0.00022006795693515,19.8227276138489
-1.88458740776578e-05,19.825058455797
-0.000233725403224727,19.8273892977451
-0.000402331630839805,19.8293953768702
-0.000542765511222239,19.8311977565436
-0.000670612534587007,19.8329504983199
-0.000794820525936265,19.834761396606
-0.000924117106207079,19.8367645513042
-0.00107521840919053,19.8392628457656
-0.00134066727811186,19.8440655904425
-0.00155593217813052,19.8483528744597
-0.00172435694514315,19.8519578137888
-0.00189350606493555,19.855822272071
-0.00208945775298513,19.8607135430763
-0.00227096059325401,19.866077991932
-0.00238135295929804,19.8708100636822
-0.00241424883075032,19.8751018112995
-0.00235936436770747,19.8789726081759
-0.00221068907581592,19.8824793678843
-0.00196479915046636,19.885680904669
-0.00161757190229142,19.8886465223061
-0.00116082803505412,19.891447936894
-0.000578301603169688,19.8941620457458
0.000162490792174372,19.8968855928599
0.00114782765270644,19.8998177968723
0.00242932440280326,19.9029789355563
0.0040285002063201,19.9063425530142
0.00538687389350016,19.9088723046161
0.00689558257044852,19.911402056218
0.00827122334222878,19.913468884701
0.00968058038822353,19.9153630830105
0.0111218581212132,19.9170836573821
0.0126831904634341,19.9187278236301
0.0143978709443392,19.9203084242726
0.0162790300698053,19.9218176462064
0.0183714673555367,19.9232729171978
0.0206962891559555,19.9246704307895
0.0232920058242969,19.9260167057789
0.0261918600826544,19.9273129096715
0.0294308698179993,19.9285600855254
0.033056602241599,19.9297626153049
0.0371195382353834,19.9309234281896
0.0416783380627162,19.9320456950016
0.0468007985166549,19.9331325901272
0.0525707955578689,19.9341881951367
0.0590866954455515,19.9352163614294
0.0664676005947175,19.9362212191763
0.0748598631869598,19.9372072998455
0.0844459894980314,19.9381796697469
0.0954609104106509,19.9391444200722
0.108213254604135,19.9401089498111
0.123125343478001,19.9410828959784
0.140806807546367,19.9420797806353
0.161606848702253,19.9430932581692
0.185751203368547,19.9441146990094
0.213940716318486,19.9451576901786
0.247166769333535,19.9462426480984
0.286835098103653,19.9474004790573
0.320793791862416,19.9483153470031
0.356263038339411,19.9492302149489
0.38797047652418,19.9500411159608
0.415794323940788,19.9507748539925
0.440097796601071,19.9514646767675
0.460863597021755,19.9521345504872
0.477735435712001,19.9528051286793
0.489952135693636,19.9534986304168
0.49607080950379,19.9542451024102
0.493329882134893,19.955074745266
0.479662016044129,19.9559175632548
0.4538550675755,19.9567879210495
0.414407333257228,19.9576964768439
0.359664523466036,19.9586531833354
0.319035133114107,19.9592537165778
0.274445617846232,19.9598542498201
0.234303748129865,19.9603653634387
0.199362389263322,19.9608007660683
0.168342048564912,19.9611887313941
0.140372399453631,19.9615467607508
0.114904512736161,19.9618860691924
0.0915453223300886,19.9622150714335
0.0699608570591492,19.9625414977138
0.0497866986359849,19.9628747016685
0.0304245801397472,19.9632314501796
0.00981335594576072,19.9636712746352
0.000519888558150949,19.9638993055553
-0.0078645084098163,19.9641273364753
-0.0142488454768536,19.9643192592067
-0.0201149010929361,19.96451340969
-0.0259714713786193,19.9647289789658
-0.0315919805562443,19.9649625420584
-0.0368334053943125,19.9652120713454
-0.0416174021979593,19.9654769206401
-0.0459037236224742,19.9657573601967
-0.0499763054599486,19.9660819308949
-0.0531333990614999,19.9663960551083
-0.0557714014600223,19.966729691607
-0.0579060271777224,19.9670857838957
-0.0595505623851752,19.9674674472943
-0.0607188154985314,19.9678785077487
-0.0614236378351351,19.9683236905001
-0.06167543773035,19.9688088910985
-0.061480513774209,19.9693415828113
-0.0608382132485901,19.9699319503813
-0.0597359173819851,19.9705942448132
-0.0581452299803789,19.9713475885487
-0.0560093537036648,19.9722213198763
-0.053208982262561,19.9732674280031
-0.0494225381358575,19.9746111746677
-0.0454730360466596,19.975986751177
-0.0416773635211954,19.9773167576441
-0.0380747604355439,19.9786053025263
-0.0346838461582131,19.979854519772
-0.0315133818939115,19.9810652294742
-0.0285660669964464,19.9822375822206
-0.0258403760040252,19.9833714029394
-0.0233316345795194,19.9844663712248
-0.0210327709927137,19.9855221127451
-0.0189349130882634,19.9865382399719
-0.0170278971802515,19.9875143623454
-0.0153007130416682,19.9884500767675
-0.0137122885066352,19.9893624683261
-0.0121816870237276,19.9902980516976
-0.010713766117568,19.9912581647639
-0.00931251304968837,19.9922448335907
-0.00798173322409272,19.9932604268862
-0.00672499565420263,19.9943077436133
-0.00554558174982905,19.9953901234015
-0.00444643163353392,19.996511594355
-0.00343008799145901,19.9976770753419
-0.00253742384168342,19.9988385376709
-0.00175658282493428,20
