ecg,time
0.00423792688822376,15.0002101474676
0.00480992351517295,15.0026269919684
0.00546204503951208,15.0049060677403
0.00619594614720497,15.0070353220561
0.00700646507491505,15.009000885132
0.0079044035427503,15.0108361519107
0.00890607886797503,15.0125748673889
0.0100374610661257,15.0142542916579
0.0113461716586891,15.0159254301627
0.0130035330302813,15.0177484671516
0.0155328066411566,15.0201251767206
0.0171381032414979,15.0214798103971
0.0188189555026541,15.0228344440737
0.0203494651446303,15.024056514781
0.0217206233156988,15.0251855670036
0.0229495873514504,15.0262751743872
0.0240306581490572,15.0273646824017
0.0249409288882316,15.0284940508585
0.02563568849711,15.0297211388933
0.0260187960072217,15.0311711982084
0.0256999443957937,15.0333847041552
0.0249539301569713,15.0348580133386
0.0238838973816118,15.036331322522
0.0226634694101155,15.0377173577704
0.0212954083032802,15.0391157254947
0.0197888370133477,15.0405730620347
0.0181518754600535,15.0421267495773
0.0170412946989705,15.0431869280368
0.0159740962564659,15.0442471064963
0.0135175595941581,15.0469146168528
0.0111255616115882,15.0499220764325
0.00925907717069934,15.0526758293704
0.00778063602025067,15.0552211872921
0.00653457057471611,15.057717354578
0.00544584919766216,15.0602634073634
0.00451419058837448,15.0628176586696
0.00370668876420689,15.0654218228931
0.00296680564512954,15.0682553185566
0.00231873661289183,15.0712388904818
0.00194251775648691,15.073270393853
0.00161139601959647,15.0753018972243
0.00134366441149991,15.077156762574
0.00111426303169028,15.0789358397625
0.000904607093169241,15.0807521461804
0.000700922246820698,15.0827336978489
0.000484467898617759,15.0851381275464
0.000171351407475143,15.0893734040017
-5.83807377727809e-05,15.0933527467569
-0.00021371361668273,15.096726541137
-0.000344403044306235,15.1002728287936
-0.000464035208384399,15.1045691425042
-0.000561009452885215,15.1100913443379
-0.000590097854021866,15.11488510186
-0.000562661197022849,15.1192735789366
-0.000479208702731412,15.1232541252747
-0.000337993224796729,15.1268711479961
-0.000135258274327812,15.1301749411639
0.000134236780870871,15.1332128213259
0.000478100145171519,15.1360371255673
0.000907991207414842,15.138705858754
0.0014428763582773,15.1412860193258
0.00211811818875094,15.1438709650624
0.00299239865200963,15.1465691180781
0.00418464963858843,15.1495632951438
0.00568074108740652,15.1526544278295
0.00690776956261104,15.1548172847301
0.00831355001873239,15.1569801416308
0.00973390984784033,15.1588807893974
0.0112426322445713,15.1606379903909
0.0128458573596383,15.1622594534216
0.0146111833738041,15.1638057672979
0.0165688173108228,15.1652858340973
0.0187417836149137,15.1667006352902
0.0211736837616952,15.1680623528333
0.0238921647882003,15.1693703323621
0.0269413774293305,15.1706307319373
0.0303618893665532,15.1718454719063
0.0342000210272804,15.1730169854818
0.0385135417771636,15.174149178406
0.0433666691988297,15.1752451792355
0.0488334286496507,15.1763080393193
0.0550053149644306,15.1773416880946
0.0619913306944695,15.1783500653378
0.0699236399004995,15.1793373467797
0.0789657680105208,15.1803081840784
0.0893237830513366,15.1812679020103
0.101263140128646,15.1822228028903
0.115139238925784,15.1831809184664
0.13144434861457,15.184152817217
0.150903411906169,15.1851537171059
0.173496518118686,15.1861589995534
0.199763704003578,15.1871762876353
0.230502906525204,15.1882205352637
0.266878662987735,15.1893153405682
0.30911452885147,15.1904602628732
0.350027202782788,15.1914931700038
0.384309313664469,15.1923367084922
0.413963277911906,15.1930785216842
0.439907821220145,15.1937661761307
0.46232220951698,15.1944275116519
0.48097998033482,15.1950842715283
0.495263695854724,15.1957583933087
0.503958630870419,15.1964782092242
0.50456702215098,15.1972916999667
0.494423129898046,15.1981220609571
0.472346489080644,15.1989787935406
0.436836409847782,15.1998741053326
0.38618344803739,15.2008171350421
0.342748695208396,15.2014838230783
0.293877353344166,15.2021505111144
0.25012879524011,15.2027047934452
0.212693296612966,15.2031638403315
0.179835256186714,15.2035651618399
0.150406109042475,15.2039308175501
0.123725529329244,15.2042740043275
0.0993367015019791,15.2046039531517
0.0768794322976976,15.2049284705608
0.0560014596012009,15.205256013065
0.036216569299729,15.2055995499276
0.0163179750120397,15.2059931177248
0.00789961619502404,15.2061800961471
0.000131509328603796,15.2063670745694
-0.00804600193592093,15.2065827181698
-0.0146162078603257,15.2067736374598
-0.0204839041867939,15.2069610245887
-0.0264041727581377,15.2071706190186
-0.0321278474177741,15.2073987032158
-0.0374931204931923,15.2076429158767
-0.0424104210519302,15.2079023888622
-0.0468331517916805,15.2081772354988
-0.0507347631184485,15.2084682631841
-0.0541630375511598,15.2087832092815
-0.0569659716675981,15.2091087330825
-0.059257812283249,15.2094557394467
-0.0610526310072629,15.2098272761496
-0.0623643879399905,15.2102269529526
-0.0632064639468534,15.210659222115
-0.0635901711001064,15.211129625221
-0.0635231292839181,15.2116451600383
-0.0630071732350916,15.2122149013327
-0.0620327765574627,15.2128523465249
-0.0605760517631115,15.2135748640983
-0.0585886305083304,15.2144084785645
-0.0559714311561998,15.2153973027798
-0.0524807321575252,15.2166371680704
-0.0484466826718579,15.2180314380706
-0.044547178860293,15.2193783768556
-0.0408314874466091,15.2206832233031
-0.0373231564961041,15.2219486268685
-0.0340338539339263,15.2231756507203
-0.030968286619642,15.224364548969
-0.0281264477286796,15.2255151790499
-0.0255048522290027,15.226627218499
-0.023097355545703,15.2277002766608
-0.0208957844262332,15.2287339474453
-0.0188904688333588,15.2297278271502
-0.0170707079108952,15.2306815102527
-0.0154251805952406,15.231594570226
-0.0138549617390241,15.2325195489914
-0.012345233387774,15.2334683425865
-0.0109001987072943,15.2344427500286
-0.00952373523158516,15.23544497521
-0.00821950483315698,15.2364776111218
-0.00699090149461951,15.2375437380876
-0.00584099759677915,15.2386470530742
-0.00477248744508196,15.2397920448462
-0.00378762763302409,15.2409842370316
-0.00288817321680616,15.2422305351708
-0.00207530759257414,15.2435397393326
-0.0013495620091921,15.2449233330881
-0.000710716793775552,15.2463967614459
-0.000157668011546407,15.2479816404451
0.000291082943421246,15.249622947981
0.000645485460743105,15.25131672651
0.000921318719163029,15.2530814891229
0.00113309230792595,15.2549403724809
0.00129461698059083,15.2569247989842
0.0014195307979268,15.2590803593305
0.00152217011353097,15.2614795784636
0.00161949728123724,15.2642555320244
0.00173769201961182,15.267728356508
0.00188120298043079,15.2714990194862
0.00205379795421927,15.2754149078052
0.00224490883707479,15.2792764645932
0.00245127851295693,15.2831454931114
0.00266993207962515,15.2870692438556
0.00289913747868449,15.2910856623226
0.00313863770631672,15.2952282757949
0.00338954226925872,15.2995290494105
0.00365411952817405,15.304020213045
0.00393562133794776,15.308735777469
0.00423823915792886,15.3137129705541
0.00456729258602358,15.3189935340842
0.00491997714784233,15.3244738714862
0.00527741067080575,15.3298092977427
0.0056479995828088,15.3350885222449
0.00603202890728383,15.3402693772326
0.00643397170412887,15.3453678042445
0.00685782659366379,15.3503885468794
0.00730826001678736,15.3553403327413
0.00779012937192176,15.3602287200723
0.00830866169204126,15.3650573762081
0.00886951062182142,15.3698278046055
0.00947888591709692,15.3745398442768
0.0101436819761794,15.379192142832
0.0108796471988823,15.3838309473698
0.0117072422555513,15.3885022246181
0.0126439434785347,15.3932078205959
0.0137154660494097,15.3979705465027
0.0149604507220031,15.402839770169
0.0164491148711151,15.4079370001151
0.0183602096450262,15.4136356072928
0.0207834542020617,15.4199696172655
0.0223212917507367,15.4237013207401
0.0238817112775443,15.4274330242146
0.0252384735903992,15.4307914892734
0.0263822841043995,15.4338968774585
0.0273202592536448,15.4369091080997
0.0279950140929523,15.4397744128841
0.0284033252404838,15.4425845449946
0.0285289433510066,15.4454749942121
0.028306435806972,15.4486718573471
0.027422739137442,15.4530354493434
0.0265515578045516,15.4558342252226
0.0254923848305982,15.4586330011017
0.0244185585489669,15.4611465212331
0.0233451928876445,15.4634841330526
0.0222707706231656,15.4657263257522
0.0211974510701525,15.4679158055621
0.020128755166933,15.4700784838443
0.0190683883653554,15.4722321606032
0.0180198923387067,15.4743901729665
0.0169865494939778,15.4765631863655
0.015971362493517,15.4787601950916
0.0149770574785506,15.4809891366642
0.014006096540584,15.4832572946485
0.0130606866410631,15.4855715956236
0.0121427925699756,15.4879388283416
0.0112541483239123,15.4903658247484
0.010396261008225,15.492859639524
0.00957042920391166,15.4954276811542
0.0087777444383822,15.4980778922324
0.00800904790444505,15.5008567682161
0.00725498707013274,15.5038255717421
0.0065194095970348,15.5070065536403
0.00580620055657594,15.5104260978253
0.00511943136259023,15.5141147545606
0.00446331214065535,15.5181080282235
0.00384209602818902,15.5224475193529
0.00325992890967363,15.5271826982917
0.00272063824309955,15.5323738953816
0.0022274220202941,15.5380982194589
0.00178268137405555,15.5444581694985
0.00139466261690902,15.5514581948941
0.00107744533393096,15.5590131996976
0.000870528166127848,15.5658919782482
0.000689604348491246,15.5739464863878
0.000541736683916849,15.5829228441451
0.000425917054885164,15.5929228441451
0.000348082988511318,15.6029228441451
0.00029757455759626,15.6129228441451
0.000266626204248707,15.6229228441451
0.000249681865468218,15.6329228441451
0.000242927028315856,15.6429228441451
0.000243855801200929,15.6529228441451
0.000250902695034218,15.6629228441451
0.000263174580230835,15.6729228441451
0.000280281657521303,15.6829228441451
0.000302247370198328,15.6929228441451
0.000329478703495864,15.7029228441451
0.000362789101443059,15.7129228441451
0.000403479254650152,15.7229228441451
0.000453101302569686,15.7328495184625
0.000509864233590011,15.7420555699479
0.000574375858000717,15.7505693572961
0.000647563996238519,15.758441955134
0.000730556956888899,15.7657217362717
0.000824661365457849,15.7724537079593
0.000931366592709529,15.7786797731416
0.00105236299233888,15.7844389773535
0.00118956663461973,15.7897677141731
0.00134514855833425,15.7946999010426
0.00152156706938057,15.7992671521136
0.00172160756965593,15.8034989456455
0.00194842775092559,15.8074227808875
0.00220561263100551,15.8110643214946
0.00249724128947414,15.8144475427452
0.0028279692413753,15.817594886004
0.00320313388401504,15.8205274154611
0.00362888897655442,15.8232649843088
0.00411238453851436,15.8258264260901
0.00466201365784474,15.8282297806933
0.00528776161789443,15.8304925776679
0.00599963928663833,15.8326265230777
0.00678458149303702,15.8345882272916
0.00765138656735456,15.8364095344526
0.0086133219658372,15.8381221855219
0.00969031568627187,15.8397586186173
0.0109156847237419,15.841357704391
0.0123865110097574,15.8430122176447
0.0143661647844169,15.8449264920733
0.0161520748129408,15.8464500532492
0.0180935454462653,15.8479736144251
0.0198615861500609,15.8493015120107
0.021408078303751,15.8504625770545
0.0227952755679524,15.8515468141692
0.0240376276988268,15.852603857525
0.0251250305728561,15.8536712491841
0.0260296296863075,15.8547909612195
0.0266972821089603,15.856030233942
0.0269995455582201,15.8575585549839
0.0266618182679489,15.8593095608741
0.0257041409676366,15.8610605667642
0.024574586459544,15.8624897903148
0.0232967708184937,15.8638535054159
0.0218657864949929,15.865245233988
0.0202895834487315,15.8667087584075
0.0185744090886454,15.868282795794
0.0178968517954223,15.8689092848693
0.0172335312965279,15.8695357739447
0.0147454780787623,15.8720646387763
0.0120470868040143,15.8752310560057
0.0099726166168084,15.8781031731283
0.0083626621651184,15.8807161463232
0.00705131563808372,15.8831961760155
0.00591011943539012,15.8857129879943
0.00491142709705507,15.8882969830974
0.00405712407643567,15.8909030736209
0.00333417693935816,15.8935086948623
0.00269490600707608,15.8962437816662
0.00210076271428331,15.8993056363996
0.00173532035086976,15.901540297989
0.00141856167665349,15.9037749595784
0.00117496273797878,15.9057399459008
0.000974795844689339,15.9075607933381
0.000797174232996148,15.9093731389362
0.000629887081857601,15.9112929113989
0.000461002772201373,15.9134992868771
0.000263200078698034,15.9165467953025
4.22649964194612e-05,15.9208457347642
-9.6300745176471e-05,15.9243577017144
-0.000198033451267395,15.9276761432147
-0.000282877618271669,15.9314279114564
-0.000347449737848294,15.9361348844449
-0.000363628950529388,15.9412504668626
-0.000322411586363438,15.9458130591694
-0.000226268775680106,15.9499706775801
-7.41324643745812e-05,15.9537497430451
0.000136771534521551,15.9571908703103
0.000410794431868754,15.9603403603145
0.000753730947583436,15.9632432880181
0.00117373776008184,15.9659471471107
0.00168309702891707,15.9685035727993
0.00230069769900725,15.9709687617285
0.00305256378778734,15.9733951207958
0.00398393763484975,15.9758572461827
0.00514316440138533,15.9783931059438
0.00652108579112148,15.9809133816159
0.00802793177310951,15.9832463693553
0.00957706882635854,15.9853016098209
0.0111713823072384,15.9871296341562
0.0128619176510189,15.9888098452602
0.0146841131849484,15.9903789670178
0.016692620122529,15.9918748505199
0.0189017513283247,15.9932949445513
0.0213608323525082,15.9946573984149
0.0241078807274988,15.9959674562988
0.0271777210617018,15.9972266905682
0.0306202676960089,15.9984410169742
0.0344820551301456,15.9996124375044
0.0388225654954911,16.0007449642602
0.043708532206751,16.0018419498627
0.0492166376728643,16.0029065646406
0.0554390981812707,16.003942445799
0.0624886034344927,16.0049537427737
0.0705011670647887,16.0059447208714
0.0796457483654087,16.0069201863682
0.0901353348616614,16.0078856139766
0.102249907324701,16.0088478898876
0.116365161346035,16.0098156369719
0.133010993196357,16.0108005791712
0.15281081632939,16.0118117808508
0.17576381535607,16.0128269788245
0.202498802271415,16.0138579895946
0.233879510321942,16.0149219494185
0.271220675960591,16.0160472689259
0.313352876976709,16.0171985783921
0.351609471390469,16.018183218251
0.3841700424336,16.0190087017522
0.412567475382407,16.0197472332944
0.437397278157394,16.0204381779284
0.45870445128498,16.021106719646
0.476177643888114,16.0217737760003
0.489111855977643,16.022461293642
0.496162045572648,16.0231983158129
0.494647746698143,16.0240257564649
0.48228443234285,16.0248650272352
0.457891592955772,16.0257310101018
0.419976657800192,16.0266348161863
0.366882371293572,16.0275859562576
0.325440672905469,16.0282082655375
0.279569485850956,16.0288305748174
0.238330873798152,16.0293562163241
0.202622448640407,16.0297998704282
0.171031213360313,16.0301926967896
0.142605260921273,16.0305536369223
0.116757059462464,16.030894540996
0.0930753041664155,16.0312240780684
0.0712200463075431,16.0315499679586
0.0508355780007958,16.0318811627284
0.031376170728461,16.0322327557621
0.011202770776952,16.0326518684842
-8.4508140691491e-05,16.032922129521
-0.00734388724641678,16.0331149283792
-0.0139721829292752,16.0333077272374
-0.0197631893923191,16.0334926041204
-0.025655629991489,16.033700661806
-0.0313841390672611,16.0339278542808
-0.036773596733304,16.0341715065441
-0.0417266578394708,16.0344305585556
-0.0461921455372084,16.0347050010719
-0.0501401551845409,16.0349955544953
-0.0535969371883936,16.0353077451289
-0.0564520904959896,16.0356322387115
-0.0587969323663915,16.0359779478503
-0.0606448443214359,16.0363478102537
-0.0620095701195438,16.036745331214
-0.0629044989605574,16.0371748285783
-0.0633411868169829,16.0376416639192
-0.0633277839987049,16.0381525850373
-0.0628671159788868,16.0387162519797
-0.0619515724988041,16.0393455008064
-0.0605599630096145,16.0400568384911
-0.0586491431001619,16.0408744836731
-0.0561320088840318,16.0418384051669
-0.0528046364038943,16.0430305638741
-0.0487737197612487,16.0444302321185
-0.0448706141524867,16.0457805173287
-0.0411478840160306,16.0470877778404
-0.0376308864152714,16.0483550630503
-0.0343321561959211,16.049583653621
-0.0312568632694246,16.0507739269236
-0.0284052726198703,16.0519258124307
-0.0257740710692718,16.0530390310091
-0.0233572280792352,16.0541132188183
-0.0211466477717917,16.0551479869174
-0.0191327121863834,16.056142943081
-0.0173047540189321,16.0570976900083
-0.0156514716388665,16.0580118076641
-0.014076148118283,16.0589363103211
-0.0125611068532171,16.0598845954599
-0.0111105758565755,16.0608584432928
-0.00972843314041504,16.0618600506336
-0.00841834081220265,16.0628920012311
-0.00718369249682874,16.0639573635316
-0.00602755935491684,16.0650598191454
-0.00495263319466804,16.0662038367615
-0.00396116622611699,16.0673949133375
-0.00305490634349077,16.0686399182198
-0.00223502567479661,16.0699476009956
-0.00150203806270009,16.0713293723122
-0.00085569704178737,16.0728005669401
-0.000294856985077298,16.0743826239264
0.000162283378138793,16.076023022299
0.00052475923025696,16.0777154471666
0.000808459564951665,16.0794783908406
0.00102798221750268,16.0813348421892
0.00119723767160077,16.0833159830938
0.00132998601328217,16.08546697476
0.00144072965744303,16.0878594752961
0.00154668834786296,16.0906244120358
0.00167449736552153,16.094073877364
0.00182851391742418,16.0978410651218
0.00201279122115891,16.101778029061
0.00221531374010252,16.1056588821125
0.00243299778641445,16.1095460715487
0.00266297367071852,16.1134874610338
0.00290360030243459,16.1175213750809
0.00315472765377308,16.1216815987462
0.00341759684196544,16.1260002856104
0.00369463663017932,16.1305098186424
0.00398929486881595,16.1352443311822
0.0043060083385823,16.1402411236251
0.00465041690236761,16.1455419489676
0.00501388741779361,16.1509567942971
0.00538423763168375,16.1562571387509
0.00576770286813329,16.1614931241047
0.00616563434497302,16.1666375437939
0.00658240382425613,16.1717018218517
0.00702229116694752,16.1766913957852
0.00749015147919589,16.1816138583101
0.00799110377391522,16.1864741712852
0.00853066325709078,16.1912753339287
0.00911481271854272,16.1960182935399
0.00975012949656685,16.2007024298206
0.010443927912909,16.2053261593527
0.0112210230308993,16.2099823107343
0.012096010496476,16.2146661462541
0.013090482038138,16.2193932192509
0.0142346148840675,16.22419437842
0.0155774896228257,16.2291425231584
0.0172196324609872,16.234429170204
0.0195014859684321,16.2408039630805
0.021186954177312,16.2450496767478
0.0229535242462293,16.2492953904151
0.0244663818933008,16.2529394196711
0.0257335971553447,16.2561730983751
0.0267927965853176,16.2592228662525
0.027625793619905,16.2621750689538
0.0281909087741306,16.2650029092636
0.0284864410828277,16.2678273721295
0.0284813494918452,16.2708055075767
0.0280631305895841,16.2742760235339
0.027276148001303,16.2776100737654
0.0261722159997917,16.2809441239969
0.0250792777335274,16.2836851438163
0.0240043301696906,16.2861224146908
0.0229305391494448,16.2884167966107
0.0218563341630158,16.2906347638478
0.0207845291789759,16.2928112100348
0.019718785692358,16.2949683109311
0.0186627693430804,16.2971218573748
0.0176199307031911,16.299283996254
0.0165934476703789,16.3014646480792
0.0155862191292992,16.3036723247194
0.0146008710540659,16.3059146511972
0.0136397684663441,16.3081987184221
0.0127050285684855,16.3105313385494
0.0117985272136847,16.3129192596084
0.0109219133086326,16.3153693274986
0.0100766152024169,16.3178886510071
0.00926385216613214,16.3204847483774
0.00848464167999417,16.323165711004
0.00772102732739526,16.3260133861156
0.00697353964594306,16.329058675772
0.00624597551978089,16.3323255243779
0.00554229578661667,16.3358417633374
0.00486663444749554,16.3396396394854
0.00422323129689824,16.3437567222264
0.003616321045291,16.348237201129
0.00304995950350525,16.3531340025341
0.00252776401204251,16.358512730729
0.00205264526106862,16.3644584382691
0.00162670199046987,16.3710852850073
0.00126317448087362,16.3782818349378
0.000970567538606565,16.3860728204666
0.000737816564267048,16.3949920389898
0.000591810172988025,16.4027897052255
0.00046194519880467,16.4122084557744
0.00036607817821942,16.4222084557744
0.000301805837601269,16.4322084557744
0.000260247448262671,16.4422084557744
0.000234899972563714,16.4522084557744
0.000221130036243557,16.4622084557744
0.000215773183386363,16.4722084557744
0.00021675319226957,16.4822084557744
0.000222765148829766,16.4922084557744
0.000233049571088004,16.5022084557744
0.00024725055012739,16.5122084557744
0.000265337265529438,16.5222084557744
0.000287571460054356,16.5322084557744
0.000314512563202434,16.5422084557744
0.000347061379413107,16.5522084557744
0.000386552381942738,16.5622084557744
0.000434730600868899,16.572172820515
0.00048979598886432,16.5814169718794
0.000552387082691676,16.5899676056165
0.000623439513723737,16.5978755417263
0.000704074363313215,16.6051890243838
0.000795582414616279,16.6119529871446
0.000899431108595799,16.6182092938468
0.00101728355330578,16.6239969734315
0.00115102312944894,16.6293524191369
0.00130278235217532,16.6343095604639
0.00147497452956578,16.6389000307033
0.00167033247319844,16.643153329449
0.00189195228298876,16.6470969765931
0.00214334680517936,16.6507566546937
0.00242850969874046,16.6541563531219
0.00275199470273481,16.6573185183801
0.0031190162533246,16.6602642073512
0.00353557743003961,16.6630132485203
0.00400864010685454,16.6655844250274
0.00454635652564098,16.6679956890621
0.00515839449244019,16.6702644269077
0.00585641570765685,16.6724078161502
0.00662819235345991,16.6743811950501
0.00747982932687884,16.6762093914035
0.00842352667975096,16.6779237181365
0.00947735322510715,16.6795555574202
0.0106706361842021,16.6811409242012
0.0120783457920165,16.6827527647937
0.0139116943606151,16.6845600796247
0.0158906199830985,16.686264462777
0.0176129217763969,16.6876165565011
0.0194273491944022,16.6889686502251
0.0210492337340628,16.6901604172511
0.0225002568216987,16.6912551611383
0.0238045540937722,16.6923091461176
0.0249585199992038,16.6933613992336
0.025940350868473,16.6944506045773
0.0267066340891844,16.6956317535017
0.0271652036082835,16.6970211293493
0.0269499833657638,16.6991353706471
0.026236075630636,16.7005876087466
0.0251697445392183,16.7020398468462
0.0239403745718585,16.7033989679874
0.0225512405676734,16.7047703974849
0.0210110687388915,16.7062023629491
0.0193276707507466,16.7077328632133
0.01822881611188,16.7087351812067
0.0171580192922218,16.7097374992001
0.0155847066439286,16.7112987318814
0.0129104546286201,16.7142666187832
0.0106328911228479,16.7172280586388
0.00887074681591449,16.7199193933903
0.00746623766609619,16.7224217955444
0.00626265777948221,16.7249190295836
0.00521034277503496,16.7274732722073
0.0043049655668243,16.7300567692463
0.00356795862611318,16.7325263000638
0.00295751687846346,16.7349147637807
0.00243957360447276,16.7372727620993
0.00198397037107287,16.7396869266069
0.00155240668476152,16.7423732286889
0.00123012368440364,16.7447232981521
0.000951542618080443,16.7470733676154
0.00075004349509016,16.7490126011643
0.000589545092996274,16.7507388287535
0.000448816683984258,16.7524148802805
0.000317543172319445,16.7541443902749
0.000187340354873309,16.7560529272809
4.4875318722645e-05,16.7584166517371
-0.000182211947624364,16.7630076141007
-0.000345532490177423,16.7672898044501
-0.000453977151851658,16.7709251071224
-0.00054290841028732,16.7747878074619
-0.000620660818915176,16.7797450338512
-0.000656761946958569,16.7849795042944
-0.000640592934911831,16.7896409740434
-0.000573269718655452,16.7938695771176
-0.000452596181458539,16.7976916623357
-0.00027525461045833,16.8011488186866
-3.67295865645062e-05,16.804291275978
0.000268777362402807,16.8071694519488
0.000649235395005201,16.8098358167956
0.00111694003031154,16.8123485556757
0.00169263946859275,16.8147763287755
0.00241045757831807,16.8171974017226
0.00333309810149171,16.8197217998682
0.00457351997797093,16.8224987890456
0.00618334459017856,16.8254702968255
0.00753240305869081,16.827593009521
0.009078700337551,16.8297157222166
0.0106297356608859,16.8315690661094
0.0122651432169449,16.8332730095636
0.0140377854717203,16.8348789910976
0.0159411625487625,16.8363739575524
0.018055633441037,16.8378105461262
0.0204064982442576,16.8391881572159
0.023023897987973,16.84050889203
0.0259561706073049,16.8417817589318
0.0292388560321339,16.8430069657612
0.0329227943984571,16.8441891282676
0.0370614845480415,16.8453311845989
0.0417139001792135,16.8464355838058
0.0469521052404307,16.8475057909007
0.0528618788954186,16.8485455152638
0.0595440757909571,16.8495583780886
0.0671207015901729,16.850548312544
0.0757398763011951,16.8515194881986
0.085589621368106,16.852476984966
0.0969078247022813,16.8534265223307
0.110005330758125,16.8543750353592
0.125302698263151,16.8553313993263
0.143396067502431,16.8563077410228
0.164758718693443,16.8573034927567
0.18953221847253,16.8583050535656
0.218401382779451,16.8593243693302
0.252310247765441,16.860378972799
0.292735744133181,16.8614994612456
0.328442149516116,16.8624084576888
0.365944719703833,16.863317454132
0.399126498457629,16.8641114031198
0.428080815534886,16.8648233141132
0.453387802069254,16.8654906663489
0.475119720683452,16.8661390284111
0.492953838653962,16.8667900264707
0.506124891571475,16.8674673683982
0.513106892559573,16.8682049477761
0.510954172117219,16.8690194731043
0.497596151069496,16.869851008659
0.471751686391075,16.8707151386941
0.43177668201574,16.8716232575427
0.375850907202484,16.872584260825
0.332770320589464,16.8732072103087
0.285214556788572,16.8738301597924
0.242682977740256,16.8743546905143
0.206031688309523,16.8747960002742
0.173715751474503,16.8751859534874
0.144703516118597,16.875543851685
0.118363622537805,16.8758816971198
0.0942577144160915,16.8762082361841
0.07202578550157,16.8765312608732
0.0512918022022524,16.8768598681334
0.0314734134116722,16.8772096491069
0.0107514876306674,16.8776313798023
0.000110595980068262,16.8778806637377
-0.00719313542907022,16.8780696802413
-0.0138658669515056,16.8782586967448
-0.0197181784056223,16.8784405546375
-0.0256804324753833,16.8786453963032
-0.0314821582292232,16.8788691991204
-0.0369448727013295,16.8791093094197
-0.041969048228752,16.879364667545
-0.0465021769154396,16.8796352540579
-0.0505186050269248,16.8799217734671
-0.0542705691997861,16.8802521852535
-0.0571511508767528,16.8805740603039
-0.0595144379787253,16.8809167891425
-0.0613772356785463,16.8812836235683
-0.062753647571009,16.8816780952772
-0.0636573268514581,16.8821045560795
-0.0640999999634589,16.8825684197628
-0.0640898495708309,16.8830765160881
-0.0636295190439506,16.8836376367871
-0.0627108786732696,16.8842648183022
-0.0613115585582991,16.8849749587762
-0.059385885933491,16.8857930490582
-0.0568407350254287,16.8867608866863
-0.0534526260563212,16.8879666115163
-0.0493872041978985,16.8893692094562
-0.0454480060441354,16.8907235755427
-0.0416878828201986,16.8920357503051
-0.0381326390475321,16.8933085583466
-0.0347952774343874,16.8945431354633
-0.0316814399572729,16.8957397587534
-0.0287918431283284,16.8968982842069
-0.0261235826983035,16.8980183768416
-0.0236709787888909,16.8990996298401
-0.0214262187034785,16.9001416217439
-0.0193798968171747,16.901143937156
-0.0175214883227451,16.9021061645835
-0.0158397685297942,16.9030278788851
-0.0142576233627055,16.9039478941056
-0.0127348947845782,16.9048914832223
-0.0112760271379836,16.9058602667114
-0.00988493515974785,16.9068563766536
-0.00856533054505455,16.9078823158854
-0.00732066856185859,16.9089410518032
-0.00615409492824263,16.9100361379619
-0.00506838997358338,16.9111718780371
-0.00406590980919256,16.9123535521326
-0.00314852364760167,16.9135877378418
-0.002317545478181,16.9148827808519
-0.00157365660866521,16.9162495124847
-0.000916812302660611,16.9177023983206
-0.000346118813467516,16.9192614941263
0.000124720316068286,16.9208940492961
0.000497447022470117,16.9225750714817
0.000788332419539597,16.924322901656
0.00101206784413324,16.9261593499023
0.00118255196123316,16.9281137070906
0.00131336864117234,16.9302278020424
0.00141854373843635,16.9325666840047
0.00151410121667095,16.9352453633962
0.00162280685968319,16.938519882184
0.001758550008969,16.9422641914225
0.00192871550276237,16.9463039767781
0.00212531318391961,16.9504093549856
0.00232915317097045,16.9543272088258
0.00253870073156439,16.9581719123978
0.00275339610407507,16.9620148707344
0.00297366470425471,16.9659051478423
0.00320086732651433,16.9698814032577
0.00343714625016883,16.9739773489157
0.00368527853019744,16.9782247028074
0.00394857955901904,16.9826551239477
0.00423089394526596,16.9873017424275
0.00453672977221439,16.9922006168591
0.00487159960777466,16.997391996588
0.0052338109359052,17.0027907621393
0.00560324538870091,17.0080488745343
0.00598869564629504,17.0132584920359
0.00639020876074572,17.0183754817272
0.00681240728392296,17.0234145638774
0.00725949848835074,17.0283790771462
0.00773651583496101,17.0332767554049
0.00824877204696408,17.038112243384
0.00880204104971818,17.0428884147375
0.00940259566110098,17.0476060072054
0.0100573392969178,17.0522642201255
0.0107797158724334,17.0568966069097
0.0115916739862826,17.0615631204627
0.0125095872875245,17.0662617644619
0.013557995235014,17.0710133277207
0.0147728839729062,17.0758611892152
0.0162174977336438,17.0809107283703
0.0180421235086533,17.0864691240463
0.0204630904992604,17.0929057448456
0.022028369656168,17.0967349424976
0.0236302772345941,17.1005641401497
0.0250278671752161,17.1039900824313
0.0262067472662109,17.1071263573487
0.0271804950749783,17.1101447602621
0.027901645330628,17.1130309075183
0.0283567902883958,17.115841408496
0.0285344974523899,17.1187054454086
0.0283821166402609,17.1218211471105
0.0276817415952637,17.1257981159089
0.0268388289546931,17.1287459047888
0.0257725418717125,17.1316936936687
0.0246950133536021,17.1342796627806
0.0236216384236756,17.1366520640432
0.0225474807131262,17.138912802368
0.0214737307687141,17.1411120524499
0.0204037186047659,17.1432788351523
0.0193411548148728,17.1454325222495
0.018289639111715,17.1475873403426
0.0172525263470734,17.1497544853422
0.0162328931964202,17.1519432713614
0.0152335385485912,17.154161817039
0.0142569938984241,17.1564174903633
0.0133055327520194,17.1587172260661
0.0123811843664182,17.1610677544481
0.0114857425856835,17.16347579398
0.0106207728569415,17.165948223062
0.00978762857963166,17.1684922128077
0.00898745206997398,17.1711154014849
0.00821552503531136,17.1738468944669
0.00745724614676583,17.1767629257459
0.00671647597030424,17.1798846615951
0.0059970468433263,17.1832374716129
0.00530298874211135,17.1868506896869
0.00463848715880676,17.1907583527
0.00400779988485859,17.1950002291138
0.00341512439877353,17.1996233592548
0.0028643991927916,17.2046846548687
0.0023590172986714,17.2102558623979
0.00190160497401097,17.2164314068238
0.00149600046013764,17.2233008665208
0.001155622091134,17.2306998681635
0.000885721040249791,17.238821006724
0.000720862258408618,17.2457764345762
0.000562302179126613,17.2547434399665
0.000446198421466109,17.2639240492221
0.000358470812832148,17.2739240492221
0.00030051510335505,17.2839240492221
0.000264019692780139,17.2939240492221
0.000242932197528,17.3039240492221
0.000232993885405431,17.3139240492221
0.000231347313540246,17.3239240492221
0.000236171441633367,17.3339240492221
0.000246389513400505,17.3439240492221
0.000261470672355736,17.3539240492221
0.000281315831683554,17.3639240492221
0.000306209581542205,17.3739240492221
0.000336826375052722,17.3839240492221
0.000374291299824906,17.3939240492221
0.000420309973007923,17.4039240492221
0.000474385544353386,17.4134374351027
0.000536123707683106,17.422238951434
0.000606358921796354,17.4303727405366
0.000686178129729134,17.4378895745929
0.000776856474967065,17.4448368853978
0.000879853487679478,17.4512587161908
0.000996827756414349,17.4571960070905
0.00112965982596054,17.4626868438757
0.00128048076725986,17.4677666646713
0.00145170387310684,17.4724684523692
0.00164606332151806,17.4768229188902
0.00186665828410657,17.4808586806002
0.002117007476829,17.4846024180239
0.0024011131545163,17.4880790316596
0.00272354246455781,17.491311804297
0.00308952937437672,17.4943225687203
0.00350510567098397,17.4971318811827
0.00397727591289604,17.499759217813
0.00451425601111989,17.5022232077024
0.005125811216823,17.5045419217769
0.00582375681487154,17.5067332650904
0.00659573780103815,17.5087511228019
0.00744874648867389,17.5106228585088
0.00839580819208142,17.5123813363142
0.0094565645403886,17.5140601580405
0.010663855138247,17.515699414459
0.0121032921716962,17.5173833349929
0.0140384024988975,17.5193294500192
0.0157954854687969,17.5208879503567
0.0177065769135957,17.5224464506942
0.0194394075768564,17.5237987994562
0.0209531197559332,17.5249799437665
0.02230961334472,17.5260822619208
0.0235229937267251,17.5271562278301
0.0245831690200504,17.5282398071076
0.0254625864127593,17.529375186192
0.0261078997299732,17.5306294475465
0.0263935713054648,17.5321695773915
0.0260495097538643,17.5339484589836
0.025090304776209,17.5357273405757
0.0239660950098927,17.537174014356
0.0226995604125471,17.5385503534727
0.0212851229813682,17.5399519731357
0.0197307594167124,17.5414228686927
0.0180430781017934,17.5430013204803
0.0166601637617183,17.5443232620303
0.0153544920492113,17.5456452035803
0.01280245814055,17.5485088093824
0.0105560816056682,17.5514483684404
0.00880402690113508,17.5541361463953
0.00740397854469319,17.5566387007094
0.00620041235183254,17.5591418556392
0.00514707655599358,17.5617028145702
0.0042811896208577,17.5641661741262
0.00355974293533686,17.5665578022987
0.00294418955441236,17.5689297504966
0.00239916433036356,17.5713745618914
0.00187531332445741,17.574141449663
0.00151169171651846,17.5763881443692
0.00119511898744859,17.5786348390754
0.000960092752772998,17.5805276150287
0.000770193248380029,17.5822320760969
0.000602246253316249,17.5838984692437
0.000444219974718963,17.5856309422038
0.00028560545927772,17.5875645214088
0.000107611291125905,17.5900232275719
-0.000159775521578282,17.5944963558732
-0.000348341463699855,17.5984887507216
-0.000480857871744131,17.6019491485557
-0.000597593543559534,17.6057168908901
-0.000710798435050957,17.6105686734989
-0.000788773295596107,17.6159317960817
-0.000810154208100616,17.6206718833352
-0.00077919951826873,17.6249794803923
-0.000694283209228459,17.6288709577301
-0.000552190638820859,17.6323944571259
-0.000348597672415059,17.6355974245978
-7.7546126286691e-05,17.6385342338717
0.000269122405974139,17.641259573093
0.000704009872427339,17.6438346436451
0.00124927203932235,17.6463362977682
0.00194396639751782,17.6488604446494
0.00287593723820837,17.6515833246211
0.00414169825934646,17.6545956020828
0.00572854109181487,17.6577268258521
0.00698034962844234,17.6598559923732
0.00840072453426512,17.6619851588943
0.00982501155252918,17.6638556850168
0.0113408861870351,17.6655971489657
0.0129452003850021,17.6672027703267
0.0147078008396151,17.6687339673568
0.0166680318229143,17.6702057931186
0.0188405232234754,17.671611572733
0.0212736360310686,17.6729662374369
0.0239944581038389,17.6742682207527
0.0270462904990053,17.675522961229
0.030470845566163,17.6767326715108
0.0343115130883725,17.6778987262693
0.038626747799511,17.6790253524602
0.0434803166206574,17.6801156265006
0.0489470572306568,17.681172816523
0.0551145797753187,17.6822002093887
0.062090463934566,17.6832017403697
0.070004950647745,17.6841815462405
0.0790177108452088,17.6851440786906
0.0893287558896886,17.6860943804311
0.10119403058957,17.6870383623375
0.114949543043442,17.6879832235833
0.131054898785459,17.6889383763193
0.150168031429401,17.6899168097619
0.172568731887566,17.6909080972149
0.198563716325332,17.6919073963741
0.228889830717904,17.6929273775318
0.264579911726119,17.6939871614328
0.307327580474667,17.6951223053956
0.342234353109385,17.6959802703889
0.378518086931131,17.6968382353821
0.410794400012993,17.69759920177
0.439032021767812,17.6982901730709
0.463663390025685,17.6989442689049
0.484665644501522,17.6995855755658
0.501618164204291,17.7002359275795
0.513597853646433,17.7009211748592
0.51871888680652,17.7016818907254
0.51385978030801,17.7024952742883
0.497426782896497,17.7033311896511
0.468007074490242,17.7042045660576
0.423845783014825,17.7051259596262
0.376400380899765,17.7059071697834
0.332638559053192,17.7065293515285
0.284460351883547,17.7071515332736
0.241889864623641,17.7076704749472
0.205241266128651,17.7081075934327
0.172921773611832,17.7084945393432
0.143903339235101,17.7088501873571
0.117556536329452,17.709186324314
0.0934418752352471,17.7095116145917
0.0711951630181978,17.7098338781719
0.0504295778511114,17.7101624296351
0.0305267621084644,17.7105137410996
0.00940984253722873,17.7109453305943
-0.000287082337266344,17.7111733307552
-0.00902019041137353,17.7114013309162
-0.0155020827824093,17.7115884979385
-0.0214521918235824,17.7117775054784
-0.0274106632648033,17.7119878040074
-0.0331416919879904,17.7122159542701
-0.0384955248752153,17.7124598946641
-0.043389630846102,17.7127189398414
-0.0477815784668146,17.7129933193755
-0.0516500631411951,17.7132839229241
-0.055162235623511,17.7136111430238
-0.0579082203936288,17.7139375495224
-0.0601404245564365,17.7142856214441
-0.0618749706822909,17.7146586703145
-0.0631260861539864,17.7150604377206
-0.0639071307996525,17.7154955456973
-0.0642290935106377,17.7159697660422
-0.0640988903049773,17.7164904204103
-0.0635168396743806,17.7170672605504
-0.062471100047142,17.7177143953456
-0.060933945700262,17.718450509819
-0.0588494481592718,17.7193041850928
-0.0561002860960189,17.7203257289511
-0.0523750123307548,17.721634281039
-0.048330675416011,17.7230229349996
-0.0444293208684119,17.7243663800435
-0.0407156144517632,17.7256688859083
-0.0372110844971045,17.7269326250153
-0.0339264583608988,17.7281583955988
-0.0308659642563943,17.729346299262
-0.0280293336740878,17.7304961025977
-0.0254129301305393,17.7316074272475
-0.0230105176395633,17.732679847096
-0.0208138663774685,17.7337129328702
-0.0188132711803898,17.7347062652168
-0.0169980099541919,17.7356594276455
-0.0153567497610931,17.7365719855781
-0.0137897517649591,17.7374970853867
-0.0122833532521034,17.7384460173944
-0.0108417472984462,17.7394205871626
-0.00946881210148526,17.7404230004918
-0.00816821116206578,17.741455853219
-0.0069433412469484,17.7425222296051
-0.00579727889326306,17.7436258319476
-0.00473272427740458,17.7447711561921
-0.00375194209453652,17.745963735699
-0.00285669850509003,17.7472104893971
-0.00204819218311703,17.7485202362092
-0.00132697565029822,17.7499044871342
-0.000692859459110117,17.7513787288699
-0.000144783964522894,17.7529646447009
0.000298701188682166,17.7546062269183
0.000647898990457872,17.7563004515688
0.000918517097115486,17.7580658360572
0.00112499493795389,17.7599255707068
0.00128105587262066,17.761911166393
0.00140021952479054,17.7640683731442
0.00149664369799688,17.7664700395826
0.001586979609554,17.7692500493228
0.00169671841529798,17.7727316018917
0.00183085383664509,17.7765034434049
0.00200464301988575,17.780666702895
0.00219369628384184,17.7846659431105
0.0023910898112364,17.788536058408
0.00259507728789123,17.7923691933038
0.00280496067915754,17.7962244521171
0.003021152716047,17.8001452395174
0.00324504191549605,17.8041675000176
0.00347881071279422,17.808323772636
0.00372527912286017,17.8126455627677
0.00398781269858475,17.8171650441928
0.00427033903526624,17.8219165455748
0.0045775329540668,17.8269379641459
0.00491524830382734,17.8322720326052
0.00526994660464704,17.8376474588491
0.0056352923840716,17.8429272370776
0.00601539475122411,17.8481321300742
0.00641247585165734,17.8532484074755
0.00683072281901194,17.8582850762491
0.00727457557419481,17.8632489941959
0.00774893523705732,17.8681470377681
0.00825904083722736,17.872983763872
0.0088105584641689,17.8777616066489
0.00940966970578416,17.8824810190724
0.0100632001969941,17.887141007352
0.0107843121771964,17.8917737389747
0.0115951110845158,17.896440735701
0.012511874719085,17.9011396546644
0.0135590933804081,17.9058912924704
0.014772665205013,17.9107389062351
0.0162156476759093,17.9157875303611
0.0180376579161721,17.921342907428
0.0204580037797165,17.92778254107
0.0220235853142082,17.9316142807854
0.0236261716220862,17.9354460205008
0.0250245463910866,17.9388738256886
0.0262043134703034,17.9420110004206
0.0271790397506457,17.9450296589505
0.0279014523444365,17.9479165714773
0.0283578305707745,17.9507273020144
0.0285368682059174,17.9535908929917
0.0283862169368631,17.9567048511811
0.0276898421170049,17.960673879565
0.0268475206914174,17.9636259498143
0.0257808575889826,17.9665780200636
0.0247030951809894,17.9691660816798
0.0236295950570283,17.9715395967002
0.0225553143903828,17.9738010735004
0.0214814140245215,17.9760008879428
0.0204112164691899,17.9781681467421
0.019348429982221,17.9803222702791
0.0182966533502252,17.9824775187657
0.0172592407129722,17.9846451156808
0.0162392681598771,17.9868344004047
0.0152395338013278,17.9890535175378
0.0142625683979274,17.9913098630289
0.0133106446543494,17.9936104034426
0.0123857909796499,17.9959619064469
0.0114898007259224,17.998371134253
0.0106242388513881,18.000845018418
0.00979045865095646,18.0033907942539
0.00898960284421151,18.0060161780344
0.00821765570887151,18.0087477882716
0.00745934251250931,18.0116640020118
0.00671853195555337,18.0147859681035
0.00599905505473374,18.0181390771077
0.00530494063919495,18.0217526924474
0.00464037329397985,18.0256608934812
0.00400961043059598,18.0299035096879
0.00341685016149671,18.0345276683519
0.00286603329167336,18.0395904041361
0.00236055609658667,18.045163655529
0.00190304895626086,18.0513421679168
0.00149755565461251,18.0582122428456
0.00123455095109239,18.063757740753
0.00102709240529992,18.0693032386605
0.000813673985214727,18.0769658573688
0.000649168682432372,18.0849963883348
0.000511456083891481,18.09419817935
0.000407480016808426,18.10419817935
0.000338458379228828,18.11419817935
0.000294658890853765,18.12419817935
0.000269007244781064,18.13419817935
0.000256494225607928,18.14419817935
0.000253736361288692,18.15419817935
0.000258570349574292,18.16419817935
0.000269719485569267,18.17419817935
0.000286561990092147,18.18419817935
0.000308997418527181,18.19419817935
0.000337393957163339,18.20419817935
0.000372605075345162,18.21419817935
0.000416058744876593,18.22419817935
0.000468482279860218,18.2339476959116
0.000528553091447124,18.2429756945001
0.000596954650107234,18.2513182052861
0.000674688355856325,18.2590271335046
0.00076296440127977,18.2661512329718
0.00086318306909466,18.2727357349637
0.000976942165527651,18.2788226520212
0.00110605676527383,18.2844510499242
0.00125258587242483,18.2896572699821
0.00141886323047037,18.2944751263744
0.00160753347408289,18.2989360965096
0.00182159516347265,18.3030695031867
0.00206445235658043,18.3069026810387
0.00233997563782658,18.3104611319805
0.00265257941603814,18.3137686872906
0.00300731744514152,18.3168476770078
0.00341000665041866,18.3197191021903
0.00386738966702425,18.3224028257167
0.00438735549927544,18.3249177980305
0.00497925042771836,18.3272823326505
0.00565433233625948,18.3295144719684
0.0064073810328944,18.3315846223699
0.00723912499863239,18.3335000930273
0.00816140375245519,18.3352939104371
0.00919203446906653,18.3369995509534
0.0103600157430709,18.3386553106144
0.0117241502749217,18.3403208168226
0.0135023266223409,18.3421901159629
0.0154105847606347,18.3439435352416
0.0170726582419039,18.3453364733117
0.0188227358611073,18.3467294113818
0.0203858134986331,18.3479568942382
0.0217824272242092,18.349083830924
0.0230354872113967,18.350167919829
0.0241411361833633,18.3512490301128
0.0250778635121368,18.3523663886192
0.0258031658150292,18.3535752213056
0.026227534192716,18.3549906808867
0.0260017977886901,18.3571242794908
0.0252964964532,18.3586101898434
0.024244233206711,18.360096100196
0.0230374499267559,18.361479362911
0.0216799496482512,18.3628688058597
0.020180605312823,18.3643136692793
0.0185478955305036,18.365851472514
0.017505572242342,18.3668357268574
0.0164914833347132,18.3678199812008
0.0140361119475284,18.370411949892
0.0115174330741111,18.3734836288007
0.00956140620179156,18.3762879466979
0.00802447783286203,18.3788634140558
0.00674812454370232,18.3813528743151
0.00563454715342453,18.3838864263858
0.00467542961502034,18.3864437423678
0.00386035617496996,18.3889966974115
0.00313885131137429,18.3916629120007
0.00247242247849228,18.394604863318
0.00203293895598417,18.3968969818573
0.00165265756046374,18.3991891003967
0.00136780040362115,18.4011517915552
0.0011357809458094,18.4029493286872
0.000930581046164713,18.4047249097148
0.000737692417000323,18.4065913761524
0.000543523227282569,18.408712700361
0.00032001360684004,18.4115477220412
3.61120384664654e-05,18.4160237451095
-0.000147860371542364,18.4197534672006
-0.000281336245118252,18.4231465898822
-0.000398268442200917,18.4269516774264
-0.000502722415693611,18.4317960060733
-0.000560639191909399,18.4369858559233
-0.000558785597040392,18.4416097358054
-0.000501530868668562,18.4458235638712
-0.000388217101946392,18.4496460899955
-0.000216121226854569,18.4531244283754
1.91643597004468e-05,18.4563075754433
0.000323631979432065,18.4592436690035
0.000706062279485085,18.4619858459039
0.00118014692765688,18.464593490602
0.00176960717778596,18.4671408691249
0.00251270854470527,18.4697114172703
0.00348279418998248,18.4724341859255
0.00479882327113507,18.4754536695304
0.00640313912707666,18.4784916714332
0.0079394158677894,18.4809447328947
0.0094052062448533,18.4829615918946
0.0108879890444986,18.4847351830961
0.0124868040125919,18.4863979926213
0.0142377174791537,18.4879757105011
0.0161501844802666,18.4894644740184
0.0182818537028265,18.4908951730331
0.0206539345506595,18.4922652519508
0.0233106016653332,18.4935844938605
0.0262872772566655,18.4948546030687
0.0296239648048449,18.4960779049156
0.0333702897152333,18.497258360988
0.0375790164201704,18.4983986107739
0.0423111151644379,18.499501530197
0.0476420967729696,18.5005710517737
0.05365891210502,18.5016106889553
0.0604658723664665,18.5026242124045
0.0681883029178388,18.5036155456253
0.076983789646033,18.504589430837
0.0870486951154973,18.5055510514495
0.0986351026674194,18.5065065207884
0.112076405661184,18.5074634057963
0.127830589112462,18.5084316002927
0.14656327864312,18.509425129513
0.168466908709698,18.5104294677776
0.193907652352845,18.5114433588251
0.223632315415611,18.5124806404771
0.258705854071596,18.5135624713205
0.300160121138243,18.514708762531
0.342853001545022,18.5157984577031
0.378235341095946,18.5166706930896
0.408637251057722,18.5174269831899
0.43523207845544,18.518122384118
0.458298834677449,18.5187870160587
0.477678245797202,18.5194431811557
0.492833209626809,18.520112372399
0.502689470790882,18.520821084961
0.505088445936896,18.521611784103
0.497137092597214,18.5224388823885
0.477509717549444,18.5232894028841
0.444768711164686,18.5241763962151
0.397232589204143,18.525109299952
0.352964496290095,18.5258138877884
0.302372333712944,18.5265184756248
0.257124190257686,18.5270975094734
0.218708799115142,18.5275702439442
0.185165750434141,18.5279796338681
0.155208046302516,18.5283503555915
0.12809463448038,18.528696709661
0.103341586517821,18.5290283920649
0.0805786736583366,18.5293533140708
0.0594593872874151,18.529679638628
0.0395388940268706,18.5300190466422
0.0198467028387692,18.5303987870629
0.00488623494655783,18.5307306893697
-0.0030696009855437,18.5309287602359
-0.0103292634706137,18.5311268311021
-0.0165600824793449,18.5313134476658
-0.0224812149226329,18.5315087644933
-0.0283602755825427,18.5317248601334
-0.0339788767897173,18.5319584567167
-0.0392033281873736,18.5322077619659
-0.0439607785507252,18.5324722757807
-0.0482145666114402,18.5327523629039
-0.0521062105771506,18.5330638088105
-0.0552461621336409,18.5333767912902
-0.0578665025398507,18.533709541714
-0.0599812300856682,18.5340648549147
-0.0616038494323617,18.5344458882347
-0.0627482782541924,18.5348565250841
-0.063427336527382,18.5353015684975
-0.0636512294862188,18.535787023191
-0.0634258200323328,18.5363205212175
-0.0627495501082328,18.5369125567117
-0.061608382993935,18.5375777220611
-0.0599714402976276,18.5383358492653
-0.0577769671355052,18.5392177217081
-0.0548933301204065,18.5402790891117
-0.0509484682439027,18.5416615912288
-0.0469575920411177,18.5430365245373
-0.0431245527014053,18.5443667074788
-0.0394863842500259,18.5456560931695
-0.0360611544925163,18.5469065855729
-0.0328574606215635,18.5481188663005
-0.029877996200923,18.5492929998849
-0.0271212942837315,18.5504287551761
-0.0245827585977565,18.5515257737407
-0.0222553927743805,18.5525836547927
-0.0201303864678654,18.5536019923311
-0.0181976195350375,18.5545803832895
-0.0164461059309261,18.5555184169099
-0.0148409759140168,18.5564293374916
-0.0132931509482603,18.5573633928956
-0.0118075533013242,18.5583218692557
-0.0103881637083988,18.5593067727726
-0.00903878219389675,18.5603204476415
-0.00776297229497078,18.5613656625887
-0.00656400899972633,18.5624457193553
-0.00544482393763005,18.5635645977611
-0.00440794769917739,18.5647271539543
-0.00345544865610563,18.5659393984228
-0.00258886690047858,18.567208897898
-0.00180914055846134,18.5685453779451
-0.00111651918293666,18.5699616676537
-0.000510453752797045,18.5714752658579
5.60063384370943e-06,18.5730934840184
0.000416321163261912,18.5747528987861
0.000739104445972323,18.5764718911729
0.000989076984927305,18.5782700999721
0.00118043395571137,18.5801734164732
0.00132685365187503,18.5822178259725
0.00144212320323674,18.5844572291156
0.00154128199075379,18.5869815059798
0.00164354750292499,18.5899696247957
0.00177614935141967,18.5937064353004
0.00193385704855701,18.5975783088455
0.00211579059582453,18.6014736755199
0.00231449532162994,18.6053320917395
0.00252668563086128,18.6092115232195
0.00274989905015464,18.6131561432698
0.00298306511857275,18.6172023831707
0.0032265440397595,18.6213831498507
0.00348195475973079,18.6257303101059
0.00375196744063396,18.6302763953687
0.00404016586710247,18.63505609666
0.00435107082153568,18.6401076469097
0.0046904330103376,18.6454741548133
0.00504529978303338,18.6508928237431
0.00540855896446436,18.6562106081741
0.00578470973961417,18.6614528124086
0.00617584152005055,18.666603366109
0.00658614491231238,18.671672418224
0.0070199275917766,18.6766670083733
0.00748192865744332,18.6815946052686
0.0079771638750361,18.6864602365575
0.00851102895484803,18.6912668115483
0.00908939141121242,18.6960152420035
0.00971871555187224,18.7007048944229
0.0104062029761394,18.7053341724822
0.0111749600681052,18.709987662363
0.0120406387344142,18.714669508104
0.0130240678388383,18.71939285467
0.0141545575600699,18.724186954906
0.0154791212924619,18.7291200782338
0.017091918941121,18.7343691050887
0.0192935254566819,18.7405910538099
0.0210149319740529,18.7449644887169
0.0228293839719408,18.7493379236238
0.0243671065029939,18.753035354689
0.0256507201809208,18.7562911483521
0.0267251769285627,18.7593492201047
0.027578540130298,18.7623159524044
0.0281632535108136,18.7651492354415
0.0284792183286367,18.7679694305819
0.0284984607756957,18.7709287336238
0.0281194753575423,18.7743386437524
0.0273385036273285,18.7777612122859
0.0262192070933307,18.7811837808194
0.0251219028036795,18.783949202645
0.0240463154324422,18.7863943706795
0.0229723852375504,18.7886925808504
0.0218979983008526,18.7909127332473
0.02082588395173,18.7930904286801
0.0197596913801507,18.7952481592929
0.0187030893268536,18.7974018913103
0.0176595352617686,18.7995638811309
0.0166322149961515,18.8017441230294
0.0156240352481404,18.8039511822865
0.0146376293008536,18.8061927257116
0.0136753694633417,18.8084758782376
0.0127393793050998,18.8108074838934
0.0118315409548534,18.8131943212885
0.0109535103059001,18.8156432656025
0.0101067208806728,18.8181614627363
0.00929239882330796,18.8207564683729
0.0085115673815309,18.8234364223458
0.00774746339954389,18.8262784321873
0.00699935191952025,18.8293174692313
0.00627103955432346,18.8325773283479
0.0055664805738303,18.8360857402119
0.00488980338897957,18.8398748416148
0.00424524528306067,18.8439820764754
0.00363704373280069,18.8484514825457
0.00306926538041076,18.8533357811876
0.00254554777492001,18.8587002762131
0.00206882976980009,18.8646295724086
0.00164123753193857,18.8712372774026
0.00127584797065274,18.8784176470224
0.000984868073348657,18.8861889340455
0.000787230819982953,18.8936106754473
0.000622807559275742,18.9019286613313
0.000491828383377805,18.9110152786854
0.000391179096661795,18.9210152786854
0.00032412442115465,18.9310152786854
0.00028122586570421,18.9410152786854
0.000255599114200927,18.9510152786854
0.000242370400006177,18.9610152786854
0.000238237675487675,18.9710152786854
0.000241061155864104,18.9810152786854
0.000249529691075657,18.9910152786854
0.00026292836236171,19.0010152786854
0.000280998036601822,19.0110152786854
0.000303865658036939,19.0210152786854
0.000332029358423711,19.0310152786854
0.00036639400156473,19.0410152786854
0.000408365579338689,19.0510152786854
0.000458956122258452,19.0608228593575
0.000516752883233082,19.0699138537602
0.000582424507946129,19.0783208757142
0.000656937396891779,19.0860945969416
0.000741451382639114,19.0932828589089
0.000837303507817619,19.0999301787125
0.000946015868105455,19.1060780079675
0.00106931511786406,19.1117649725835
0.00120915809879098,19.1170270720428
0.00136776139796031,19.1218978550797
0.00154763495695637,19.1264085918247
0.00175162243183895,19.1305884403286
0.0019829483000457,19.134464601214
0.00224527397858342,19.1380624612075
0.0025427673888836,19.14140574187
0.00288018825801822,19.1445166550379
0.00326299771010351,19.147416060244
0.00369749926107323,19.1501236344728
0.00419102755755523,19.1526580686583
0.00475220908201987,19.1550373008987
0.00539133359658537,19.1572788134191
0.00611432436313524,19.1593825629758
0.00691161201230303,19.1613193828278
0.00779261065447108,19.1631210409126
0.0087714105493232,19.1648191447725
0.00986948276713775,19.1664466663148
0.0111235430981614,19.1680444990611
0.0126523146824807,19.169723727286
0.0147746809375646,19.1717244161538
0.0165381696587202,19.1731969076634
0.0184372512229175,19.1746693991729
0.0201525657266293,19.1759537087274
0.0216661553036042,19.1770952641754
0.0230261975568766,19.1781714022087
0.0242409506363162,19.1792276209572
0.0252969809660795,19.1803011900358
0.0261627142422628,19.1814366706203
0.0267762940262883,19.1827106506958
0.0269767789364794,19.184341453914
0.0265329063997365,19.186021688064
0.0255406232297964,19.1877019222141
0.0243919688490747,19.18911059369
0.0230923794610672,19.1904745596728
0.0216403688640739,19.1918740568711
0.0200442810704137,19.1933506395012
0.0183095625258045,19.1949436953816
0.016461853694684,19.1967057191686
0.0149371619811397,19.1982745831401
0.0123124010889692,19.2013080723525
0.0101846789244944,19.2041963516995
0.00852838319579785,19.2068323967452
0.00719230287613202,19.2093100655975
0.00603065779211232,19.2118200693429
0.0050141776178421,19.2143942039903
0.00414821996240832,19.2169757691008
0.0034232376575909,19.2195213941514
0.0027960069962305,19.2221183060087
0.00221524081574593,19.2249823075909
0.00167970589078478,19.2281878304353
0.00140124747951302,19.230155864816
0.00115539826427134,19.2321238991966
0.000953382399363744,19.2339461023314
0.000777615667762558,19.2357204937874
0.000615040475765826,19.237557003067
0.000455039069661548,19.2395950205347
0.000280704964011423,19.242154210012
2.65791298183332e-05,19.2468085344608
-0.000140364943966892,19.2508615575361
-0.000250069183284036,19.2543276596195
-0.0003389193029708,19.2580759110692
-0.000409993368197402,19.2627477619754
-0.00043675484339017,19.2679411810052
-0.000406596271943842,19.2725535494198
-0.000322288707761803,19.2767584472069
-0.000182785042266537,19.2805736817144
1.4879801772612e-05,19.2840449163712
0.000274818205721124,19.2872152439807
0.000602561888562095,19.2901304854982
0.00100611152191414,19.2928406924092
0.00149707620909256,19.2953973318673
0.00209367831011591,19.2978579584938
0.00282914852365838,19.300301000842
0.0037445382205331,19.302782808807
0.00490499620328509,19.3053776649604
0.00631820439628878,19.3080090820332
0.00785874678010784,19.310429485824
0.00941622331595397,19.312524450398
0.011005394681653,19.3143723486572
0.0126681153008779,19.3160497568196
0.0144808164064602,19.3176357347209
0.016455061417648,19.3191302385896
0.0186345787409761,19.320555072764
0.0210648650435781,19.321924526063
0.0237697929776734,19.323236565335
0.0267986763342447,19.3245004009309
0.0301948692463247,19.3257189200162
0.0340032422418005,19.3268938573326
0.0382836164377671,19.3280296816755
0.043100465154378,19.3291294533478
0.0485271420798483,19.33019602503
0.054656365403428,19.3312335571893
0.0615964135277017,19.3322458593399
0.0694791414786494,19.3332371031207
0.0784669745072209,19.3342118775407
0.0887662069313207,19.3351756235175
0.100644095815689,19.3361348663766
0.114456838442847,19.3370977322917
0.130701077297283,19.3380750970085
0.150113278909784,19.339082772661
0.172611237884376,19.3400930640056
0.19878247384583,19.3411163245716
0.229436965130059,19.342168161834
0.265769772703501,19.3432734762208
0.3076061625292,19.3444216651963
0.347613976039318,19.3454468945844
0.38135682144002,19.3462913886505
0.41063649684001,19.3470374871205
0.436260946994264,19.3477303432635
0.458370255499882,19.3483970647659
0.476720731057096,19.3490590909496
0.490686374386998,19.3497380820937
0.499053709024124,19.3504617940365
0.499365316959201,19.35127634228
0.489001822057163,19.3521101371963
0.466774101285107,19.3529692232822
0.431209788037776,19.353865536353
0.380641817129209,19.3548083092065
0.337928527409917,19.3554663048264
0.289987868124817,19.3561243004462
0.246983772203945,19.3566734127749
0.210065039805122,19.3571300878693
0.177588546879699,19.3575304475322
0.148461874278871,19.3578958713971
0.122032172391545,19.3582392671577
0.0978571335405452,19.3585697420638
0.0755847356830906,19.3588950662722
0.0548666228490553,19.3592237441503
0.0352141466148156,19.3595689872118
0.0153846274810285,19.3599661874142
0.00706404367243991,19.3601535032964
-0.000612836506708902,19.3603408191786
-0.00853500039074216,19.3605523999162
-0.0150418166918865,19.3607436929681
-0.0208997169469313,19.3609330318458
-0.0267951531384432,19.3611444373162
-0.032484430140348,19.3613742429531
-0.0378105044050769,19.3616201601405
-0.0426866772261398,19.3618813710974
-0.0470680564965998,19.3621580260148
-0.0509272133879792,19.3624509624577
-0.0542357164935363,19.3627598896111
-0.0570113385266125,19.3630869475289
-0.0592784228996937,19.3634357079097
-0.0610500008705678,19.3638091353928
-0.062339928337257,19.3642108598951
-0.0631614532377989,19.3646453591298
-0.0635257242154104,19.3651182056563
-0.0634401712852926,19.3656364358883
-0.0629063446845031,19.3662092286521
-0.061914406938715,19.3668501226513
-0.0604401438976197,19.3675766012036
-0.0584347044026573,19.368414886706
-0.0557980418226289,19.369409516993
-0.0522831641987954,19.3706577074145
-0.0482611299021862,19.372048993251
-0.0443763845284371,19.3733930194392
-0.0406770409754807,19.3746948645537
-0.037185928899338,19.3759571570534
-0.0339142600893516,19.3771809588336
-0.0308664011912462,19.3783665314397
-0.0280420707144243,19.379513743282
-0.025437557837851,19.380622283642
-0.0230465353842933,19.3816917727859
-0.0208606883767571,19.3827218137077
-0.0188702438694093,19.3837120092246
-0.0170644343722966,19.3846619571896
-0.015431905208322,19.3855712307832
-0.0138641764166721,19.3864983956523
-0.0123573392119661,19.3874494829075
-0.0109154912844284,19.3884263696195
-0.00954249004951045,19.389431291998
-0.00824197092360234,19.3904668835911
-0.00701729537086522,19.3915362755774
-0.00587149668778547,19.3926432296135
-0.00480722290188622,19.3937923181425
-0.00382667629177348,19.3949891752118
-0.00293154834201144,19.3962408556114
-0.00212294775510042,19.3975563671691
-0.00140131695291394,19.3989474934669
-0.000766328136804567,19.4004301335126
-0.00021674041685598,19.4020266341359
0.000226796563283828,19.403672008932
0.000577645369433215,19.4053716392867
0.000851420015359932,19.4071441562997
0.00106259591800265,19.4090133187978
0.00122500551739207,19.4110115619788
0.00135239743466459,19.4131862905145
0.00145938755023519,19.4156137181931
0.00156364548094704,19.4184362043111
0.00169382559176329,19.4220099793017
0.00184805853988728,19.4257976101653
0.00203254648810363,19.429748108515
0.00223380063367901,19.4336246262062
0.00244870736955552,19.4374952721544
0.00267466016609628,19.4414107858204
0.00291032182278655,19.4454108121012
0.00315578144737469,19.4495296669974
0.00341241968745475,19.4537995455397
0.00368270199834412,19.4582525039284
0.00397001293107654,19.4629220113559
0.00427862152082132,19.4678444127063
0.004613864372882,19.4730601992084
0.00497573350964921,19.4785115696838
0.0053420039201866,19.4838122962799
0.00572228263512377,19.4890664548627
0.0061163223212039,19.4942246204757
0.0065287305826491,19.4993027224035
0.0069635532125176,19.5043041094224
0.00742562625803915,19.5092371448043
0.00792000469351775,19.5141070850317
0.00845214744009828,19.5189174189574
0.00902795791484434,19.5236694529147
0.00965391298853031,19.5283628312242
0.010337198398923,19.5329960908022
0.0110993970618188,19.5376459424234
0.0119571514528743,19.5423249005892
0.0129305575493374,19.5470437114804
0.0140480504017038,19.5518299090637
0.0153545425896475,19.5567469214238
0.0169378488908724,19.5619568462055
0.0190620591219784,19.5680315073475
0.0208271693295921,19.572555166182
0.0226989157418461,19.5770788250166
0.024263385652834,19.5808332474015
0.0255635387648647,19.5841114428286
0.0266526358167516,19.587178083929
0.027525307811589,19.5901589891046
0.028128538891477,19.5929977926691
0.0284636973240619,19.5958144952828
0.0285055239965068,19.5987572745966
0.0281615979113895,19.6021154955712
0.0271461878206624,19.6064592275467
0.0262483027795129,19.6091419801025
0.0251902423009825,19.6118247326584
0.0241180831739126,19.6142750055262
0.023044606707341,19.6165796893706
0.0219703481988233,19.6188035426564
0.0208981214111234,19.6209830236135
0.0198315696900743,19.623141209919
0.0187743742401992,19.6252943914318
0.0177300121153582,19.6274550120715
0.0167016907042562,19.6296331762287
0.0156923380331545,19.6318375115194
0.0147046078716344,19.6340757142126
0.0137408926778805,19.6363549123713
0.0128033343726167,19.638681934357
0.0118938333559447,19.6410635220742
0.0110140631098722,19.6435064943166
0.0101654729392636,19.6460179227806
0.00934930458627628,19.6486052641861
0.0085665951107969,19.6512765354292
0.0078015112237496,19.6541047222657
0.00705214314215323,19.6571283197816
0.00632229857930075,19.6603708019518
0.00561591896335522,19.6638595806364
0.00493712287708065,19.6676264089196
0.00429014369664758,19.6717082560277
0.0036792245301029,19.6761485482155
0.003108446629269,19.6809992159791
0.00258149918434138,19.6863242023985
0.0021013701590385,19.692206220179
0.00167024182825628,19.698755955451
0.00129999299149183,19.7058957858632
0.000999241329739081,19.713618701307
0.000788175379743681,19.7212869749103
0.000625538224747037,19.7293185678235
0.000488087038061964,19.7385904729307
0.000384564516005008,19.7485904729307
0.00031496566780366,19.7585904729307
0.000269741433352475,19.7685904729307
0.000241923857763949,19.7785904729307
0.000226536947096398,19.7885904729307
0.000220168089588674,19.7985904729307
0.000220569339000383,19.8085904729307
0.000226322471347615,19.8185904729307
0.000236596979089309,19.8285904729307
0.000250996314981036,19.8385904729307
0.000269472116506965,19.8485904729307
0.000292288277620563,19.8585904729307
0.00032002588321897,19.8685904729307
0.0003536298865697,19.8785904729307
0.000394508451220125,19.8885904729307
0.000443944457909481,19.8984494820055
0.00050042524847244,19.9075905236952
0.000564628709414612,19.9160443036549
0.000637521358426233,19.923861568266
0.000720255356784849,19.9310903194255
0.000814155238346264,19.937775238554
0.000920726708334881,19.9439579367704
0.00104167642488048,19.9496771918306
0.00117893738367241,19.9549691479507
0.00133469831524644,19.9598674908504
0.00151143659883508,19.964403618429
0.00171195805868046,19.9686068059147
0.00193944282751161,19.9725043606847
0.00219750053339964,19.9761217662334
0.00249023783712553,19.9794828295784
0.00282234149153192,19.9826098348733
0.0031991846277756,19.9855236996066
0.00362696290101093,19.9882441414589
0.00411287628126127,19.9907898697214
0.00466537881671582,19.9931788113663
0.00529453259818285,19.9954283958039
0.00600911743193612,19.9975467075885
0.00648893334004257,19.9987733537942
0.0070256445664373,20
