ecg,time
0.0129986066783736,15.0036895013442
0.0141067541841233,15.0084609180069
0.0154018683639435,15.0133629617601
0.01697021798009,15.018553709781
0.0190661154849097,15.0245826307714
0.0208395571134485,15.0291496359484
0.0227232523797681,15.0337166411254
0.024290269849092,15.0374856300093
0.0255902999762182,15.0407694760619
0.0266787066475443,15.0438389608901
0.0275504259683425,15.0468213303858
0.0281525759623566,15.0496605064844
0.0284866547871215,15.0524766367208
0.0285275501413992,15.0554176201285
0.0281833438120508,15.0587710878806
0.0271666488436707,15.0631152730439
0.0262674744000997,15.0657984921457
0.0252077981885397,15.0684817112475
0.0241343863888265,15.0709314016162
0.0230600608429161,15.0732346148767
0.021985289281151,15.0754563054013
0.0209128657730858,15.0776329560748
0.0198464355868329,15.0797875920302
0.0187896955957835,15.0819363963352
0.0177461419611962,15.0840916709608
0.0167190071648528,15.086263332699
0.0157112450968689,15.0884597789506
0.0147255367033514,15.0906884222939
0.0137643038456746,15.0929560388941
0.012829712368699,15.0952690397942
0.0119236892203201,15.0976336463774
0.0110479287107417,15.1000560508505
0.0102038966513978,15.1025425610497
0.00939284321584647,15.1050997090984
0.00861448972628542,15.1077390205209
0.00784791519986507,15.1105521731358
0.00709694316293544,15.1135584218514
0.00636529177190667,15.1167811504444
0.00565689548088814,15.120247299567
0.00497586435777686,15.1239880497962
0.00432642243810831,15.1280396701066
0.0037128009006959,15.1324447429888
0.00313906857679983,15.1372541639972
0.00260890384673822,15.1425305681109
0.00212529485975341,15.1483548168821
0.00169042848201509,15.154834892995
0.00131448337164426,15.1619307602438
0.00100050822262475,15.1696028942717
0.000741842662700111,15.1779743399269
0.000532234786078992,15.1872089352783
0.000370206236498047,15.1972089352783
0.000258464190594195,15.2072089352783
0.000184592209161175,15.2172089352783
0.00013432125420447,15.2272089352783
9.94829055705314e-05,15.2372089352783
7.53581039662991e-05,15.2472089352783
5.88808497389356e-05,15.2572089352783
4.78506402860571e-05,15.2672089352783
4.06480517673844e-05,15.2772089352783
3.61077060849352e-05,15.2872089352783
3.34167471725279e-05,15.2972089352783
3.2019463571041e-05,15.3072089352783
3.15378771570198e-05,15.3172089352783
3.17138366920522e-05,15.3272089352783
3.23701782061398e-05,15.3372089352783
3.33853857455038e-05,15.3472089352783
3.46767967628266e-05,15.3572089352783
3.61891096307831e-05,15.3672089352783
3.78863413403331e-05,15.3772089352783
3.97461749281941e-05,15.3872089352783
4.17560190614372e-05,15.3972089352783
4.3910296261396e-05,15.4072089352783
4.62086018291891e-05,15.4172089352783
4.86544735091094e-05,15.4272089352783
5.12545894415615e-05,15.4372089352783
5.40182697480569e-05,15.4472089352783
5.69571978265047e-05,15.4572089352783
6.00853054190978e-05,15.4672089352783
6.34187848776106e-05,15.4772089352783
6.69762058604508e-05,15.4872089352783
7.07787239673322e-05,15.4972089352783
7.48503768519192e-05,15.5072089352783
7.92184700516885e-05,15.5172089352783
8.39140608349756e-05,15.5272089352783
8.89725543876319e-05,15.5372089352783
9.4434433215598e-05,15.5472089352783
0.000100346148324168,15.5572089352783
0.000106761210246259,15.5672089352783
0.000113741530209901,15.5772089352783
0.000121359077836178,15.5872089352783
0.000129697943380042,15.5972089352783
0.000138856922005957,15.6072089352783
0.000148952778335005,15.6172089352783
0.000160124406559664,15.6272089352783
0.000172538182403174,15.6372089352783
0.000186394919748023,15.6472089352783
0.000201939015007744,15.6572089352783
0.000219470615024355,15.6672089352783
0.000239362025933209,15.6772089352783
0.000262080167816096,15.6872089352783
0.000288217802758488,15.6972089352783
0.000318537746810336,15.7072089352783
0.000354036719370048,15.7172089352783
0.000396039620917174,15.7272089352783
0.000446342255504082,15.7372089352783
0.000507433574281645,15.7472089352783
0.000576850358629104,15.7564793474307
0.000655259750739535,15.7650255244149
0.000743771624193825,15.7729032242959
0.000843688499688915,15.78016600936
0.000956496592137396,15.7868634807529
0.00108388109665277,15.7930415566039
0.00122775113901356,15.7987427979235
0.001390270509667,15.804006659577
0.00157389403812274,15.8088696700953
0.00178140489791239,15.8133656594037
0.00201596764892475,15.8175260127578
0.00228118543982101,15.8213798995004
0.00258116914765404,15.8249544248189
0.00292062545079983,15.828274824421
0.0033049679490532,15.8313647078445
0.00374046641537128,15.8342462653229
0.00423443735045107,15.8369404876178
0.00479551686727224,15.8394674762918
0.00543405633101661,15.8418468082117
0.00615642203160469,15.8440802829041
0.00695365580850343,15.8461383301173
0.0078361434882682,15.8480562058452
0.00881972961491393,15.8498696512256
0.0099295238827669,15.8516176583163
0.0112112554199988,15.8533527336135
0.012809026564278,15.8552161390414
0.0147284816383998,15.8571598802236
0.0168038028847575,15.8590380813472
0.0185719015876788,15.8605434097978
0.0200675860610292,15.8618039788279
0.0213988230245296,15.8629618860909
0.0225904576317894,15.8640787680068
0.0236370589906082,15.8651949048057
0.0245162096753104,15.8663508332777
0.0251843501786313,15.8676049901809
0.0255482860935671,15.869083006243
0.0254082474993522,15.8707414782281
0.0248684032084572,15.8721641494427
0.0240788917569065,15.8734869043651
0.0230783814206912,15.8748053805455
0.0218590102925632,15.8761948303904
0.0204938967058294,15.8776226070648
0.0190023840912837,15.8791186522217
0.0173934071736228,15.8807193822925
0.0157034317062144,15.8824722358829
0.0139990727696074,15.8844053700222
0.0122704684449151,15.8865919140666
0.0105517950168925,15.8890722409662
0.00901549392557701,15.8916522081512
0.00775225430795904,15.8941413955457
0.00666535310002319,15.8966683741713
0.00573018429138143,15.8992622673803
0.00493083743288439,15.9019464616418
0.00425639094931551,15.9047443084673
0.00370028782720746,15.9076807858679
0.00326063444039968,15.9107839148014
0.00294159544877891,15.9140863230233
0.00275667815818658,15.9176272143996
0.00273003970040493,15.9211035278641
0.00284359492575987,15.9242129178419
0.0030710873618111,15.9270108953832
0.00339774089500738,15.9295419967781
0.00381681282506042,15.9318509161001
0.0043287311181317,15.9339836115725
0.00494079348857958,15.9359849074596
0.00566954778935369,15.9379028769413
0.00654656326762417,15.9397947885918
0.00763125627621888,15.9417378466147
0.00904398825982994,15.9438554299685
0.011045686660469,15.9463633270496
0.0128985717838864,15.9483476449093
0.0150225074386393,15.950331962769
0.017111220716752,15.9520360253784
0.0192254919427552,15.9535483423938
0.0214617791996873,15.954949144459
0.0238900878832239,15.9562758289613
0.0265619295549454,15.9575434020152
0.0295213730857676,15.9587581744361
0.0328254517191411,15.9599283863754
0.0365191453237266,15.9610549862872
0.0406629209329065,15.962142219888
0.0453174075458281,15.9631921686532
0.0505532632116442,15.9642074878761
0.0564529302379453,15.965191117693
0.0631099887571946,15.9661457275356
0.0706370630513108,15.9670744986416
0.0791662697732123,15.9679805435441
0.0888563425976175,15.9688672008541
0.0998996596218359,15.9697380478173
0.11253101267202,15.9705969050011
0.127041143192561,15.9714479858847
0.143794521520772,15.9722960120893
0.16325606226801,15.9731464544539
0.186036117942103,15.9740060674236
0.212981259475767,15.9748842259119
0.244376736763515,15.9757697441294
0.280722851444504,15.97666187361
0.323048297388003,15.977573941521
0.373089632498908,15.9785343810584
0.410980697614361,15.9792088579907
0.450107847556703,15.9798833349229
0.484939087085514,15.9804870710712
0.515625511342585,15.9810447812525
0.542676086152952,15.9815853893532
0.566010742249945,15.9821320263503
0.585025443788202,15.9827110846272
0.598248040334662,15.983367669237
0.601768632123819,15.9840926605465
0.593180542457836,15.9848470859609
0.571102112547156,15.9856541834784
0.53766429768357,15.9864472893051
0.491307180722614,15.987278130545
0.429104811153595,15.9881772436572
0.375310017076885,15.9888472761448
0.316128686357061,15.9895173086323
0.265294802019814,15.9900610029906
0.223161971897283,15.9905029059757
0.186875228993313,15.9908859406992
0.154743828501696,15.9912339749933
0.12582878503313,15.9915607021425
0.0995234534995477,15.991875593401
0.0753556393018048,15.9921868697059
0.0528493980264656,15.9925041374672
0.0312651168460278,15.992844488765
0.0080164444568354,15.9932713244783
-0.00166908137701881,15.9934763349296
-0.0104382864077428,15.9936813453809
-0.017143925443863,15.9938539759313
-0.0233337938504303,15.994028759032
-0.0295902958239998,15.9942244620304
-0.0356499277304696,15.9944376075053
-0.0413431951297335,15.9946660657159
-0.0465748915200138,15.9949090536364
-0.0512947839450822,15.9951666915265
-0.0554799791126871,15.9954397517842
-0.0591244612965056,15.9957295378221
-0.0622326657045644,15.9960378438459
-0.0648153357995961,15.9963669709437
-0.0668843004009858,15.9967197902611
-0.0685276119773783,15.9971259878346
-0.0695490279171368,15.9975359617504
-0.0700974425887343,15.9979825878494
-0.0701830946795574,15.9984732236912
-0.0698088858460322,15.9990169872929
-0.0689662967024554,15.999627257967
-0.067629986548893,16.0003221496265
-0.0657467054358153,16.0011289984307
-0.0632032359878803,16.0020956064104
-0.0597022729634457,16.0033331222533
-0.0555379135326368,16.0047537985162
-0.0514750860056508,16.0061300677059
-0.0475718908489942,16.0074673448226
-0.0438587505973878,16.0087677082951
-0.0403525639791333,16.0100317913895
-0.0370625504151302,16.011259505259
-0.0339927356254519,16.0124504231376
-0.0311432117836277,16.0136039837853
-0.0285109287907064,16.0147195974593
-0.0260902992934279,16.0157966972791
-0.0238737225609407,16.0168347581799
-0.0218520632264323,16.0178332953046
-0.020015092332571,16.0187918483968
-0.0183518887056707,16.0197099558603
-0.0167779176254737,16.0206313052887
-0.0152623089341634,16.0215763423898
-0.0138094031557235,16.0225467457145
-0.0124230879995491,16.0235446668357
-0.0111070425813611,16.0245726350491
-0.00986468263071457,16.0256336524908
-0.00869910500340277,16.0267313182118
-0.00761302900172614,16.0278699958015
-0.00660873391176127,16.0290550452277
-0.00568799143540358,16.0302931525156
-0.0048519904258765,16.0315928142958
-0.00410124902196833,16.0329650790194
-0.00343550471374378,16.0344247382991
-0.00285356302964265,16.0359923661936
-0.00237138349011646,16.0376274030278
-0.00198458891901868,16.0393122929625
-0.00167703272850447,16.0410653954511
-0.00143398166183562,16.0429089460806
-0.00124138237278898,16.0448729212921
-0.00108532975750135,16.047000358155
-0.000951186932247441,16.0493586889753
-0.000821683559890266,16.0520685876823
-0.000670787448146345,16.0554053934961
-0.000491859892441843,16.0591557890014
-0.000277943842096502,16.0632318775997
-4.20712224599501e-06,16.0680360752155
0.000298694548103399,16.0731314750231
0.000624572372895829,16.0786004943541
0.000964353550270319,16.0844422529564
0.00131409513927186,16.0906761085521
0.00161323654944268,16.0961748549167
0.00186234246107424,16.100857120529
0.0020880558709162,16.105160833786
0.00230709801910871,16.1093711040918
0.00253460236247643,16.1137567570581
0.00279439948216089,16.1187537895437
0.00304750730594921,16.1235703172891
0.003308441812275,16.1284582728663
0.00354134728278265,16.1327258954452
0.00375850351935553,16.1366135178867
0.00397231621699884,16.1403452202962
0.00418911557734588,16.1440233523211
0.0044132650046017,16.1477081751068
0.00464849931855982,16.1514425705335
0.00489844146917038,16.1552607299485
0.00516691667642845,16.1591925904238
0.00545819959761691,16.1632665344713
0.00577723667747309,16.1675108063823
0.00612991788459249,16.1719546445246
0.00652347531897646,16.1766292809731
0.00696715221540721,16.1815691832134
0.00744545835385557,16.1865325180792
0.00795366638290864,16.1914272383066
0.0084968603610668,16.1962611201424
0.0090790567287643,16.2010223408246
0.00970654133600286,16.2057114387171
0.0103869118866048,16.2103309322137
0.0111436018292125,16.2149693230586
0.0119923223743055,16.2196325838704
0.0129537610361304,16.2243349489764
0.0140562309250236,16.2291037792029
0.0153436195449118,16.2339998451525
0.0168996603741561,16.2391753254131
0.0189654516159087,16.2451488088022
0.0207595869423269,16.2497867815558
0.0226702853596651,16.2544247543094
0.0242483415366419,16.2582176929367
0.0255547098049367,16.2615103329936
0.0266487126998127,16.2645831882466
0.0275278350894402,16.2675711082331
0.0281370465820283,16.2704125732493
0.028478396231677,16.273227650138
0.0285277569163366,16.2761628750779
0.028196332309121,16.2794984137752
0.0271911083072392,16.2838500438734
0.0262946548009216,16.2865429370885
0.0252353203211937,16.2892358303035
0.0241619573713191,16.2916911880093
0.0230877748459812,16.2939974353171
0.0220130968471004,16.296220825052
0.020940667001444,16.2983983915097
0.0198741222661532,16.3005534182823
0.0188171630812999,16.3027022288417
0.0177732923956361,16.3048572092254
0.0167457503824724,16.3070283292171
0.0157374980493459,16.3092240219873
0.0147512236404822,16.3114517232037
0.0137893555695979,16.3137182251713
0.0128540662845974,16.3160299486604
0.011947289104959,16.3183931204801
0.0110707236592576,16.3208139372697
0.0102258419332213,16.3232987059435
0.00941389943130364,16.3258539574042
0.0086353281167186,16.3284887249816
0.00786843154095546,16.3312968365668
0.00711703663117543,16.3342974379958
0.00638485498386573,16.3375138213497
0.00567581563288787,16.3409728164321
0.00499402425883513,16.3447054722303
0.00434370289199107,16.3487478958583
0.00372908460748107,16.3531424612776
0.00315424592155397,16.3579397763031
0.00262288016713443,16.363202050171
0.00213799759493515,16.3690094801181
0.0017018068893861,16.3754690772465
0.00132404955579765,16.3825504506302
0.00100845066086998,16.390205186486
0.000748344131357085,16.39855528156
0.000537463783951437,16.4077633195269
0.000373902508403888,16.4177633195269
0.000261101754191479,16.4277633195269
0.000186548315206413,16.4377633195269
0.000135754761421498,16.4477633195269
0.000100512525684174,16.4577633195269
7.60736749323982e-05,16.4677633195269
5.93498424529512e-05,16.4777633195269
4.81227429480746e-05,16.4877633195269
4.07591374906189e-05,16.4977633195269
3.6083313990617e-05,16.5077633195269
3.32749074755464e-05,16.5177633195269
3.17728143057803e-05,16.5277633195269
3.11951677122153e-05,16.5377633195269
3.12809704233885e-05,16.5477633195269
3.18509329604156e-05,16.5577633195269
3.27819136471002e-05,16.5677633195269
3.39899706199163e-05,16.5777633195269
3.5418760228158e-05,16.5877633195269
3.70314156889965e-05,16.5977633195269
3.88048365853552e-05,16.6077633195269
4.07257054633578e-05,16.6177633195269
4.27877434630219e-05,16.6277633195269
4.49898436320256e-05,16.6377633195269
4.73348194186931e-05,16.6477633195269
4.98285840112306e-05,16.6577633195269
5.2479634439932e-05,16.6677633195269
5.5298755389289e-05,16.6777633195269
5.82988858181198e-05,16.6877633195269
6.14951109183018e-05,16.6977633195269
6.49047557438446e-05,16.7077633195269
6.85475670349023e-05,16.7177633195269
7.24459776461728e-05,16.7277633195269
7.66254544590874e-05,16.7377633195269
8.11149363934563e-05,16.7477633195269
8.59473747109556e-05,16.7577633195269
9.11603937513702e-05,16.7677633195269
9.67970971062257e-05,16.7777633195269
0.000102907052629266,16.7877633195269
0.000109547500371679,16.797763319527
0.000116784841518508,16.807763319527
0.000124696485077453,16.817763319527
0.000133373154396448,16.827763319527
0.000142921790404164,16.837763319527
0.000153469236962844,16.847763319527
0.00016516696215726,16.857763319527
0.000178197167237145,16.867763319527
0.000192780776998193,16.877763319527
0.000209188014775748,16.887763319527
0.000227752579036648,16.897763319527
0.000248890917474877,16.907763319527
0.000273128840024346,16.917763319527
0.000301138898119203,16.927763319527
0.00033379388955039,16.937763319527
0.000372245079819013,16.947763319527
0.000418039296591404,16.957763319527
0.000473298958124188,16.967763319527
0.000538030942362133,16.9773598683827
0.000611272847147285,16.9862202899111
0.000693975004621563,16.9943886966546
0.000787342431403135,17.001919765531
0.000892762700359517,17.0088646147864
0.00101181242442727,17.015270571917
0.00114627855375019,17.0211814921958
0.00129818556694005,17.0266380456485
0.00146982975451561,17.0316779092378
0.00166381358665213,17.0363359757305
0.00188309271921232,17.0406445895694
0.00213102667800058,17.0446337940285
0.00241144572071218,17.0483315055842
0.00272872240644587,17.0517636838097
0.00308787189355816,17.0549545493919
0.00349467955569213,17.057926810793
0.0039558608046358,17.0607018584111
0.00447928773872051,17.0633000230942
0.00507430837219931,17.0657409066785
0.00575220783881459,17.0680437713801
0.00650738232774953,17.0701777002978
0.00734136948202044,17.0721528498667
0.00826657630546172,17.0740041262606
0.00930187163085856,17.0757672869629
0.0104785940171678,17.0774842644483
0.0118585388177136,17.0792187146711
0.0136933000325945,17.081203525554
0.0158046743978788,17.0831947415719
0.0173656581241298,17.0845458145831
0.0189873947300022,17.0858968875943
0.0204558192197406,17.0871184937891
0.0217730751289973,17.0882575235112
0.0229506993662272,17.0893640394512
0.0239797253682738,17.0904768882909
0.0248345090743388,17.0916381208181
0.0254656508786046,17.0929125285817
0.025760886006363,17.094453475623
0.0255204226653145,17.0960944416249
0.0247773021544098,17.0977354076268
0.0237981148889101,17.0991732240309
0.0226979228878245,17.1004978828247
0.0214833049091663,17.1018076397408
0.0201276207059594,17.103182037215
0.0185859179237525,17.1047028938862
0.0175660703300245,17.105707729122
0.0165683379798551,17.1067125643578
0.0154836647720907,17.1078601580778
0.0136627176396992,17.1099493874671
0.0119721336868129,17.112123368644
0.0104065663188229,17.1144089358255
0.00889562297062608,17.1169588150072
0.00763748750490675,17.1194468580654
0.00655317575517204,17.1219751381453
0.00561879643205349,17.1245715242509
0.00481827225473281,17.1272593041987
0.004140228383904,17.1300618521157
0.00357738478289683,17.1330042389753
0.0031267446248604,17.1361146473798
0.00279070313831952,17.1394259468765
0.0025797341576706,17.1429776877512
0.00251743410703513,17.1466523067812
0.00260038277672467,17.1499271515473
0.00279896400234817,17.1528684572011
0.00309645939427997,17.1555207264026
0.0034844809932024,17.1579292943857
0.00396120584146394,17.1601389341082
0.00453114190279256,17.1621942560784
0.0052062899024539,17.1641410569607
0.00601053605187757,17.1660320311657
0.00698788109516254,17.1679328906159
0.00822236511661532,17.1699384482583
0.00989151604989794,17.1722115807473
0.0120956407721308,17.1747315413538
0.013913541323284,17.1765254466785
0.0159768697728445,17.1783193520031
0.0180675497536448,17.1799142144941
0.0202450730310393,17.1813708380922
0.0225724028337295,17.1827318168137
0.0251171375856335,17.1840272754173
0.0279292142548041,17.1852682879728
0.0310531212641873,17.1864595330553
0.034545482998021,17.1876075796648
0.0384558670082607,17.1887139897465
0.0428449170615891,17.1897819670893
0.0477790414727131,17.1908141190609
0.0533329930109714,17.1918129344933
0.059595741658674,17.1927814577267
0.0666688253498921,17.1937224563302
0.0746743611856289,17.1946391337236
0.083756922407471,17.195534712929
0.0940901273849628,17.1964125789395
0.105886067139952,17.1972764426956
0.119404929373031,17.1981302903016
0.134970222544094,17.1989785242962
0.152990930827762,17.1998261746106
0.173994566496483,17.2006792071598
0.198688387951779,17.2015453402068
0.227871185427189,17.2024298456664
0.261602198016452,17.2033164649154
0.300737228396536,17.2042150340087
0.346558603100296,17.2051441950012
0.387453077113007,17.2058991379882
0.430714075005891,17.2066540809752
0.468354248350189,17.2073000320254
0.50105787973624,17.2078760974363
0.529933344940792,17.2084215409015
0.555197025216375,17.2089616563917
0.576517146336394,17.2095199821353
0.592944135859253,17.2101292297966
0.602005476063298,17.2108479251207
0.599344418502148,17.2115848552145
0.583949316338701,17.2123635373219
0.555800772769467,17.2131643765494
0.516209716368115,17.2139681957144
0.461949602253396,17.2148338221298
0.392963678472824,17.2157436239455
0.34367046557233,17.2163198093771
0.290978985358367,17.2168959948087
0.244964133222564,17.2173814428078
0.205832768625372,17.2177917125028
0.171602893830208,17.2181563512541
0.1410349487238,17.2184931304249
0.113378990273201,17.2188132866308
0.0881077200584445,17.2191254195387
0.0647652516783155,17.2194379938326
0.0428063412153136,17.2197627923101
0.021087709995586,17.2201272387549
0.00353872427760764,17.2204687575338
-0.00460026536490106,17.2206475375821
-0.0120517887841212,17.2208263176304
-0.0185075163741668,17.2209957663564
-0.0247408863618617,17.2211754474324
-0.0309747138408447,17.2213751810454
-0.0369660780056237,17.2215917394504
-0.0425650236368172,17.2218233391745
-0.0476882052336302,17.222069425981
-0.0522925505784583,17.2223302787494
-0.0563595656539181,17.2226067928889
-0.0598859629593637,17.2229003801632
-0.0628778487772537,17.2232129422896
-0.0653469316722333,17.223546897998
-0.0673029410907638,17.2239052555388
-0.0687893098157835,17.2243048244707
-0.0697205407336737,17.2247209755413
-0.0701811836650141,17.2251751057474
-0.0701799412350463,17.2256747559812
-0.0697182113342018,17.226229530249
-0.0687845030912322,17.2268538563953
-0.0673494896711801,17.2275669855671
-0.0653521382343734,17.2283988636085
-0.0626599891878046,17.2294038353086
-0.0588965384435411,17.2307202202726
-0.0547413668656084,17.2321311179948
-0.050701542713245,17.2334995852288
-0.0468291873323274,17.2348296552023
-0.0431513169487288,17.2361230328569
-0.0396830167607021,17.2373801640416
-0.0364323420870614,17.2386008688818
-0.0334024610284905,17.2397846807162
-0.0305927851744062,17.2409310253759
-0.0279997105021124,17.2420393138636
-0.0256172015008591,17.2431089860168
-0.0234373052444501,17.2441395247058
-0.0214506227307248,17.2451304510829
-0.0196467428157541,17.2460813067415
-0.0180146356860427,17.2469916260275
-0.0164503940849669,17.2479173575585
-0.0149455439222671,17.2488669971124
-0.0135042137191178,17.2498423814416
-0.0121302578315548,17.2508457262121
-0.0108273110226419,17.2518796413967
-0.0095987346550226,17.2529472304202
-0.00844756071491004,17.2540522212199
-0.00737643261000138,17.2551991440315
-0.00638754204164567,17.2563935784813
-0.00548256046476061,17.2576425069784
-0.00466256225634484,17.2589548377108
-0.00392793411583909,17.2603422114664
-0.00327826006192515,17.2618203122576
-0.00271216001769495,17.2634111419375
-0.00224998960069725,17.2650541038877
-0.00188000227179623,17.2667505090684
-0.00158648617703533,17.2685189027408
-0.0013548751648723,17.2703827322591
-0.00117120476879945,17.2723739319015
-0.00102153737743077,17.2745390146926
-0.000890974962121315,17.2769523836841
-0.000761388679759029,17.2797518268295
-0.000603300342125659,17.2832755752064
-0.000421858767180257,17.2870535239871
-0.000200274168935921,17.2912413217616
8.14143758445119e-05,17.2961737672345
0.000389970889678285,17.3013944486565
0.000720620369437901,17.3070138840453
0.00106410703579553,17.3130186677833
0.00140657860851693,17.319226655251
0.00169772268041384,17.3246604350468
0.00194189833812146,17.3293105064372
0.00216445210799864,17.3336015288963
0.00238151207421321,17.3378131205577
0.00260825092072418,17.3422180045473
0.0028655182661235,17.3471957506567
0.00311733848167669,17.3520080450695
0.00337816003755786,17.3569061546383
0.00360926716053777,17.361144442207
0.00382579251685083,17.3650194732808
0.00403962704376707,17.3687459392838
0.00425692295315064,17.3724227392461
0.00448199605753732,17.3761088083006
0.00471858562176937,17.3798464098879
0.00497034932311997,17.3836694077861
0.00524117388922116,17.3876075966432
0.00553542245001973,17.3916893064038
0.0058581618105658,17.3959427937604
0.00621544507649443,17.4003973562863
0.0066147301429388,17.4050843351819
0.00706558177721025,17.4100383516493
0.00754898011612837,17.414982339699
0.00806408475641666,17.4198668132978
0.00861489853538655,17.4246870535486
0.00920598156663125,17.429435195807
0.00984369147697017,17.4341109759061
0.0105368084287987,17.4387233009726
0.0113108848246208,17.4433678991337
0.0121802268572109,17.4480370440829
0.0131671497706724,17.4527494302035
0.0143021507043343,17.4575366560271
0.0156341881864042,17.4624709776243
0.0172622643209133,17.4677400081396
0.0195155434171537,17.4740680235861
0.0212052671361872,17.4783431384047
0.0229786414913414,17.4826182532233
0.0244931974273367,17.4862744593362
0.0257603171893136,17.4895134920253
0.0268189867289883,17.4925659559083
0.0276513549893262,17.4955196786599
0.028215729403552,17.4983478151366
0.028510564307318,17.5011714262691
0.0285050443506704,17.5041470759416
0.0280875680454366,17.507610574474
0.0272988335304199,17.5109501919158
0.0261916080368301,17.5142898093577
0.0250965866136334,17.5170318389258
0.0240203812169496,17.5194682126843
0.0229457755853301,17.5217608586974
0.0218710994021477,17.5239764584588
0.0207991486387484,17.5261498990765
0.0197335883247249,17.5283032841339
0.018678099664067,17.530452286122
0.0176361531560781,17.5326088984521
0.016610950499742,17.5347828474018
0.015605417525801,17.5369824027163
0.0146222058255466,17.5392148985796
0.0136637099468738,17.5414870617246
0.0127320700713542,17.5438052752328
0.011829186700577,17.5461757549217
0.010956730930647,17.5486046965905
0.0101161440468016,17.5510984311042
0.00930865426569737,17.5536635215868
0.00853142556293933,17.5563205848774
0.00776637586874946,17.5591534241854
0.00701731625552356,17.5621817107487
0.00628798961984354,17.5654291786926
0.00558235022013468,17.5689231920787
0.00490452429878895,17.5726954280605
0.00425874276981477,17.5767827609267
0.00364922889861088,17.5812285430686
0.00308002301883495,17.586084707708
0.00255473699452452,17.5914155248369
0.00207628082475729,17.5973042191198
0.00164675678865688,17.6038622857112
0.00127780991339809,17.6110153813895
0.000970107220921964,17.6187562324413
0.00071701518411113,17.6272119747803
0.000512338526187005,17.6365514212109
0.000356210296679995,17.6465514212109
0.000249163087622954,17.6565514212109
0.000178358823188305,17.6665514212109
0.000130080157076111,17.6765514212109
9.65841271244057e-05,17.6865514212109
7.33891204474183e-05,17.6965514212109
5.75608600339479e-05,17.7065514212109
4.69806028658526e-05,17.7165514212109
4.00864313668419e-05,17.7265514212109
3.57553824027435e-05,17.7365514212109
3.3205387161084e-05,17.7465514212109
3.19023363343801e-05,17.7565514212109
3.14830400849701e-05,17.7665514212109
3.16993939341292e-05,17.7765514212109
3.23810946883137e-05,17.7865514212109
3.34113537760458e-05,17.7965514212109
3.47107848876779e-05,17.8065514212109
3.62263578686768e-05,17.8165514212109
3.79236589945601e-05,17.8265514212109
3.97814498291794e-05,17.8365514212109
4.1787876208478e-05,17.8465514212109
4.39378616237199e-05,17.8565514212109
4.62313395188405e-05,17.8665514212109
4.86720738121283e-05,17.8765514212109
5.12668920297537e-05,17.8865514212109
5.40252112602446e-05,17.8965514212109
5.69587763781629e-05,17.9065514212109
6.00815569094753e-05,17.9165514212109
6.34097675549329e-05,17.9265514212109
6.69619907153485e-05,17.9365514212109
7.07593893079372e-05,17.9465514212109
7.48260059739934e-05,17.9565514212109
7.91891513244682e-05,17.9665514212109
8.38798898290632e-05,17.9765514212109
8.89336379134558e-05,17.9865514212109
9.43908953496073e-05,17.9965514212109
0.000100298138700218,18.0065514212109
0.000106708915105163,18.0165514212109
0.000113685186956046,18.0265514212109
0.000121298994176827,18.0365514212109
0.000129634522560753,18.0465514212109
0.000138790696261039,18.0565514212109
0.000148884453528288,18.0665514212109
0.000160054922222873,18.0765514212109
0.000172468793179004,18.0865514212109
0.000186327306913108,18.0965514212109
0.000201875440766233,18.1065514212109
0.000219414138403618,18.1165514212109
0.000239316808667703,18.1265514212109
0.00026205191375352,18.1365514212109
0.000288214398839318,18.1465514212109
0.000318570214264607,18.1565514212109
0.000354120652699887,18.166551421211
0.000396197412594535,18.176551421211
0.000446606621204987,18.186551421211
0.000507853298402497,18.196551421211
0.000577300073855137,18.2057999420819
0.00065573601764136,18.2143253616763
0.0007442793196686,18.222184155923
0.000844235236257008,18.2294297437812
0.00095709224894671,18.2361115671388
0.00108453794791506,18.2422754010626
0.00122848410564012,18.247963676781
0.00139109754637478,18.2532157284063
0.00157483635483513,18.2580679745461
0.00178248752756549,18.2625541461156
0.00201721973485183,18.2667055390029
0.00228264086063259,18.2705512389393
0.00258286672115814,18.2741182739178
0.00292260970245068,18.2774318098414
0.00330728989581071,18.2805153922115
0.00374318404503508,18.2833911505508
0.0042376168442346,18.2860800196321
0.00479923392788966,18.2886020487892
0.00543839748766225,18.2909767637918
0.00616124109173146,18.2932052738808
0.00695897580646635,18.295258799625
0.00784198511313076,18.2971724955718
0.00882609546584085,18.2989819741237
0.0099363720367798,18.3007260659402
0.0112184166481682,18.3024570019912
0.012816427979464,18.3043158373708
0.0147627907519988,18.306279971333
0.0164110373761363,18.3077786484897
0.0181614066258585,18.3092773256465
0.0197077818569701,18.3105740347169
0.0210814874239024,18.3117497795565
0.022313371107111,18.3128717854524
0.0234033689152252,18.3139827516591
0.0243335225025269,18.3151216341799
0.0250672413533819,18.3163394737175
0.0255309105764732,18.3177333414584
0.0254944371475469,18.319646366758
0.0249468335275764,18.3211788666943
0.0241482765689209,18.3225315642074
0.0231579543071949,18.323841313084
0.0219779663553432,18.3251898454289
0.0206221592082095,18.326610136769
0.0191358533423234,18.3280998308988
0.0175308676460748,18.3296922344362
0.0158401926400224,18.331433557881
0.0144415436344154,18.3329913200064
0.0127624332357055,18.3350460058947
0.0110950890891957,18.3373483146761
0.00945720589776866,18.339961413626
0.00812082923030885,18.3424598210563
0.0069793506108598,18.3449707773595
0.00599602332583124,18.3475403390634
0.00515268880893489,18.3501928076851
0.00443678226849472,18.3529513342141
0.00384013535357401,18.3558402167733
0.00335895342455784,18.3588863388055
0.00299472932537688,18.3621206577847
0.00275662543004576,18.3655800139418
0.00266684834153972,18.3692415738155
0.00273100533534571,18.3725028529806
0.00291647018086905,18.3754326616215
0.0032049672690536,18.3780768045849
0.00358680461500976,18.3804783447931
0.00405970533718059,18.382683488627
0.00462790601684705,18.384736794822
0.00530349255316327,18.3866843509384
0.00611030715965803,18.3885782330038
0.00709229223867374,18.3904836022263
0.00833720961010631,18.3925004878044
0.010033825561904,18.3948026732558
0.0122570176882111,18.3973336479676
0.0140637023601428,18.3991093558785
0.0161130828903628,18.4008850637894
0.0181972933881404,18.402469963547
0.0203690883552322,18.4039181512071
0.022698755840682,18.4052759395383
0.0252523589862836,18.4065710298215
0.0280709548803864,18.4078098058002
0.031208034935263,18.4090008599859
0.0347118860219546,18.4101474092857
0.0386392573425795,18.4112533968319
0.0430449274298901,18.4123202656666
0.0479989135623058,18.4133515634276
0.0535752380915192,18.4143495454118
0.0598637101983794,18.4153173452101
0.066967158378749,18.416257826584
0.0750073709405598,18.4171740495184
0.084130406894223,18.4180693164095
0.0945113593475663,18.4189470399209
0.106363822537625,18.4198109288669
0.119950421307031,18.4206650044193
0.135597956716437,18.4215137098317
0.153719801962251,18.4223621192159
0.174850242755452,18.4232162826987
0.199707582420957,18.424084066372
0.229044452008026,18.4249691949229
0.262958327624,18.4258568352179
0.302316850037584,18.4267570703909
0.348430469591002,18.4276891672751
0.388949523838091,18.428435933092
0.431727666212953,18.429182698909
0.469139035725898,18.4298259323946
0.501694791749819,18.4304012142143
0.53044082747657,18.4309467263125
0.555571958948957,18.4314875456081
0.576740812336529,18.4320473051089
0.592973012059861,18.4326592122004
0.601703520927109,18.4333785657791
0.598698745445036,18.434116741058
0.582926920974492,18.4348972153227
0.554451157903025,18.4356982562088
0.514449714759093,18.4365042601169
0.459678375846238,18.4373727360533
0.39043728098811,18.4382816192736
0.341460750937698,18.438852400547
0.289193030079713,18.4394231818203
0.243504689601402,18.4399051345995
0.20458685320263,18.4403134634236
0.170509070336903,18.4406769729352
0.140059142986165,18.4410130833711
0.112499154767127,18.4413328868587
0.0873069232517832,18.4416449377501
0.0640271074784643,18.4419577390143
0.0421073876307631,18.4422832888967
0.0203604471508903,18.4426501369144
0.0107038475635039,18.4428327919845
0.00180863563104741,18.4430154470546
-0.00610026844140546,18.4431923143415
-0.0133423677500607,18.4433691816284
-0.0196323681409852,18.4435372064125
-0.0258872099499587,18.4437209483125
-0.032090835346018,18.4439240794142
-0.0380173894862841,18.4441435879052
-0.0435319816173575,18.4443779585841
-0.0485604046192657,18.4446268162363
-0.0530651305622565,18.444890566854
-0.0570310845013437,18.4451702072388
-0.0604571006735684,18.4454672409628
-0.0633505779554747,18.4457836629211
-0.0657239561449983,18.4461219952549
-0.067584486366871,18.446485368556
-0.0689391884679478,18.4468777581687
-0.0697965123828921,18.4472993775443
-0.070185456344307,18.4477601578872
-0.0701134093617013,18.4482677908163
-0.0695802165916546,18.4488325026395
-0.0685720490103627,18.4494693224889
-0.0670559523079657,18.4501987220871
-0.0649636137006553,18.4510531448834
-0.0621433820536585,18.4520935654321
-0.0581268152085407,18.453490149379
-0.0539903432929627,18.4548926262141
-0.0499812963819157,18.4562537754713
-0.0461457524946047,18.457576980282
-0.0425079296921584,18.4588636443162
-0.0390813804766365,18.4601140616644
-0.0358731539518158,18.4613279803415
-0.0328856708489051,18.4625049037938
-0.0301177520146651,18.4636442500873
-0.0275653187126766,18.4647454334291
-0.0252219593756048,18.4658079012788
-0.0230794344568593,18.4668311444384
-0.0211281405882422,18.4678146895408
-0.0193575372347087,18.4687580792038
-0.0177491888771814,18.4696651076707
-0.016195956584673,18.4705951525307
-0.0147029237184212,18.4715493693484
-0.0132740798687935,18.4725297123704
-0.0119132429978946,18.4735384629997
-0.0106240010419585,18.4745783136348
-0.00940965837222682,18.4756524714206
-0.00827317918056131,18.4767647966327
-0.00721712753544582,18.4779199911775
-0.00624360328356606,18.479123861864
-0.00535417208941405,18.4803836991322
-0.00454978634801198,18.4817088414892
-0.00383069075116209,18.4831115537989
-0.00319630031865837,18.4846084696278
-0.00264557677592973,18.4862213114442
-0.00220170104741273,18.4878726903726
-0.001846773973008,18.4895810841514
-0.00156545159257449,18.4913653768429
-0.00134330745057467,18.4932503153261
-0.00116642321154308,18.495269969907
-0.0010207591336022,18.4974747190174
-0.000891022692252699,18.4999469546273
-0.000757883887044816,18.5028451682645
-0.00058685907334605,18.5065915426451
-0.000398099025944112,18.5104109811952
-0.000163298895491442,18.5147330953506
0.000123624634367615,18.5196711245276
0.000438255975558966,18.5249511461397
0.000770953411164735,18.530591785818
0.00111549495975813,18.5366161066181
0.00145560544938471,18.5427809638553
0.00173070700789228,18.5479031530798
0.00196753790276714,18.5523966028825
0.00218835889278469,18.5566341665071
0.00240815916461516,18.5608760758017
0.00264424336039564,18.5654352608271
0.002898698140956,18.5703224320771
0.0031522159978917,18.5751298242139
0.00341099774366685,18.5799478423824
0.0036359547525105,18.5840373287647
0.00385080559609016,18.5878501022701
0.0040651010187057,18.5915529462839
0.00428418213477375,18.5952276664574
0.00451208841423619,18.5989264041357
0.00475247736748874,18.6026881798559
0.00500902111002562,18.6065451654096
0.00528569691585471,18.6105265118596
0.00558701518661095,18.6146603915799
0.00591825496124881,18.6189752990298
0.00628577219242208,18.6235010812884
0.00669748329689844,18.628270027312
0.00716343341790373,18.6333155439907
0.00765085446177498,18.6382226367906
0.00817382913803182,18.6431018551048
0.00873218720647196,18.6479042787213
0.00933227032797351,18.6526365307115
0.00998050134204155,18.6572966892296
0.0106893934807371,18.661915288507
0.0114820017573095,18.6665640328435
0.0123741978413116,18.6712409142756
0.0133895712079745,18.6759659797993
0.0145613659964301,18.6807765675115
0.0159450237336259,18.685759644897
0.0176610166968232,18.6911527118986
0.0200716097590426,18.6977297117883
0.021679485440004,18.7017200903677
0.02334304072351,18.705710468947
0.0247911578767379,18.7092337188238
0.0260103155146663,18.7124150630281
0.0270235173707468,18.71544739883
0.0277960605738825,18.7183627538189
0.0283021080861319,18.7211788567147
0.0285351489270503,18.7240199975051
0.0284540429367663,18.7270610137154
0.0279038757387934,18.7307471753806
0.0270870113873376,18.7338720196107
0.026004354096835,18.7369968638408
0.0249190861067028,18.7396586343407
0.023844162255513,18.742063584863
0.0227695506691361,18.7443403794826
0.0216951534882531,18.7465472275145
0.0206240519118844,18.7487161430845
0.0195599464420464,18.7508678920072
0.0185064913152597,18.7530174137597
0.0174671166452204,18.7551762556161
0.0164449778136384,18.7573538652081
0.0154429560847023,18.759558329923
0.0144636596143498,18.7617968674826
0.013509439878914,18.7640761369847
0.0125823998556825,18.7664024777709
0.0116843998112775,18.7687820996902
0.0108170718016753,18.7712212168255
0.0099818242765954,18.7737261854291
0.00917984864368894,18.7763036287597
0.00840442163520687,18.7789882872104
0.00764179146986465,18.7818517409004
0.00689574971275986,18.7849143139125
0.00617007681543884,18.7882002893295
0.00546875708973973,18.7917376927252
0.00479593973893387,18.7955589830495
0.00415586387170773,18.7997019891622
0.00355273730900924,18.8042112838955
0.0029905479918692,18.8091404984858
0.00247280872565643,18.8145564682171
0.0020022979429604,18.8205463276888
0.00158099633313743,18.8272271373004
0.00122267397299311,18.8344708375085
0.000924492331353847,18.8423205670591
0.00067985734246384,18.8509100816374
0.000482657984156368,18.8604162995946
0.000335342948797178,18.8704162995946
0.000235354726962718,18.8804162995946
0.000169089564428428,18.8904162995946
0.00012375750817899,18.9004162995946
9.22443377129482e-05,18.9104162995946
7.04192333392041e-05,18.9204162995946
5.55428412744373e-05,18.9304162995946
4.56177980321261e-05,18.9404162995946
3.91677801614693e-05,18.9504162995946
3.51330153736706e-05,18.9604162995946
3.27772945888938e-05,18.9704162995946
3.15986638009079e-05,18.9804162995946
3.12559223635734e-05,18.9904162995946
3.15158805272296e-05,19.0004162995946
3.22183937876108e-05,19.0104162995946
3.32536441247594e-05,19.0204162995946
3.45470438972403e-05,19.0304162995946
3.60488548275854e-05,19.0404162995946
3.77268990743602e-05,19.0504162995946
3.95614327835182e-05,19.0604162995946
4.15415769299705e-05,19.0704162995946
4.36628662218249e-05,19.0804162995946
4.59255891505473e-05,19.0904162995946
4.83336823155973e-05,19.1004162995946
5.08940135704716e-05,19.1104162995946
5.3615941398636e-05,19.1204162995946
5.65110749125268e-05,19.1304162995946
5.95931841879531e-05,19.1404162995946
6.2878228188866e-05,19.1504162995946
6.63844801096123e-05,19.1604162995946
7.01327393740044e-05,19.1704162995946
7.41466269489065e-05,19.1804162995946
7.84529668715466e-05,19.1904162995946
8.30822625963172e-05,19.2004162995946
8.80692824980159e-05,19.2104162995946
9.34537751615038e-05,19.2204162995946
9.92813425131739e-05,19.2304162995946
0.000105604508076073,19.2404162995946
0.000112484029506826,19.2504162995946
0.000119990520238325,19.2604162995946
0.000128206466095102,19.2704162995946
0.000137228751437011,19.2804162995946
0.000147171849026495,19.2904162995946
0.000158171883302152,19.3004162995946
0.000170391855448714,19.3104162995946
0.000184028431859753,19.3204162995946
0.000199320862845014,19.3304162995946
0.000216562843543523,19.3404162995946
0.000236118498876761,19.3504162995946
0.000258444243088616,19.3604162995946
0.000284119156969277,19.3704162995946
0.000313887958500275,19.3804162995946
0.000348722999882641,19.3904162995947
0.000389915710282984,19.4004162995947
0.00043921485408929,19.4104162995947
0.000499041514221862,19.4204162995947
0.000567240472421881,19.429721449737
0.000644291838938594,19.438301887115
0.000731279595884072,19.4462119779173
0.000829485690046822,19.453505241942
0.000940374193141964,19.4602313054282
0.0010656055752848,19.4664361198278
0.00120706103576784,19.4721622810744
0.00136687242547022,19.4774492830159
0.00154745810859755,19.4823336984885
0.00175155932806058,19.486849403278
0.0019822919618602,19.4910278231327
0.0022432016686126,19.4948981615579
0.00253833209030114,19.4984875547865
0.00287230925676091,19.5018212617843
0.00325044887476739,19.5049228986585
0.00367889998355162,19.5078146453127
0.00416482688488829,19.5105174585075
0.00471666852713227,19.5130513661106
0.0053445121825396,19.5154358153924
0.00605775327614195,19.5176818244563
0.00684465711658782,19.5197484283904
0.00771493514776137,19.5216705504297
0.0086834107350862,19.5234834522626
0.00977314400433235,19.5252246239995
0.0110248892169363,19.5269423762587
0.0125555680027887,19.528752394111
0.0145404183411886,19.5307791050501
0.0162311005201564,19.5323217213919
0.0180388311392808,19.5338643377336
0.0196196220453378,19.5351781821656
0.0210178393155126,19.5363588038184
0.0222720467262383,19.5374800422545
0.023384950246535,19.5385860904016
0.0243403910595724,19.5397154917673
0.0251042127130478,19.5409168313587
0.0256088408973667,19.5422784276545
0.0256611493624918,19.5440818667747
0.0252133349782708,19.5455574985598
0.0243962095598672,19.547033130345
0.0233944580876677,19.5483859269144
0.0222613104784786,19.5496929854444
0.0209880429194136,19.5510335916241
0.0195244085831544,19.5525001772979
0.0179342949817836,19.5540680147859
0.0173550917416427,19.554641636486
0.0167850235213698,19.555215258186
0.0152539131147962,19.5568376762053
0.0134138089649332,19.5589813992164
0.0117406166830663,19.5611727508588
0.0101611497293534,19.5635297233386
0.00869594644804265,19.5660646721852
0.00746754448322048,19.5685572539983
0.00640868231586708,19.5710948299788
0.00549702903511401,19.5737042091312
0.00471738891277408,19.5764085750052
0.00405915262860526,19.5792314765435
0.00351583034909723,19.5821983795668
0.00308538728763447,19.5853380903968
0.00277159867524822,19.5886843791049
0.002587211554443,19.5922780656392
0.00255630967876338,19.5958511751701
0.00266392919249731,19.5990426930769
0.0028835507410494,19.6019108512827
0.0032002388005819,19.6045006611176
0.00360715751537663,19.6068583883908
0.00410373071800892,19.6090279823349
0.00469594254046721,19.6110540300878
0.00539810443336065,19.6129836106487
0.00623667251087072,19.6148692697375
0.00726244686135762,19.6167825015575
0.00857650498563729,19.6188329367876
0.0104028422684364,19.6212190478648
0.0127119112005428,19.6237510598563
0.0149998789688795,19.625888788151
0.0171111466580572,19.627601890101
0.019234333968804,19.6291117653876
0.0214889201531425,19.6305155996077
0.0239267569970958,19.6318393371257
0.0266078081294646,19.6331036739607
0.0295835660914716,19.6343178934121
0.0328989370732643,19.63548515162
0.0366102964841541,19.6366105146874
0.0407716373025726,19.637695971517
0.0454459657576632,19.6387442663255
0.0507053517250923,19.6397582409465
0.0566301612560979,19.6407403587187
0.0633171281714656,19.6416937436661
0.0708777056729677,19.6426212978669
0.0794455431587121,19.6435262420353
0.0891804594355816,19.6444119212621
0.100275386304707,19.6452818580519
0.112967036463386,19.6461399143462
0.127547896181763,19.6469902966065
0.144384502424744,19.6478377149291
0.163944925133854,19.6486876532719
0.186843900268676,19.6495468860754
0.213935503143719,19.6504248535624
0.245484506555526,19.6513097621398
0.282010801529375,19.6522014816447
0.324555010744871,19.6531135670922
0.374888380888942,19.6540751639645
0.412660866712264,19.6547451711398
0.451611170992245,19.6554151783152
0.486299514892678,19.6560160084547
0.516876543365599,19.656572146427
0.543824262781537,19.6571120758642
0.567045055918171,19.6576588739341
0.585914449009967,19.6582392502263
0.598912693951208,19.6588996080832
0.602040903826738,19.6596248024281
0.593020683430575,19.6603803186597
0.570440982164369,19.6611894069283
0.536635833321208,19.6619815224602
0.489798607156508,19.6628137950559
0.427076530206023,19.6637143442336
0.373523483918892,19.6643781527391
0.314724246878252,19.6650419612447
0.264166485092043,19.6655819117132
0.222198819948442,19.6660218102693
0.186021193303907,19.6664036786136
0.153971099214833,19.6667509819276
0.125120936424583,19.6670772541195
0.0988687405846049,19.6673919063501
0.0747435259332448,19.6677031604238
0.052266582763827,19.6680207112994
0.0306829998580496,19.6683620422807
0.00726259041989025,19.6687940940988
-0.00212657884094798,19.6689939107241
-0.0106464550546474,19.6691937273494
-0.0173185988317136,19.6693658171359
-0.0235145951459756,19.6695411196508
-0.0297696168558766,19.6697372393859
-0.0358223826085658,19.6699507253085
-0.0415056542798358,19.6701794882939
-0.0467255987044805,19.6704227721396
-0.0514328053274123,19.6706807152876
-0.0556048836558503,19.6709541039478
-0.0592361285282001,19.6712442534629
-0.0623311646314977,19.6715529696974
-0.0649008440100318,19.6718825663454
-0.0669569866253776,19.6722359292386
-0.0685858783428288,19.6726425013517
-0.0695953398024203,19.6730531901467
-0.0701319189268812,19.6735006739865
-0.0702057030213331,19.6739923489426
-0.069819393896325,19.6745373923431
-0.0689640874566919,19.6751493097879
-0.0676139202551978,19.6758463521029
-0.0657146544701672,19.6766561658834
-0.063150728869438,19.6776273122353
-0.0596159412307175,19.6788739005396
-0.0554486925482511,19.6802934230572
-0.0513848768735204,19.6816688308695
-0.0474819132544961,19.6830053319878
-0.0437697948384336,19.6843049558064
-0.0402651921919206,19.685568310627
-0.0369771768426876,19.6867952950565
-0.0339096630012281,19.6879854763965
-0.0310626514662387,19.6891382909988
-0.0284330147950673,19.6902531485486
-0.0260150999628526,19.6913294824634
-0.0238012513770623,19.6923667682588
-0.0217822890667742,19.6933645215607
-0.0199479489508571,19.694322282235
-0.0182872836312843,19.6952395882469
-0.0167137047637878,19.696161387584
-0.0151986526445511,19.6971068970093
-0.013746446432618,19.6980778113778
-0.0123609711129741,19.699076288762
-0.011045901985839,19.7001048666396
-0.0098046500316974,19.7011665574125
-0.00864030644091948,19.7022649731812
-0.00755558396682055,19.7034044943858
-0.00655275451492449,19.7045905031684
-0.00563358163744246,19.705829715411
-0.00479924534206548,19.707130669094
-0.00405025430041725,19.7085044719819
-0.00338633594992363,19.7099660046584
-0.00280628510289833,19.7115359826983
-0.00232652625493265,19.7131718085121
-0.00194189642287863,19.7148578534276
-0.00163629729861551,19.7166124910965
-0.00139501793038612,19.718458077145
-0.00120402372689733,19.7204247805231
-0.0010494227564877,19.7225559772432
-0.000916580452922694,19.7249197704921
-0.000788196650752456,19.7276384435347
-0.00063804987325855,19.730992946035
-0.000460510300845055,19.7347455623034
-0.000247613890622104,19.7388321954784
2.5348436601934e-05,19.7436571589812
0.000326583287850902,19.7487626278901
0.000653940116099191,19.7543014818907
0.00099516322324678,19.7602199811379
0.00134344302389825,19.7664836296447
0.00164580645329061,19.7720922243839
0.00189562499020934,19.7768281570089
0.00212062146522394,19.7811524953549
0.00233794674567534,19.7853603948976
0.00256235850475981,19.7897152167836
0.00281882523962206,19.794678025014
0.00307074333761063,19.799498570526
0.00332936233906941,19.8043670457514
0.00356447221611843,19.8086943339601
0.0037822164709268,19.8126065292531
0.00399594355475268,19.8163479202577
0.0042123184223184,19.8200279931192
0.00443582144752509,19.8237096797407
0.00467023432899768,19.8274370847401
0.00491919807517618,19.8312450306388
0.00518653772721609,19.8351637209325
0.00547651736258921,19.8392216192596
0.00579406389289679,19.8434469163291
0.00614503583761732,19.8478686908362
0.00653661083428893,19.8525178973419
0.00697793235980057,19.8574285958533
0.00745710528944629,19.8623967013555
0.00796555607065072,19.8672876760229
0.00850955567578343,19.872121793963
0.00909263054417198,19.8768827583369
0.00972110297511105,19.8815716049796
0.0104024987115386,19.8861903720414
0.0111605938014593,19.8908294575472
0.0120108660195562,19.8954929889731
0.0129741599363904,19.9001957918153
0.0140789590833574,19.9049655978043
0.0153695294223479,19.9098640645261
0.0169306659042056,19.9150458449427
0.0190089250882249,19.9210422935427
0.0207941466767128,19.9256499189242
0.0226932386063959,19.9302575443057
0.0242666084224099,19.9340404005989
0.0255702989614995,19.9373293755801
0.0266619392876679,19.9404008297078
0.0275379430691321,19.9433864299391
0.0281441813835924,19.9462269330271
0.0284824730829096,19.9490424374393
0.0285282813382256,19.9519800397968
0.028191522528458,19.9553229715756
0.0271814810272514,19.959671470611
0.0262838633081903,19.9623603313267
0.0252243566290489,19.9650491920423
0.024150948264741,19.9675021851752
0.0230766824388774,19.9698071667478
0.0220019427255991,19.9720298469019
0.0209294936022153,19.9742070297211
0.0198629753515125,19.9763618910732
0.0188060868749649,19.9785106958918
0.0177623282545426,19.9806657951913
0.0167349364755127,19.9828371365941
0.0157268696012397,19.9850331382791
0.0147408128765606,19.9872612261501
0.0137791920529655,19.9895281855541
0.0128441768662101,19.991840432997
0.0119376980602622,19.9942041926559
0.0110614531105328,19.996625658906
0.0104821546097045,19.998312829453
0.00992820627150708,20
