ecg,time
0.364321416741848,15.0008961044089
0.323081001730692,15.0014911741489
0.277979396577279,15.0020862438889
0.237458547787853,15.0025930026598
0.202222870915951,15.0030250575753
0.170965710126128,15.0034102823054
0.142799532815659,15.0037659868952
0.117163733207986,15.0041033023076
0.0936561424166776,15.0044306227744
0.0719335664034182,15.0047557300408
0.051617336545524,15.0050881890526
0.0320701571556374,15.0054456049018
0.0109456629788972,15.0058947327811
0.00222819315853277,15.0061080307566
-0.00568079017891568,15.0063213287321
-0.0120469346972679,15.0065104416788
-0.0179497829844214,15.006703424507
-0.0238427583962446,15.0069176836774
-0.0294979603797108,15.007149804811
-0.0347724039863489,15.0073977973638
-0.0395877054361647,15.0076610330166
-0.0439039143498448,15.0079397890448
-0.0476990807921911,15.0082349987607
-0.0510470415115389,15.0085574374384
-0.053745341249305,15.0088881707604
-0.0559366594343716,15.0092409745616
-0.0576357942414433,15.0096190714023
-0.0588568242254391,15.0100262423588
-0.0596129530896313,15.0104671562023
-0.0599150302226922,15.0109476382735
-0.0597698887578048,15.0114750718912
-0.0591777097380517,15.0120594057182
-0.0581268107910257,15.012714777773
-0.0565899717271396,15.0134600119549
-0.0545122967228138,15.0143238977892
-0.0517785440094175,15.0153571313385
-0.0480819831495082,15.0166799804257
-0.0441392722655465,15.0180612553956
-0.0403427923775717,15.0193969799707
-0.0367346739570635,15.020691346312
-0.0333350042686914,15.0219465450102
-0.0301535106971007,15.0231634110457
-0.0271936251066012,15.0243420892265
-0.0244544160090439,15.0254823895949
-0.0219316998912275,15.0265839740059
-0.0196188066070674,15.0276464511377
-0.0175071833653839,15.0286694194944
-0.0155869091505637,15.0296524791585
-0.0138471456412947,15.0305952235201
-0.0122658866675265,15.0315035200284
-0.0107414678592955,15.0324348295314
-0.00927894692868692,15.0333903407555
-0.00788233384719808,15.0343720249779
-0.00655546765282724,15.0353821823853
-0.0053019608552283,15.0364235267225
-0.0041251486869873,15.0374992902602
-0.00302803587231686,15.0386133638252
-0.00201324096781871,15.0397704876361
-0.00108293792437023,15.0409765180435
-0.00023879393918527,15.0422388116468
0.000518098337474356,15.0435667985229
0.00118729802204923,15.0449728757057
0.0017691100506708,15.0464738776638
0.0022632911691739,15.0480883777723
0.0026510241556056,15.0497420085494
0.00294986141571175,15.051453247814
0.00317493669130113,15.053241168109
0.0033404282652571,15.0551307951892
0.00345995999709685,15.0571566579697
0.00354720148367558,15.0593699668153
0.00361693179624254,15.0618548556583
0.00368763462604193,15.0647744683887
0.00379023010351925,15.0685187890961
0.00392565997517492,15.0723512883463
0.00412133426573375,15.0766962808431
0.00438818527936844,15.0815761521492
0.00467095665877951,15.086072046684
0.00497195893026901,15.0903908827662
0.00530791668590641,15.0947871685125
0.00571791324270644,15.0996410883684
0.00618684963532196,15.1045765794214
0.00671155077302214,15.109413792318
0.00727645178434818,15.1139310179605
0.007877404795816,15.1180854670517
0.00853652824501133,15.1220170094522
0.00927539944622241,15.1258066268895
0.0101006984502152,15.1294387170394
0.0110347397218914,15.1329673398578
0.0121131127342938,15.136471573416
0.0134040740855579,15.1400960122275
0.0146325848219488,15.1431518164986
0.0156555655466222,15.1455091628954
0.0167203337221494,15.1478665092922
0.017645478332294,15.1499031894389
0.0184596165199833,15.15175200268
0.0191801850576722,15.1535070007713
0.0198066300226053,15.1552248357302
0.020329342348873,15.1569547438236
0.0207297411213002,15.1587551026939
0.0209736672347349,15.1607214109242
0.0209796437201075,15.1630978413739
0.0206726873765536,15.1654957854962
0.0200914369944119,15.1678937296186
0.0194447076332308,15.169885164731
0.0187570656578515,15.1717155389272
0.0180337826370814,15.1734960020842
0.0174685325121722,15.1748970612787
0.0169529322913949,15.1762981204732
0.0161399909602526,15.1788547331044
0.0154606262214079,15.1815054286495
0.014919600626867,15.1842412584378
0.0145141950680427,15.1870857006348
0.0142453242446786,15.1900643701188
0.0141181554809457,15.1932055659238
0.01414313715406,15.1965418602262
0.0143378358036944,15.2001120539505
0.0147298511307937,15.2039637993626
0.0153610931903023,15.2081573771282
0.0162931048297741,15.212771466158
0.0176097816567742,15.2179124919998
0.0191391491210093,15.2229313535558
0.0205057534822969,15.2270379982721
0.0216424108398597,15.2304287379745
0.0226134064986373,15.2335089177011
0.0234250872823544,15.236470741162
0.0240268696457931,15.239292215369
0.0244028619745046,15.2420386260562
0.0245369342202859,15.2448356035451
0.024390972274723,15.2477417749327
0.0239877368835189,15.2504902768064
0.0233852430867931,15.2530966954947
0.0226350974573966,15.255587345796
0.0217767090082538,15.2579932655608
0.0208340039666172,15.260355018171
0.0198473457291589,15.2626519966485
0.0188576747090432,15.2648548541616
0.0178695761895945,15.2670017780799
0.0168861474584348,15.269119947097
0.0159105949380534,15.2712282280358
0.0150372918667964,15.2731391595623
0.0142676687911277,15.2748536218548
0.0135374359095538,15.2765159147842
0.0128035828726193,15.2782301725733
0.0120186213729726,15.2801228800908
0.0111293924177248,15.2823563732782
0.0102599485498039,15.2846513876541
0.00941442935971968,15.2870111328205
0.00859374788331585,15.2894473103966
0.00779853639234311,15.2919734304991
0.00702823178451608,15.2946086666037
0.00628207380949297,15.2973760997482
0.0055571078286881,15.3003123686429
0.00484830433400457,15.3034732118175
0.0041462204542272,15.3069551457722
0.00396198871148923,15.3079373296856
0.00378511503467179,15.308919513599
0.00361201712083206,15.3099876492614
0.00329176926026801,15.3123660358984
0.00301119474609433,15.3150902256264
0.0027544009170604,15.3184837792944
0.00254482350579141,15.3227069291402
0.00245402120278177,15.3261925860925
0.00243568208382049,15.3292737469009
0.00247618172918313,15.3321190792126
0.00257290992968433,15.3348236894187
0.00272893936908084,15.3374724879108
0.00295398820918508,15.3401808339202
0.00327495937752983,15.3432005718751
0.00358119565960464,15.3457369315955
0.00388712859632034,15.3482732913159
0.00413008203015694,15.3505482367314
0.00432311772285227,15.3528900650496
0.00445797009843642,15.3556429314376
0.00449432169856629,15.3587389214621
0.0044384164323103,15.3618582732225
0.00434604325170734,15.3646434279599
0.00424360142193041,15.3674770663783
0.00414895731452867,15.3706157784361
0.00408891261304678,15.374250469487
0.00409871183501585,15.3782608238307
0.00422651874452439,15.3833493321255
0.00443098751357307,15.3876698193747
0.00471770284153001,15.391990306624
0.00509087006991449,15.3963445968761
0.00550853062463702,15.4002746968948
0.00598717184506227,15.4039963222353
0.00652776707841955,15.4075003739618
0.00713498044319292,15.410798818948
0.00781185239343139,15.4138925231923
0.00856074473157494,15.4167841981372
0.00938335572901607,15.4194794260216
0.0102816821043745,15.4219887876155
0.0112632123501728,15.4243368967017
0.0123615699914317,15.4265922084203
0.0135911725808071,15.4287599583874
0.0149683761659024,15.4308452932019
0.0165118639634303,15.4328534177478
0.0182439916233909,15.4347905925931
0.0201909790375993,15.4366632067268
0.0223839852622317,15.4384779743313
0.0248610333714465,15.4402424321986
0.0276692344228522,15.4419650641204
0.0308682427586339,15.4436556850029
0.0345375362009923,15.4453269016991
0.038787815732994,15.4469956338148
0.0437885906637136,15.4486880666717
0.0498372914493434,15.4504514561007
0.0569000895428788,15.4522321740416
0.065279399024768,15.4540794477262
0.0731308151449902,15.4556385600688
0.0815233823036372,15.4571976724115
0.0888157372298983,15.4585188518442
0.095074124836585,15.459676324654
0.100439913754247,15.4607383420602
0.104901950842751,15.4617408667285
0.108371367464383,15.4627070234981
0.110705611247608,15.4636555792275
0.111701322696634,15.4646057748035
0.111051950248706,15.4655833504215
0.108190793366199,15.4666381786879
0.102399871748685,15.4677785270709
0.0934355066766038,15.4689659692319
0.0836358337794938,15.4699847010503
0.0746809323486065,15.4708009635782
0.0661762018304606,15.471524596166
0.0579952356376925,15.4721979508438
0.050124448933014,15.4728407978975
0.0425725184645025,15.4734655654897
0.0353478145486139,15.4740818898403
0.0284503006982261,15.4746987613464
0.0218637113668627,15.4753264902588
0.0155375846675759,15.4759803365557
0.00932143494268199,15.4766923579325
0.00247770736761618,15.4775956058343
-0.00151206604186649,15.4782085219808
-0.00499641602530294,15.4788214381273
-0.00781531025888383,15.4793926838594
-0.0101452745697874,15.4799374728426
-0.0121333443981446,15.4804766433633
-0.0139154650273627,15.4810448037197
-0.0154757314205138,15.4816419875495
-0.0168058377791313,15.482268960685
-0.017526759755108,15.482681462427
-0.0181095134772877,15.483093964169
-0.0187545005397577,15.4837932099761
-0.0190158349968604,15.484397624991
-0.0190466210117224,15.4850350977435
-0.0188550260187873,15.4857089937077
-0.0184491001661581,15.486424206948
-0.0178370174212288,15.4871857088909
-0.0170283618313838,15.4879983060343
-0.0160339376404867,15.4888676494305
-0.0148656263584152,15.4898005522369
-0.0135360567418,15.4908055673541
-0.0120577967601513,15.491894124929
-0.0105704703658384,15.4929873246004
-0.00913636358694585,15.4940597386785
-0.0077354370816329,15.4951412410206
-0.00637665738936067,15.4962376044699
-0.00506712130453564,15.4973542535412
-0.00381284350829312,15.4984963401961
-0.00261886816536942,15.4996691198576
-0.00148933290285954,15.5008782709915
-0.000427488419076368,15.5021302253208
0.000564320430256644,15.5034325623437
0.00148471313522644,15.5047945349697
0.00233338080409722,15.5062278303229
0.00311126515306506,15.5077477519922
0.00382085993983873,15.5093751943377
0.00446675060950468,15.5111402302546
0.00501898996256891,15.5129528145898
0.0054969021454636,15.5148328189301
0.00591948757668805,15.5168079672446
0.00630543006890726,15.5189143277262
0.00667478781720345,15.5212033842143
0.00705189253945741,15.5237569071998
0.00747245455514891,15.5267266993958
0.00801055952640949,15.530491244067
0.00862669223469761,15.5345799247261
0.00936688641815066,15.5391291462199
0.0101474729292299,15.5435440759797
0.0109891057744085,15.5479294745252
0.0119148575933511,15.5523612337861
0.0129435660303004,15.5568558320283
0.0140997335831588,15.5614260703904
0.015422807409118,15.5661139481822
0.0169848362296524,15.5710310365355
0.0189650658543718,15.5765224733784
0.0215125614502006,15.5827569093246
0.0231224467808058,15.586420987487
0.0247567149631821,15.5900850656493
0.0261801182711455,15.593381217208
0.0273837653495989,15.5964257126321
0.0283776840362347,15.5993766428805
0.0291013781261319,15.6021733185262
0.0295564945138666,15.6049139708028
0.0297290210400399,15.6077294933303
0.0295577863925616,15.6108345639382
0.0287575991886974,15.6150128458198
0.0279189132147692,15.6177665436111
0.0268825826582597,15.6205202414025
0.0258270662452879,15.622981346379
0.0247694467167325,15.6252622971077
0.0237085146501874,15.6274453897707
0.0226466752333052,15.6295736209738
0.0215876563179591,15.6316727281186
0.0205353121312218,15.6337602061401
0.0194932858296498,15.6358490356754
0.0184649229412556,15.6379494990782
0.0174532616952744,15.6400701784263
0.0164610384791313,15.6422185730169
0.0154907049499039,15.6444014937554
0.0145444370499897,15.6466253559878
0.0136241472761342,15.6488963928096
0.0127314932537776,15.6512208317092
0.0118678801903751,15.6536050611511
0.0110344673991258,15.6560557746609
0.0102321716616381,15.6585801188075
0.00944058518048497,15.6612599622993
0.0086602673641156,15.6641222113171
0.00789436146014334,15.667189199578
0.00714599154909404,15.6704870102907
0.00641817272265186,15.6740461264915
0.00571360830619443,15.6779024672164
0.00503439607080401,15.6820987280757
0.00438155608336944,15.6866865054267
0.00375427636103252,15.6917301981519
0.00314879341609776,15.6973142571423
0.00255668443980442,15.7035578597511
0.00234861437306122,15.7059470673713
0.00215015731867683,15.7083362749915
0.00189263724939434,15.7116939246045
0.00175660746345649,15.7135772565453
0.00162795535174322,15.7154605884862
0.00136745492278896,15.7197831093914
0.00106819544270864,15.7257241391687
0.00083236960057456,15.7312694461205
0.000641664629847741,15.7363784085561
0.000483447187790661,15.7410876007142
0.00034997584155127,15.7454341216238
0.00023620436895494,15.7494527245522
0.000138630173958606,15.7531759480315
5.46722369570003e-05,15.7566343119921
-1.76788286089214e-05,15.7598565861379
-8.00617083501804e-05,15.7628702686308
-0.000133856908916854,15.765702097962
-0.000180251360143468,15.7683788616641
-0.000220281013846394,15.7709286889314
-0.000254859103719301,15.7733833457949
-0.000284807000052843,15.7757828796112
-0.000310903380646878,15.7781870339778
-0.000334014674525789,15.7807120090669
-0.000355845342700558,15.7837428954692
-0.000366899432108979,15.7857991793888
-0.000374893791897672,15.7878554633084
-0.00037942449341952,15.7896952921904
-0.000381390569752284,15.7913983388954
-0.000381206096437758,15.7930875772833
-0.00037868406265435,15.7948685664741
-0.000372853338449384,15.7968996137091
-0.000359921281206028,15.7996395167487
-0.000327433735757801,15.8039599451684
-0.000288539365355107,15.8075331563139
-0.000243166085189666,15.8107911667121
-0.000180359145769804,15.8144612316312
-8.09984200565771e-05,15.8191689132979
4.68611224090108e-05,15.8240446688772
0.000193056515979574,15.8285647646773
0.000358417277209944,15.8327357602273
0.000545554216731901,15.8365855356799
0.000758329220895263,15.8401485875455
0.00100178038068343,15.8434627402936
0.0012820121306211,15.8465660718131
0.00160703699396238,15.8495048781096
0.00198776267631521,15.8523365318883
0.00244003730167118,15.8551386600605
0.00299073193171865,15.8580389804165
0.00370490862398957,15.8613481588402
0.00435760923690134,15.8642048648762
0.0048857918192144,15.8665614402126
0.00538940357257415,15.8689709933216
0.00594385598331598,15.8719529791083
0.00639381242243079,15.8746924046999
0.00681322330674085,15.8774318302915
0.00719465715627025,15.8798892438047
0.00758924252055778,15.882215589236
0.00804102975864564,15.8845316663801
0.00858448552103016,15.8868777185256
0.00922546896235864,15.8891738791752
0.00998375489056491,15.8914239559751
0.0108472205264315,15.8935562104756
0.0118436215812261,15.8956173315555
0.012973133660844,15.8975844197637
0.0142470508853662,15.8994616003433
0.015675745616245,15.9012501357148
0.0172740198643739,15.9029555344794
0.0190601758286054,15.9045840994669
0.0210548642940615,15.9061411816397
0.0232833310678171,15.9076327540797
0.0257739687551016,15.9090638066791
0.0285602089979516,15.9104393559715
0.0316806026347213,15.9117640347277
0.0351799603319342,15.9130422786065
0.039111179035846,15.9142785688082
0.0435366237672414,15.9154773312887
0.0485311591108787,15.9166431953165
0.0541856305693936,15.9177810724471
0.0606122357343386,15.9188963685663
0.0679531330256749,15.9199953584599
0.0763936849108613,15.9210856607483
0.0861862299953756,15.9221772048661
0.097695666047243,15.9232840892967
0.111500343666836,15.9244288016893
0.127595617462974,15.925582643598
0.14641366663569,15.9267576420672
0.168714072139815,15.9279830351851
0.195894193020968,15.9293167727112
0.221872199880218,15.9304937114083
0.244573015302801,15.9314862397462
0.265097488842909,15.9323861557996
0.283640301697304,15.9332321054884
0.300008717724546,15.9340430717518
0.313850920549924,15.9348313685707
0.324711297881945,15.9356068177803
0.33202839631742,15.9363785533662
0.33510014215197,15.9371561888497
0.333009755580843,15.9379513269761
0.324423776437268,15.9387830773092
0.307222047169837,15.9396778751824
0.281080786815708,15.9405834518488
0.254047556076504,15.9413074561055
0.222194979134301,15.9420314603622
0.193346377059536,15.9426232870024
0.167681623851579,15.943123550199
0.144316071579773,15.943570684911
0.12279932593943,15.943984488333
0.102880957748867,15.9443768206399
0.0843847062597887,15.9447562347619
0.06715780666987,15.9451300821101
0.0510356365148462,15.9455061463982
0.035783133023212,15.9458953275833
0.0208948487594634,15.9463204375627
0.00768221851706242,15.9467527412121
0.000502713247549985,15.94701860562
-0.00598521433301301,15.9472844700278
-0.0114273879818356,15.9475317606973
-0.0163088785784804,15.9477779582304
-0.021073862081473,15.9480472717986
-0.0255725369271259,15.9483365711634
-0.0297112682962181,15.9486440784571
-0.0334403368084235,15.9489694392927
-0.0367356472856886,15.9493132393689
-0.0395856369648358,15.949676749472
-0.0425598860432325,15.9501757817567
-0.0443147599825446,15.9505842468797
-0.0456313708195241,15.9510184380258
-0.0465267252835485,15.9514833495687
-0.0470109002633555,15.9519834106232
-0.0470926890539134,15.9525239976896
-0.0467786193686184,15.9531117204311
-0.04607011760043,15.9537560940496
-0.044962125691003,15.954468649143
-0.0434420733785459,15.9552641934471
-0.041485113282411,15.9561634954904
-0.0390438274227483,15.9571982644223
-0.0360189733343525,15.9584248836933
-0.0327518057312484,15.9597319534644
-0.0296553159183348,15.9609834021514
-0.026758032529071,15.9621844249945
-0.0240684105830228,15.9633390858073
-0.0215870655781928,15.9644496475776
-0.0193099283991311,15.9655173563966
-0.0172299036298706,15.9665428785926
-0.0153379148327816,15.9675265313403
-0.0136236373444122,15.9684684005142
-0.0120468020057851,15.9693859235571
-0.0105268579453471,15.9703262893465
-0.00906885641829987,15.9712908995403
-0.00767691816199628,15.9722818519336
-0.00635495080689099,15.9733015799475
-0.00510659948442358,15.9743529432138
-0.0039351998379723,15.9754393406493
-0.00284372751661161,15.9765648611238
-0.00183474428476219,15.9777344891403
-0.000910340375756334,15.9789543934331
-7.20719537474534e-05,15.9802323449568
0.000679108737820539,15.9815783454759
0.0013429353225175,15.9830056171286
0.00191993089342808,15.9845322522255
0.0024049712987637,15.9861589586751
0.00278670291157652,15.9878282406481
0.0030822901521887,15.9895587680452
0.00330675961552768,15.9913708527963
0.00347422489971277,15.9932913556876
0.00359832899813933,15.9953578314318
0.00369291043611955,15.9976270379464
0.00377324801784742,16.0001949780649
0.0038593629750496,16.0032579362452
0.00397675309467497,16.007003724054
0.00412761707620865,16.0109274473218
0.00432816325546966,16.0152500940273
0.00456942366830701,16.0197824049965
0.00484822774371139,16.0245627139869
0.00516329664555116,16.0296328466304
0.00551323305491317,16.0349958570994
0.00586994500056497,16.0402110305119
0.00624324178161398,16.0453989987489
0.00663256553465237,16.0504996563884
0.00704285991797867,16.055524244687
0.00747860807752789,16.0604729388531
0.00794515951937661,16.0653526362262
0.00844809905557332,16.0701676374598
0.00899341802301508,16.0749204215382
0.00958755724269092,16.0796111358633
0.0102375503381928,16.0842382877823
0.0109577164695108,16.0888392461708
0.0117696060899327,16.0934682409766
0.0126900007823878,16.0981230593865
0.0137435834667143,16.1028225152244
0.0149665235710502,16.1076078535147
0.0164221861095255,16.1125804918222
0.0182602004780494,16.1180352391782
0.0207252611164022,16.1243947892437
0.0223177256959185,16.1281614990011
0.0239519933674208,16.1319282087585
0.0253816779446894,16.1352970079861
0.0265902183599582,16.1383764577362
0.0275922061899955,16.1413365549932
0.0283386397009953,16.1441591785007
0.028818367146178,16.1469044044678
0.0290212351589653,16.149696992529
0.0288974861921261,16.1527242001328
0.028247045877349,16.1565367612777
0.027417541863778,16.1594537495178
0.0263528150284122,16.1623707377579
0.025275710372975,16.1649125822969
0.024202542217627,16.1672346302789
0.0231275203668011,16.1694425095996
0.0220515915136955,16.1715872227622
0.020978040228559,16.1736978586236
0.0199105631817783,16.1757936764082
0.0188527436966201,16.1778887454691
0.0178079113875252,16.1799941007263
0.0167791108265655,16.1821189031595
0.015769103059369,16.1842711350273
0.0147803774558652,16.1864580519143
0.0138151658661361,16.1886864999741
0.0128754535549528,16.1909631631375
0.0119629943092771,16.1932947553601
0.0110793186143152,16.1956882053597
0.010225744006352,16.1981508290908
0.00940339144520082,16.2006904881531
0.00860560238801871,16.2033419973633
0.00781948163995475,16.2061728560791
0.00704883823858583,16.209204193201
0.00629751656696169,16.212461300712
0.0055695980758161,16.215973630213
0.00486935992436701,16.2197757073512
0.00420122033174178,16.2239082603808
0.00356962696857587,16.2284199134279
0.0029788586302202,16.2333700958163
0.00243272951641741,16.2388344321549
0.00193421404337663,16.2449151161931
0.00151675384134869,16.2515521840406
0.00119458272550161,16.2585793467589
0.000960367027824673,16.2652778572986
0.000745375533510298,16.2732568655525
0.000578091747701636,16.2816664095076
0.000439926330149334,16.2916456161117
0.000356905727039796,16.3008422446569
0.000308703000105978,16.3092166947871
0.000281940776845443,16.3168517022031
0.000268737280943955,16.3238266341076
0.000264423362204123,16.3302134070919
0.000266717431562437,16.3360773410311
0.000274979598212848,16.3414781221045
0.000287387628318366,16.3464707560109
0.000302690225274884,16.351106594072
0.000320150483358054,16.355434560145
0.000339361227247758,16.3595027768238
0.00036017303778506,16.3633610663703
0.000382658398173349,16.367065382781
0.000407195986280221,16.3706871551597
0.000434721784137795,16.3743378096272
0.000467759282277343,16.3782604212766
0.000504403918202417,16.3821340093319
0.000535460803439316,16.3850901348844
0.000569499710290378,16.3880462604369
0.000602555564626809,16.3906729042632
0.000636377998067328,16.3931464067423
0.000673360784030385,16.3956365508081
0.000716699257668366,16.3983099525668
0.000773252352552293,16.4014644650439
0.000874661770540921,16.4063864929565
0.000990556195670495,16.4111305032057
0.0011028573594934,16.4150900768661
0.00123450606990405,16.4191668122212
0.00140545158382752,16.4237849645333
0.00163465925938024,16.4290597786593
0.00188227531618077,16.4338110669887
0.0021610712723967,16.4382610324222
0.00247580992776888,16.4424246628646
0.00283538541005916,16.4463699206496
0.00325188306982747,16.4501771517198
0.00374479757123384,16.4539617795415
0.00434429322514948,16.4578769271866
0.0050747683765494,16.4620216916156
0.00599362368202263,16.4666917259856
0.00701971863918507,16.471510967106
0.00775336442698164,16.4747426432172
0.00854551214178013,16.4779743193284
0.00932000030446615,16.4808140541198
0.0101050209154444,16.4833514253506
0.0109276904685494,16.485668618628
0.0118199050192154,16.4878437886796
0.0127965134025414,16.4898966105419
0.0138902359725381,16.4918738321494
0.0151147064073384,16.4937738464637
0.0164853976810959,16.4955983156442
0.0180138963577683,16.4973439509145
0.0197199106911414,16.4990168798223
0.0216218966756793,16.50061957124
0.0237402819745789,16.5021548162032
0.0261017038302006,16.5036279457854
0.0287351780682588,16.5050430947926
0.0316739110416151,16.5064042833655
0.0349576419062133,16.5077160428211
0.0386321209275395,16.5089825775799
0.0427509598409506,16.5102080708505
0.0473781073601862,16.5113969047648
0.0525901535297404,16.5125536110237
0.0584801528651423,16.5136830245972
0.0651632107400317,16.5147904953227
0.0727854864707843,16.515882268852
0.0815378365357108,16.5169659430113
0.0916804075508092,16.5180514306961
0.103590173024801,16.5191528492703
0.117866037322418,16.5202927722478
0.134456038685881,16.5214395987477
0.153836584649237,16.5226080285605
0.17678932745356,16.5238270420744
0.204749563444929,16.5251538735009
0.231589531414577,16.5263294700353
0.255085117436603,16.5273215528924
0.276363304316862,16.5282210589144
0.295629656098628,16.5290664328587
0.312693948578591,16.529876595319
0.327205572622273,16.5306639011858
0.338709834059383,16.5314383005853
0.346644322974996,16.5322091122468
0.350301653736631,16.5329861438835
0.348753638176162,16.5337811211456
0.340654772830915,16.5346128977334
0.323891957194248,16.5355067794112
0.298087890529617,16.5364111976949
0.270829730110557,16.5371439861262
0.238526842913892,16.5378767745574
0.209422643744728,16.5384708733729
0.183605634822924,16.5389710081354
0.16013985500394,16.5394170817628
0.138557544198186,16.5398293398065
0.118601093554953,16.5402198104243
0.100090593170414,16.5405971153138
0.0828715506415124,16.5409686205603
0.0667793857482987,16.5413420728376
0.0515821271414434,16.541728237271
0.0367877044900412,16.5421494309456
0.0234960877560039,16.5425842216151
0.0164160121684215,16.5428471059269
0.0100271164957416,16.5431099902386
0.00467481773171024,16.5433545891735
-0.00011980142257121,16.5435982243148
-0.00479287748129572,16.5438649101102
-0.00919421777995152,16.5441514872136
-0.0132304065880131,16.5444561569317
-0.016852292527098,16.5447785475413
-0.020036656606705,16.5451192287539
-0.0227673810160851,16.5454794554206
-0.0252321653583493,16.5459013990711
-0.0269519110323737,16.5463011948831
-0.0282395677699412,16.5467267911328
-0.0291110411926425,16.5471821970792
-0.0295806681813378,16.5476716659658
-0.0296629566689926,16.5482003667176
-0.0293719778522438,16.5487746455072
-0.0287197604976292,16.5494032265889
-0.0277147746016097,16.5500974302276
-0.0263628815564343,16.5508712658334
-0.024664936668916,16.5517441794405
-0.0226114617778005,16.5527453398249
-0.0201671455207692,16.5539248777121
-0.0174956669994087,16.5552487460401
-0.0150699395460796,16.5565155081587
-0.012891457932596,16.5577309619839
-0.0109453809152019,16.5588996670637
-0.00921338720267618,16.5600241361421
-0.00767670056999207,16.561105741093
-0.00665420483682397,16.5618791189676
-0.00568464488249172,16.5626524968422
-0.00453689827544958,16.5636163480075
-0.00348995709996774,16.5645512379155
-0.00252511763175303,16.5654714807766
-0.00160508989172698,16.5664147422266
-0.000734354004023192,16.5673825437364
8.30618087536614e-05,16.5683770195612
0.00084324975369501,16.5694006517527
0.00154245967573188,16.5704563628172
0.00217713526089844,16.571547633024
0.00274395024918841,16.572678657273
0.00323984222965759,16.5738545600535
0.00366204074594579,16.5750816983299
0.00400808476445273,16.5763681023552
0.00427582120565124,16.5777241424182
0.00446336911826876,16.579163585953
0.00456901791491278,16.5807053759501
0.00459144224872821,16.5823364427986
0.00453795711188883,16.5840125998155
0.00442006369447244,16.5857524497244
0.00424799379490588,16.5875770163283
0.00403083874507678,16.5895142790654
0.00377649854091203,16.5916037180884
0.0034913716431195,16.5939057560695
0.00317932146561729,16.5965245996207
0.00283783744012187,16.5996812484897
0.00249189217285738,16.6034274289632
0.00219142707257647,16.6074055855224
0.00191220036449068,16.6120143343036
0.00166669628213243,16.6170344618281
0.0014776228146442,16.6216839616594
0.00133804280809184,16.6257791156317
0.00123641089765994,16.6295389649405
0.00117268677797586,16.6330391663994
0.00114899119423305,16.6363146955203
0.00116641998503808,16.6393909920678
0.0012242313728843,16.6422916622709
0.00132013900497338,16.645040961874
0.00145112508405065,16.6476651619471
0.0016144812390023,16.6501949735377
0.00180905572238254,16.6526701274902
0.0020372543244176,16.6551506701158
0.00231050652536156,16.6577542030378
0.00267913887560243,16.6608674181256
0.00296061173541129,16.6630341652513
0.00326082608747521,16.6652009123769
0.00353812994479472,16.667098183017
0.00380580031775431,16.6688520947223
0.0040815791475039,16.6705918858925
0.00438297904925825,16.6724260268212
0.00473962178036865,16.6745174317697
0.00524246057972855,16.6773405220106
0.00581209441438809,16.6803838276582
0.00638861717811984,16.6833162371172
0.00698600353733943,16.6862138399665
0.00767539433072645,16.6893953170434
0.00842043575923639,16.6926537732606
0.00920009299620071,16.6958796305351
0.0100375039581896,16.6991516266907
0.0109728536316132,16.7025897450192
0.0120544395735092,16.7063072538212
0.0133372618809683,16.7103995884856
0.0148812738429033,16.714941209449
0.0167464180731665,16.7199960750325
0.0184061439217909,16.7242306099754
0.0201054802338067,16.7284651449184
0.0215473214643358,16.7321355135163
0.0227653984485697,16.7354627424111
0.0237987284127576,16.7386822967875
0.0246444452629956,16.7419745923882
0.0252273173748411,16.745294342972
0.0255039718216743,16.7487009938634
0.0254177434001062,16.7523508665398
0.0248046943709026,16.7567246181811
0.0237436069061935,16.760957140587
0.0225366292384212,16.7646020710514
0.0213293126393615,16.7677646395159
0.02012392665629,16.7706894481164
0.0189105610117325,16.7735176764257
0.0176892044750642,16.7763196180569
0.0164626883956914,16.7791405575234
0.01523452901147,16.7820159658657
0.0140091656238411,16.7849757703066
0.0127915476416768,16.7880480450938
0.0115857530534031,16.7912646335369
0.0103979694509911,16.7946551969662
0.00923384869118089,16.7982556521877
0.0080999605618862,16.8021060711966
0.00700406417745023,16.8062511452698
0.00595521669199031,16.810740606544
0.00503536868097574,16.8156302903086
0.00441268077688591,16.820013543028
0.00393880381161366,16.8239665632974
0.00350148511642958,16.8280205317026
0.00307758313647507,16.8322952474354
0.00264006428780762,16.8370993276286
0.00225233535459782,16.8417627502791
0.00189136486281339,16.8465231885185
0.00161024774736603,16.8505485059246
0.001369438663125,16.8542317875145
0.00115033647300257,16.8577683522178
0.000944020161036443,16.8612469617381
0.000869831172283481,16.862528422901
0.00080411473837137,16.8638098840639
0.000688061913489066,16.8669660740265
0.000615121373626996,16.8704519835331
0.000579209581352092,16.8740594855746
0.000569114609992613,16.8777612509029
0.000577807789997305,16.8815764337928
0.000601984060623268,16.8855239914248
0.000640381427998218,16.8896228583066
0.000692340193565035,16.893892534596
0.000756684885404377,16.8983536557811
0.000831007042914405,16.9030285922415
0.000911398082485831,16.907942131532
0.000992627660893764,16.9131223706201
0.00106864219502272,16.9186018244561
0.00113323323121012,16.9244188413761
0.00118068712573319,16.9306192035848
0.00120631308742065,16.9372579330092
0.00120680972664826,16.9444010785911
0.00118049640725836,16.952128033394
0.00112743783530405,16.9605353056267
0.00104946956434867,16.9697420135067
0.000953218335116184,16.9795901710892
0.000861370416455819,16.9885486747463
0.000774894601064631,16.9970649861497
0.000693718388336365,17.0054105891131
0.000616863179662921,17.0138569234935
0.000543192245103814,17.0226906606146
0.000473395218527277,17.032001198033
0.00040802730781463,17.0418825192769
0.000350457350535604,17.0518825192769
0.000300707971815211,17.0618825192769
0.000257850467938908,17.0718825192769
0.000220941116168058,17.0818825192769
0.000189079517999005,17.0918825192769
0.000161439985286064,17.1018825192769
0.00013728523430123,17.1118825192769
0.000115969024906011,17.1218825192769
9.69323460742314e-05,17.1318825192769
8.25450269238278e-05,17.1418825192769
7.84438410007347e-05,17.1518825192769
7.77670082188885e-05,17.1618825192769
7.79523063089114e-05,17.1718825192769
7.85796637743368e-05,17.1818825192769
7.98092356540669e-05,17.1918825192769
8.17646612220317e-05,17.2018825192769
8.44700074401729e-05,17.2118825192769
8.79424730295252e-05,17.2218825192769
9.22642284381857e-05,17.2318825192769
9.72660987471289e-05,17.2411600063454
0.000102864104474554,17.2496951870694
0.00010901993514925,17.2575447802324
0.000116196973937824,17.2647646470289
0.000124143586051495,17.2714067291809
0.000132553674582674,17.2775191992239
0.000141270115463049,17.2831467135183
0.000150202849441806,17.288330614985
0.000159295622463216,17.2931091594002
0.000168505723023109,17.2975177243991
0.000177800887313745,17.3015890119978
0.000187153762874115,17.3053532627856
0.000196539750910127,17.3088384583777
0.000206117384984098,17.3120705372678
0.000215975327914376,17.3150736101678
0.000226048831202074,17.317870192306
0.000236297301564363,17.3204814552629
0.000246697069007672,17.3229275191584
0.00025724329989198,17.3252278132239
0.000267952206126186,17.3274015585846
0.000278862661817457,17.3294684804025
0.000290045445171267,17.3314499720951
0.000301624456201388,17.33337124024
0.000313816933772436,17.3352658661324
0.00032704126225473,17.3371876141295
0.000342308731735608,17.3392526131257
0.000364220893295695,17.3419646337914
0.000377827377534033,17.3435153314675
0.000392299699747052,17.3450660291436
0.000406379483618616,17.3464856756477
0.000420635683815123,17.3478414982319
0.000435989544716484,17.3492178473611
0.000453673295395264,17.35070503637
0.000476289551936456,17.3524696228942
0.000515357868117226,17.355204767712
0.000565030082844589,17.3582103092027
0.000615040130455666,17.3608158825218
0.000673752275960884,17.3634682609531
0.000754717783041667,17.3666113837545
0.00088553414954903,17.3709103659902
0.00108200701780391,17.3764248010692
0.00129105655873279,17.3815273543639
0.00151159118626536,17.3861691968093
0.00174997481270042,17.3903856462431
0.0020133923767265,17.394217368874
0.00230921660315349,17.3977062762616
0.00264518414520238,17.4008932513274
0.00302789598663886,17.4038061298568
0.00346131666470003,17.4064628343382
0.00395991415681293,17.4089440682815
0.00454960862124987,17.4113493357938
0.00527904435348571,17.4138158859419
0.00618986869259409,17.4164221282286
0.0069835432786692,17.4184509781221
0.00782428878253359,17.4204798280156
0.00863758026946889,17.4224020792837
0.00951304402419158,17.42448222295
0.0105090791009647,17.4268869242305
0.0115063179603712,17.4292916255109
0.0123552591636938,17.4312599820217
0.0131929804102603,17.4330655837649
0.0140848505887315,17.4348037024391
0.0150697094700261,17.4365012954618
0.0161920638027049,17.4381842394552
0.0174610758374362,17.4398214272786
0.0189122710912562,17.4414228368573
0.020558764097566,17.4429723141229
0.0224138654238674,17.4444606560443
0.0245034364668404,17.4458912533756
0.026849171562724,17.4472635361158
0.0294738710477412,17.4485776784557
0.0324094952735939,17.4498376031873
0.0356923849689011,17.4510470101011
0.039363914847791,17.452209373688
0.043471872800843,17.4533281232675
0.048072499415702,17.4544068261159
0.0532313424291213,17.4554489553797
0.0590250799069857,17.4564579100185
0.0655440491934653,17.4574370774281
0.0728954261289148,17.4583898816935
0.0812076258841104,17.4593198652301
0.0906356820776923,17.4602307261748
0.101368978490382,17.461126423703
0.113641772468149,17.4620112929274
0.127748393487727,17.4628902222805
0.14406506556314,17.4637688789798
0.163083884957754,17.4646541029858
0.18547020539203,17.4655546491989
0.211887700058067,17.466473561483
0.242423527082865,17.4673951431635
0.277840861953684,17.4683285521919
0.319199922618978,17.4692888069619
0.368302376543687,17.4703074576512
0.405290825266124,17.4710209382346
0.443414834018118,17.471734418818
0.477310471867982,17.4723731474035
0.507097300528186,17.4729623273799
0.533238599492356,17.4735315305188
0.555642066326576,17.4741041360418
0.573710627572915,17.4747057640363
0.586040229284947,17.4753771460238
0.589158904595073,17.4761256996905
0.58047628873197,17.4768992587973
0.558674741717874,17.4777192667336
0.522749948200614,17.4785829450714
0.473253148910435,17.4794673587908
0.409133155635523,17.4803875788206
0.360508207071829,17.4809946472575
0.307799343679597,17.4816017156944
0.2616519328053,17.4821090954197
0.222490327647432,17.4825338693645
0.188292020984451,17.4829086870362
0.15778237426832,17.483252942436
0.130202084422849,17.4835785849486
0.105030404196622,17.4838944171053
0.0818362776707808,17.484208602278
0.0601464927907941,17.4845314942316
0.0391216641764811,17.4848837156059
0.0210598910574622,17.4852321937251
0.0116080001406552,17.4854388229935
0.00305287243495172,17.4856454522619
-0.00356382147694971,17.4858216012297
-0.00962325953618753,17.4859987781373
-0.0157392117026944,17.4861971435513
-0.021651791059355,17.486413164711
-0.0271934515744398,17.4866446608214
-0.0322701869659818,17.4868908287752
-0.0368323015706266,17.4871517850915
-0.0408569047821351,17.4874283073102
-0.0443375542378915,17.4877217091434
-0.0472779024584534,17.4880337984114
-0.0496851683502504,17.4883668921245
-0.051659853837695,17.4887470197791
-0.0529740791567317,17.4891298777736
-0.0537921392484937,17.4895441882706
-0.0541258438802597,17.4899957711598
-0.0539813530358998,17.4904916460576
-0.0533580745657707,17.491040926526
-0.0522426200795961,17.4916570658399
-0.0506041923586692,17.4923580641177
-0.0483826351060038,17.4931710781755
-0.045455151582105,17.494143352178
-0.0415086094078138,17.495383485161
-0.036915089698606,17.4967987301425
-0.0325089647642929,17.4981690351604
-0.0283546215269666,17.4994997324805
-0.0244873109642789,17.50079300959
-0.0209259279048753,17.5020495812198
-0.0176781262797436,17.5032694240456
-0.0147428286827095,17.5044521664449
-0.0121119977908849,17.505597294435
-0.00977221367879757,17.5067042586301
-0.007706158057181,17.5077725257345
-0.00589397045280451,17.5088015971308
-0.00431442129288344,17.5097910066315
-0.00294586770610435,17.5107403040741
-0.00176698640075278,17.5116490284431
-0.000692572531847275,17.5125757767953
0.000280669328214464,17.5135264768348
0.00115057024866011,17.5145030002908
0.0019153953585371,17.5155075778413
0.00257376694077611,17.5165428380392
0.00313744997276198,17.5176119073996
0.00356836355124824,17.5185720972467
0.00399485802004582,17.5197157571519
0.00434440747760372,17.5209057353205
0.00461462087663598,17.5221495176437
0.00480304062272739,17.5234558111278
0.0049073504651015,17.5248359697854
0.00492524500576294,17.5263052442655
0.00485416316717939,17.5278849404686
0.0047002702627088,17.5295241340761
0.00447559967001834,17.5312150443972
0.00419020912266096,17.5329761195014
0.00385279077629054,17.5348302188395
0.00347051351659823,17.5368083216328
0.00304864272568278,17.5389552360107
0.00258948445910529,17.5413419193387
0.0020892815211721,17.5440975884592
0.00152595747367276,17.547528063922
0.000986702299629385,17.551291398769
0.000479184750104525,17.5554235437641
-3.30277206107761e-05,17.5603389547402
-0.000482492197214798,17.565435768699
-0.000823196108076416,17.5700280899677
-0.00105888445359101,17.5739045092038
-0.00122442726726066,17.5774262702395
-0.00133337800006058,17.5808292592953
-0.00138737853998593,17.5843144775893
-0.00137566477096575,17.5881987449997
-0.00128872155167996,17.5921089350982
-0.00113579439455771,17.5959548236349
-0.000940533006318519,17.5995474142742
-0.000732527141157788,17.6027239300397
-0.000511183747920009,17.6057216338946
-0.000276400297013532,17.6086424601263
-2.83774753821889e-05,17.6115402991756
0.000232761347597523,17.6144499839876
0.000507040299365178,17.6173970206629
0.000794649660365306,17.6204018160337
0.00109596695143882,17.6234818921992
0.00141157701258761,17.626653089767
0.00174229974986958,17.6299303020502
0.00208923402156439,17.6333280016768
0.00245381019452962,17.6368606152359
0.00283787028808849,17.6405428353916
0.00324378308619537,17.6443899041468
0.00367461465561275,17.6484179251038
0.00413438102823669,17.6526442485269
0.00462840666784391,17.6570879056696
0.00516382270284204,17.66177000953
0.0057502652278529,17.6667140604772
0.00635892813653884,17.6716150998659
0.00699129159699838,17.6764396971205
0.00765507545530977,17.6812000580374
0.00835702782702949,17.6858942930539
0.00910498028800986,17.6905224074468
0.00991434000084893,17.6951206052147
0.0108085694322121,17.6997465469061
0.011804711737303,17.7043986483021
0.0129280533327407,17.7090964288004
0.0142153524998277,17.7138809796236
0.015730584450483,17.7188522341886
0.0176235211816694,17.7242989441703
0.0201557879208453,17.7306804617422
0.0217868610505913,17.7344634751423
0.0234584375983475,17.7382464885424
0.0249199196748324,17.741628326039
0.0261556128094762,17.744716487187
0.0271825828881222,17.7476826268948
0.0279536056824424,17.750514700672
0.0284561545731757,17.7532674294664
0.0286813513005699,17.756065589131
0.0285813797830091,17.7590954762101
0.0279635431562774,17.7628978794479
0.0271517160833465,17.7658343052421
0.0261011179781279,17.7687707310363
0.0250359831620109,17.771325125164
0.0239734531354234,17.7736569668177
0.0229080926630008,17.7758737899932
0.0218411009217734,17.7780272462941
0.0207759425284879,17.7801467221371
0.0197164505408308,17.7822516507354
0.0186663190375211,17.7843562183968
0.0176289757502365,17.7864715390141
0.0166075568794688,17.7886068237452
0.0156049133700618,17.7907700763137
0.014623627328581,17.792968537714
0.0136660247935704,17.7952090033553
0.0127341935508507,17.7974980461871
0.0118299936303826,17.7998422052231
0.0109550682017276,17.8022481435431
0.0101108575488166,17.8047227808296
0.00929860555741574,17.8072734395598
0.0085122883798613,17.8099328788475
0.00773820294080276,17.8127718612427
0.00698021274356585,17.8158112641197
0.00624220977318862,17.8190760384867
0.00552832439340334,17.8225950929025
0.00484288317047616,17.8264020941531
0.00419034732754027,17.8305364500819
0.00357519686803858,17.8350447580351
0.00300171946626428,17.8399834124005
0.00247373795355828,17.8454231763529
0.00199428198635079,17.8514577480719
0.00157108645964541,17.8581168187235
0.00121522780792682,17.8652688472189
0.000919676041836824,17.8730125613671
0.000677772855068657,17.8814788015288
0.00048340445030991,17.8908383591924
0.000337021516987568,17.9008383591924
0.000235326535598927,17.9108383591924
0.000164765109288972,17.9208383591924
0.000115901604778938,17.9308383591924
8.21619627626919e-05,17.9408383591924
5.89616124156578e-05,17.9508383591924
4.3100815759808e-05,17.9608383591924
3.23451128245847e-05,17.9708383591924
2.51338034724154e-05,17.9808383591924
2.03770566785751e-05,17.9908383591924
1.73144597866756e-05,18.0008383591924
1.54162403430513e-05,18.0108383591924
1.43141841453701e-05,18.0208383591924
1.37532611946409e-05,18.0308383591924
1.3557719441755e-05,18.0408383591924
1.36073041892743e-05,18.0508383591924
1.38873192726508e-05,18.0608383591924
1.47520144503784e-05,18.0708383591924
1.59020853796096e-05,18.0808383591924
1.71982764848462e-05,18.0908383591924
1.86000539008774e-05,18.1008383591924
2.01035711455665e-05,18.1108383591924
2.17104132283603e-05,18.1208383591924
2.34201385057835e-05,18.1308383591924
2.52319013565379e-05,18.1408383591924
2.7146797757155e-05,18.1508383591924
2.91687238883608e-05,18.1608383591924
3.13041915942044e-05,18.1708383591924
3.35618890796661e-05,18.1808383591924
3.59523892838287e-05,18.1908383591924
3.84880750182689e-05,18.2008383591924
4.11832230801535e-05,18.2108383591924
4.40541877508498e-05,18.2208383591924
4.7119656640477e-05,18.2308383591924
5.04009773701463e-05,18.2408383591924
5.39225661035948e-05,18.2508383591924
5.77124145274834e-05,18.2608383591924
6.18027163546864e-05,18.2708383591924
6.6230640610285e-05,18.2808383591924
7.10392878062409e-05,18.2908383591924
7.62788771595004e-05,18.3008383591924
8.20082291909511e-05,18.3108383591924
8.8296629989572e-05,18.3208383591924
9.52261936664855e-05,18.3308383591924
0.000102894881830138,18.3408383591924
0.000111420398939369,18.3508383591924
0.000120945268750687,18.3608383591924
0.000131643523142102,18.3708383591924
0.000143729621508616,18.3808383591924
0.000157470500745258,18.3908383591924
0.000173202088574044,18.4008383591924
0.000191352290804262,18.4108383591925
0.000212473548260632,18.4208383591925
0.000237289838543313,18.4308383591925
0.000266765994285168,18.4408383591925
0.000302212407031561,18.4508383591925
0.00034534805512054,18.460817351269
0.000394587197483634,18.4700786596724
0.000450622659575083,18.4786478791107
0.000514372837331774,18.486574938374
0.000586897060593143,18.493907485419
0.000669399387419852,18.5006900520809
0.000763242632001663,18.5069642159926
0.000869967362499508,18.5127687855085
0.000991314106306334,18.5181399665934
0.0011292492252222,18.5231115102463
0.00128599277333218,18.527714865527
0.0014640528473734,18.5319793343925
0.00166626349649517,18.5359322212803
0.00189583086687839,18.5395989677217
0.00215638705721067,18.5430032881845
0.00245205597878533,18.5461673123628
0.00278753540015792,18.5491117261619
0.00316819811609368,18.5518559119725
0.00360022341257982,18.5544181026276
0.00409077021714226,18.5568155514619
0.00464821049102578,18.5590647251089
0.00528245762820871,18.5611815438758
0.00600048014351639,18.5631691606756
0.00679050567519963,18.5649939206165
0.00766039524240882,18.5666843744313
0.00862167766901004,18.5682682371957
0.00969093751877643,18.5697725939727
0.010894149810975,18.571227336634
0.0123129719505042,18.5727070474782
0.014107865260833,18.5743204002427
0.0168435458529175,18.5764189343514
0.018665028217656,18.5776674238413
0.0205853620379415,18.5789159133312
0.0223404099540669,18.5800385312577
0.0239163492783663,18.5810704541543
0.0253387638316943,18.5820642668756
0.0266054080330968,18.5830574655909
0.0276946752341655,18.5840873476532
0.0285625458556172,18.5852072998395
0.0291149229568418,18.5865315216868
0.0289701254167756,18.5885777388497
0.0282599947493408,18.5899716757214
0.0271753321158386,18.5913656125931
0.0259083316868326,18.5926775180061
0.0244611038709647,18.5940110661035
0.0228414141947834,18.5954140399076
0.0210552790688199,18.5969258127523
0.0194891985899813,18.5982588628479
0.0179783222789034,18.5995919129434
0.0160855942040148,18.6013854128105
0.0139601810243439,18.6036104700225
0.0121656818737382,18.6057174634389
0.0106557557791421,18.6077045065251
0.00937701543236494,18.6095864865295
0.0082849570718438,18.6113793015567
0.00734282256199679,18.6131002890272
0.00651977600683696,18.6147698773847
0.00578878771231025,18.6164150295117
0.00512343194264526,18.6180779050706
0.00448983769885238,18.6198447869017
0.0038004742029729,18.6220273112809
0.00340243892153635,18.6234441951867
0.0030394456330714,18.6248610790925
0.0027388279155238,18.6261424335371
0.00247975706967305,18.6273397654013
0.00224088932507663,18.6285333550703
0.00200777106129091,18.6297954287043
0.00176407702438002,18.6312363404045
0.0014711298572669,18.6331694049521
0.00107838447949865,18.63621382601
0.000768235248118895,18.6391350560613
0.000515880084208135,18.6420088368944
0.000267810417448189,18.645491973689
1.97590994795849e-05,18.6500540788941
-0.000177919542350428,18.6551797793889
-0.000310964988351857,18.6605375797338
-0.000371138229862406,18.6654135218698
-0.000370494892238998,18.6698119467542
-0.000313998073938546,18.6737762485083
-0.000201668312715492,18.6773517785565
-3.47782011321457e-05,18.6805134437768
0.000187894340297926,18.6833248760946
0.000469413754712529,18.6858486848432
0.000816391443667774,18.688153256124
0.00124087872660313,18.6903095074312
0.00176707807318726,18.6924068020396
0.00245966626258115,18.6946168751659
0.00338908273119214,18.6970525863761
0.00415278175039263,18.6988147296114
0.00496593839286161,18.7005768728466
0.00578031557470087,18.7022942363058
0.00670179035392829,18.7042297788335
0.00771473998510242,18.7063573563893
0.00874932757415785,18.7084849339452
0.0096601924851409,18.7102506712458
0.0105805865327694,18.7118810472004
0.0115926607732364,18.7134756281724
0.0127131085440344,18.7150127578576
0.014001052009249,18.7165294292792
0.0154667798911695,18.7179972692807
0.0171491588422284,18.7194239554597
0.0190751499084676,18.7208047613445
0.0212629290470043,18.7221315045561
0.0237419630117669,18.7234054152988
0.0265458444295245,18.7246289160827
0.0297097960106308,18.7258038222116
0.0332733642653973,18.7269323281999
0.0372840084922898,18.7280175584561
0.0417969702475962,18.729062764284
0.0468758038532653,18.7300710504737
0.0525945452042365,18.7310455074113
0.0590396516328109,18.731989182752
0.0663128857293367,18.7329051372235
0.0745344726358215,18.7337964375305
0.0838471576886821,18.7346661736114
0.0944216182992203,18.7355175050093
0.106463337229098,18.736353701262
0.120221466316432,18.7371781864137
0.136000779504274,18.7379946126207
0.154177847318297,18.7388069574951
0.175226047110685,18.7396197595985
0.199761048474378,18.7404387045299
0.228644467257064,18.741272230404
0.26255316582947,18.7421194160296
0.301757484440938,18.7429717848999
0.347411556224808,18.7438441883248
0.401635985733184,18.7447709097246
0.439299843551853,18.7453740983475
0.477680780985776,18.7459772869705
0.512040557630771,18.7465277042571
0.5425323541763,18.747047339273
0.569439865887232,18.7475608056381
0.59251752247595,18.7480911285944
0.610930607260825,18.748670055658
0.622471127018438,18.7493626998535
0.622107810594119,18.7500736648405
0.60893560819057,18.7508276017145
0.584372270553195,18.7515710918293
0.549346381351723,18.7523199330383
0.501088826399761,18.7531286924626
0.436070912934802,18.7540238227739
0.380193839618512,18.7546928246924
0.319055514031757,18.7553618266109
0.267004574091982,18.7559021414423
0.224169667995447,18.7563395782906
0.187404798161155,18.7567184024213
0.154908432416198,18.7570627303567
0.125696735566203,18.7573862545934
0.0991377909176611,18.7576984566427
0.0747381496047071,18.7580076706723
0.051991523735406,18.7583239030347
0.0300739891418479,18.7586658487052
0.00568908796304853,18.7591126486604
-0.00303326036391031,18.759297677407
-0.0109898388165805,18.7594827061536
-0.0175741908896759,18.7596505470928
-0.0238194267285603,18.7598252128685
-0.0301033602796737,18.7600202058346
-0.0361693854695158,18.7602321947828
-0.041855614644228,18.7604592396281
-0.0470711856996703,18.7607006703059
-0.0517683527806913,18.7609566753096
-0.0559257121355073,18.7612280720686
-0.059538179176244,18.7615161978987
-0.0626107854149713,18.761822877111
-0.0651546486149245,18.7621504423043
-0.0671841876705564,18.7625018021519
-0.0687150358282505,18.7628805581944
-0.0697550378942547,18.7632911828434
-0.0703100242271479,18.7637437385882
-0.0703809234878149,18.7642310706831
-0.0699876472576452,18.7647713668909
-0.0691212792275067,18.7653782061907
-0.0677553955779086,18.7660699247171
-0.0658345288984807,18.7668742960518
-0.0632400932463827,18.7678403024205
-0.0596551497314026,18.7690841019222
-0.0554087132765553,18.7705082344495
-0.0512685402223463,18.7718886936833
-0.0472925846949044,18.7732307639717
-0.0435111854846676,18.7745363839076
-0.0399411374331453,18.775806094598
-0.0365915805313346,18.7770397405885
-0.0334664793390758,18.7782368434567
-0.0305658676420424,18.7793968000649
-0.0278866258433089,18.7805189860433
-0.025423075639693,18.781602806121
-0.0231674977273666,18.7826477128462
-0.0211106075893971,18.7836532051799
-0.0192419964787422,18.7846188133341
-0.0175505348679214,18.7855440734386
-0.0159698854817306,18.786461291169
-0.0144480140178813,18.7874020017156
-0.0129894783115554,18.7883677350355
-0.0115982154668663,18.7893605839193
-0.010277970244543,18.7903830040062
-0.00903224110365513,18.7914379053763
-0.00786422756592934,18.7925287704374
-0.00677677519335302,18.793659812602
-0.00577231804000827,18.7948361947882
-0.0048528179709469,18.796064338509
-0.00401969947601309,18.7973523753164
-0.00327377725792259,18.7987108321107
-0.00261517131755547,18.8001537221219
-0.00204319892688478,18.8017003894722
-0.00156904941883972,18.8033284703124
-0.00119499047499703,18.8050031233606
-0.000904654364623184,18.8067426256331
-0.000683436030567994,18.8085681670722
-0.000517618315063191,18.8105080623072
-0.000393956143614811,18.8126024494612
-0.000299049382390381,18.8149131020314
-0.000218131846221447,18.8175474361928
-0.000131623608231608,18.8207368250122
-2.29159261787113e-05,18.8244729442636
0.000112631876653602,18.8284614973042
0.000293837132532587,18.8330963696008
0.00050723132440399,18.8381170813295
0.000761493668783908,18.8439526512223
0.00106927100171193,18.8510959750218
0.00134200047677675,18.8575697907027
0.00161935957963166,18.8644103800654
0.00186947932554752,18.8707562820262
0.00211716612474446,18.8771819706853
0.00231646381524781,18.8823924198149
0.00249009691358526,18.8869484200019
0.00265404136790895,18.8912422971376
0.00281917215795783,18.8955385501552
0.0029986593170171,18.9001526897035
0.00319457766529241,18.9050917316757
0.00339315388863825,18.9099509148309
0.00360251191736429,18.9148556996167
0.0037882319868976,18.9190119510716
0.00396857574190893,18.922887411143
0.00415105136980414,18.9266528250055
0.00434000714446702,18.9303920367635
0.00453887558854718,18.9341586140566
0.00475089422518803,18.9379929344876
0.00497942166508069,18.9419286587811
0.00522817061163374,18.9459964218862
0.00550141644955733,18.9502261492654
0.00580422514889255,18.9546484209842
0.00614276886707369,18.9592956767817
0.00652484858512807,18.9642035650803
0.00694979099329522,18.9692846261275
0.00739789942245984,18.9742515681311
0.0078785392425944,18.9791752883052
0.00839276457271075,18.9840204353447
0.00894614423687464,18.9887915756523
0.00954467499661627,18.9934881357893
0.0101956915017753,18.9981127266385
0.0109141606161452,19.0027078389603
0.0117214667715268,19.0073273667328
0.0126345144002462,19.011970884172
0.0136776516861707,19.0166568580797
0.0148859247377462,19.0214238932906
0.0163192973937249,19.0263652123608
0.0181139660488341,19.0317444336454
0.0205809540729465,19.0381586639998
0.0221915348094531,19.0419794941351
0.0238521863867545,19.0458003242703
0.025308104279015,19.0492077319452
0.0265384685674836,19.0523042119549
0.0275619073905257,19.0552677417458
0.0283349951140575,19.0581000185021
0.0288412125463849,19.0608444314917
0.0290728192938969,19.0636233329889
0.0289856171860865,19.0666130724738
0.0284094569393106,19.0702888404432
0.0275965891078916,19.0732812657763
0.026529074437194,19.0762736911095
0.0254523243148024,19.0788463184412
0.0243822244275879,19.0811793387454
0.0233108740673314,19.083390351388
0.0222387291077513,19.085533928103
0.0211689874405337,19.0876404152053
0.0201053697278135,19.0897295790537
0.019051511425066,19.0918156674663
0.0180108040216542,19.0939097030786
0.0169863573071257,19.0960207001419
0.015980997249125,19.0981563840847
0.0149972801700896,19.1003236407496
0.0140375009329028,19.1025288387441
0.0131037093263095,19.1047780488508
0.0121977197148465,19.1070772250177
0.0113211178204294,19.1094323616885
0.0104752746412474,19.1118496154451
0.00966135343161818,19.114335436419
0.00886437069164795,19.1169510186773
0.00807871747975708,19.1197410227914
0.0073080991227658,19.1227260005621
0.00655636436315592,19.1259300972725
0.00582761237329512,19.1293812731534
0.00512615762857271,19.1331120665609
0.00445648166677076,19.1371604938202
0.00382313124457484,19.1415713559109
0.00323054866334378,19.1463983285553
0.00268280322730701,19.1517078425405
0.00218326301365399,19.1575862554612
0.00173582055449774,19.1641277476755
0.0013580069298274,19.1711400837545
0.00104273680088621,19.1787150878233
0.000785522175289675,19.1869749915517
0.000626571653055829,19.1941704495205
0.000475107678988831,19.2036019262355
0.000365424532586609,19.2134050956504
0.000288667164696129,19.2234050956504
0.000237329327955629,19.2334050956504
0.000204240951196228,19.2434050956504
0.000184204259342036,19.2534050956504
0.000173502238098543,19.2634050956504
0.000169562940923377,19.2734050956504
0.000170663111397476,19.2834050956504
0.00017568096380182,19.2934050956504
0.000183913850010394,19.3034050956504
0.00019495648176233,19.3134050956504
0.000208624695725162,19.3234050956504
0.000224910143070781,19.3334050956504
0.000243956145497501,19.3434050956504
0.000266049674055587,19.3534050956504
0.000291627703467445,19.3634050956504
0.000321298519584652,19.3734050956504
0.000355880749529072,19.3834050956504
0.000396465717569766,19.3934050956504
0.000444513030844063,19.4034050956504
0.000501996326644239,19.4134050956504
0.000571628185831582,19.4234050956504
0.00065704064514519,19.4333864209343
0.000753961383893185,19.4425277490595
0.000863237618520912,19.4508752567273
0.00098616761215837,19.4585046530369
0.00112422878628833,19.4654850494301
0.00127902719901265,19.4718783494418
0.00145229609671778,19.4777406179175
0.00164590232112973,19.483122946377
0.001861820220352,19.4880711392722
0.00210218010855149,19.4926275270391
0.00236923671172764,19.4968303962197
0.00266541303032162,19.5007151517372
0.00299330226072659,19.5043142328279
0.00335572677865359,19.5076578997335
0.00375578562469899,19.5107743619997
0.00419700103757017,19.5136905448482
0.00468347937125389,19.516432468478
0.0052202867111332,19.5190263012366
0.00581404273323033,19.521499565398
0.00647410704905959,19.5238835566227
0.00721510631103245,19.5262181944282
0.00806323618392122,19.5285639619324
0.00907722164926409,19.5310418405353
0.0104776778319133,19.5340815812175
0.0114228866075106,19.5359855086006
0.0123913783073325,19.5378894359837
0.0132591944942673,19.5396193455822
0.014023006115151,19.5412314301221
0.01468464008163,19.5427878987864
0.0152344724844502,19.5443368032049
0.0156523709455888,19.5459275304902
0.0159025522586512,19.5476298855083
0.0159108491563361,19.5495875344498
0.0153938507398406,19.552402432379
0.0147220068924745,19.5543074693284
0.0138422404379043,19.5562125062778
0.012900583541456,19.5579551986697
0.0119014636341769,19.5596473298962
0.0108508951704255,19.5613441078862
0.0100221798584949,19.5626938563351
0.00924428798045818,19.564043604784
0.00793790364344066,19.566544318941
0.00676475063387131,19.5691174667899
0.00572802475419526,19.5717498440262
0.00481404526525629,19.5744650408661
0.00401249458868004,19.577287269968
0.00331643873573581,19.5802418241884
0.00272257129731488,19.5833565733839
0.00223242676015294,19.5866635466705
0.00185516646861558,19.5902008383107
0.00162933702333152,19.5936485238325
0.00155002937757904,19.5967863290064
0.00159411013619656,19.5996962042794
0.0017535847434914,19.6024573042367
0.00203575797188449,19.6051749026592
0.00247874726889455,19.6080429532662
0.00311401543997984,19.6111035514669
0.00381864212137405,19.6138913624027
0.00461330303862401,19.6166791733384
0.00557860795788816,19.6197715107287
0.0063032801799568,19.6218999049389
0.00710239739832288,19.6240282991492
0.00792661319494186,19.6259674624629
0.00881321928484436,19.6277783007369
0.00980395581205617,19.6295128906052
0.0109303141972737,19.6311888460488
0.0122188194805603,19.6328105547874
0.013693133646788,19.6343775561507
0.0153752921288524,19.6358881453802
0.0172875796764793,19.6373415540529
0.019453180261281,19.6387378755153
0.0218985498510973,19.6400788223895
0.0246529474029143,19.6413664787967
0.0277512039275488,19.6426039837631
0.0312329270194281,19.643794426317
0.0351449127168118,19.6449412764467
0.0395415087277475,19.6460479529696
0.0444865914367007,19.6471179370989
0.0500555649031904,19.6481547557115
0.0563377409380721,19.6491619635145
0.0634401750244279,19.6501432597286
0.071492117691539,19.6511025142461
0.0806515786345236,19.6520438841629
0.0911147378278078,19.6529719761618
0.103129302335021,19.6538920388264
0.117015002807149,19.6548102848745
0.133196246184151,19.6557344080441
0.152257668544333,19.6566744832943
0.174871988691945,19.6576377460429
0.20104809680837,19.6586038050583
0.231458117941906,19.6595823685393
0.267000639604062,19.6605874512176
0.309026797650471,19.6616432565481
0.347109631870254,19.6625178508154
0.387314482740606,19.6633924450828
0.422452160016881,19.6641443599629
0.452915243861892,19.664812818298
0.479584479875162,19.6654393256084
0.502633692599689,19.6660506292001
0.521760946026227,19.6666694033611
0.536156717939519,19.6673220549834
0.544071777403268,19.6680511954409
0.542115554860503,19.6688395095731
0.528447328831646,19.6696526255152
0.501636292264042,19.6705081977006
0.45974485051376,19.6714194375837
0.400581488454683,19.6723947015209
0.353521935775241,19.6730459667878
0.301350477601091,19.6736972320548
0.255290910106662,19.6742370245874
0.216209812498077,19.6746836963729
0.182100131539374,19.6750742468615
0.151667005116073,19.6754304106156
0.124149807205463,19.6757651973391
0.0990397868733157,19.6760877837662
0.0759338427555114,19.6764061142414
0.0544273447910698,19.6767292119009
0.0339208311062983,19.6770721213159
0.0126387509336323,19.6774819181946
0.000989527438168509,19.6777405610182
-0.00647266317653869,19.67792409007
-0.0132966455232732,19.6781076191218
-0.0192370586862323,19.6782826353515
-0.0253135615856332,19.6784801851743
-0.031257848711978,19.6786967312654
-0.0368768143388216,19.6789294979186
-0.0420614055626904,19.6791773117339
-0.0467533143389975,19.6794400586681
-0.0509246419854094,19.679718358674
-0.0545660439415344,19.680013402672
-0.0576727652794974,19.6803268873713
-0.0602531331767448,19.6806621378715
-0.0622884720385959,19.6810165836711
-0.0638276607978745,19.6813974648299
-0.0648854430960963,19.681808969191
-0.0654746260770998,19.6822562488247
-0.0656047609622964,19.6827457970421
-0.0652801827179667,19.6832859574287
-0.0644958701645517,19.6838886382418
-0.0632324578939274,19.6845700068645
-0.0614490764464992,19.6853532313325
-0.0590623859333567,19.6862762255778
-0.0558794222724096,19.6874152233587
-0.0517384508854729,19.6888387964815
-0.04770246770979,19.6902119007019
-0.043831965635506,19.6915430965258
-0.0401587206424027,19.6928354785392
-0.036699264212715,19.6940902657449
-0.0334617591494172,19.6953077299142
-0.0304489267376506,19.6964876801135
-0.0276595179921214,19.6976297180916
-0.0250892148029412,19.698733371601
-0.022731293122397,19.6997981602873
-0.0205771755052769,19.7008236223013
-0.0186169196324648,19.7018093165854
-0.0168396569736548,19.7027548090316
-0.0152315651788809,19.7036610514733
-0.0136798668471268,19.7045902484393
-0.0121897191772228,19.7055435202621
-0.0107651372061116,19.7065228110583
-0.00940997031020467,19.7075303883386
-0.00812784541079333,19.7085689262769
-0.00692211590692598,19.7096416082549
-0.00579580810548136,19.7107522634845
-0.00475156520777629,19.7119055528887
-0.00379158849507361,19.7131072283751
-0.00291757477384759,19.7143645052563
-0.00213064813091636,19.715686616305
-0.00143128219626498,19.7170856720355
-0.000819205441827998,19.7185780696484
-0.000293274037487176,19.7201869645781
0.000124549326417776,19.7218364704794
0.000451068112508164,19.7235421601987
0.000701512027524249,19.7253228006908
0.000890053410387064,19.7272028276319
0.00103019156300853,19.7292157920544
0.001135277931381,19.7314111222139
0.00121940218562981,19.733869218585
0.00129945312845794,19.7367432921684
0.0014029685561536,19.740434776869
0.00152760954468469,19.7442434522366
0.00168824435541171,19.7483808839464
0.00185945649987758,19.752282467247
0.00203840354249852,19.7560801334478
0.00222320863647156,19.7598556607977
0.00241303387532866,19.7636622655593
0.0026080925808927,19.7675401556598
0.00280947892180706,19.7715233094095
0.00301897590881185,19.7756429228981
0.00323889252332723,19.7799295665117
0.00347195090259508,19.7844146909076
0.00372126926876927,19.7891320135463
0.00399049642811499,19.7941189515883
0.00428415883853561,19.7994179118883
0.00460830282067037,19.8050775702927
0.00493598713805342,19.8105658251457
0.00527534852691629,19.8159834532025
0.00562635119222763,19.8212828179264
0.00599332862541073,19.8264856841539
0.00637995482176751,19.8315996234498
0.00679043435713248,19.8366359675598
0.00722903517619974,19.8416019839978
0.0077002865633429,19.8465026177897
0.00820905131516283,19.8513403908085
0.00876066107784809,19.8561159943714
0.00936102160290618,19.8608285488674
0.010016715476719,19.8654759405917
0.010739025665432,19.8700790626617
0.011551666422364,19.8747109355083
0.0124701773723282,19.879365116877
0.0135183530876093,19.8840595612735
0.014730500666964,19.8888317465249
0.0161654544261035,19.8937729168644
0.0179559859975191,19.8991391281679
0.020432272645118,19.905577652335
0.0220540141339403,19.9094212660104
0.0237282327670055,19.9132648796858
0.0251949204963001,19.9166849244165
0.0264344796250593,19.9197872658491
0.0274671068914543,19.9227524580133
0.0282517743337267,19.9255905222562
0.0287693300125315,19.9283371459357
0.0290129088819615,19.9311138953414
0.0289402451649102,19.9340937291612
0.0283905802462904,19.9377292318335
0.0275847784296162,19.9407533370588
0.0265169685604586,19.9437774422841
0.0254409560515663,19.9463644099329
0.0243722907576748,19.9487047644981
0.0233022109020695,19.9509207222192
0.0222309516792805,19.9530682297878
0.0211617004510939,19.9551781781715
0.0200981862344838,19.957270638672
0.0190440537170405,19.9593600706167
0.0180026988175039,19.9614576741948
0.0169772320441675,19.9635726311966
0.015970477609229,19.9657128388384
0.0149849861257551,19.967885375012
0.0140230479520608,19.9700968208123
0.0130867045607497,19.972353502353
0.0121777649109313,19.9746616684896
0.0112978098218213,19.9770276670048
0.0104482054954718,19.9794580840761
0.00963011648033993,19.9819598782261
0.00883362209886327,19.9845776944565
0.00804835450462432,19.9873703476344
0.00727807291053973,19.9903582256359
0.00652661647263353,19.9935655116086
0.00584561181718433,19.9967827558043
0.00523170852113498,20
