ecg,time
0.00045180843866244,15.0060744183789
0.00034511115163315,15.0160744183789
0.000271696417027077,15.0260744183789
0.000221929295222579,15.0360744183789
0.000188767896155041,15.0460744183789
0.000167168882959818,15.0560744183789
0.00015362920052085,15.0660744183789
0.000145767166725322,15.0760744183789
0.000141976994117432,15.0860744183789
0.000141177643113261,15.0960744183789
0.000142644891612658,15.1060744183789
0.000145902605621698,15.1160744183789
0.000150651780457683,15.1260744183789
0.000156723279288575,15.1360744183789
0.000164046265981822,15.1460744183789
0.000172627878037442,15.1560744183789
0.000182541491444575,15.1660744183789
0.00019392193441023,15.1760744183789
0.000206966757852391,15.1860744183789
0.000221943389436329,15.1960744183789
0.000239202780644593,15.2060744183789
0.000259201105879367,15.2160744183789
0.000282532366758597,15.2260744183789
0.000309976703372829,15.2360744183789
0.000342572362507782,15.2460744183789
0.000381724620230764,15.2560744183789
0.000429374422137941,15.2660744183789
0.000485470699153689,15.2756401482825
0.000549471538404812,15.2844803307685
0.000622330127456476,15.2926384345904
0.000705236810917578,15.3001671767885
0.000799561568204543,15.3071159685239
0.00090686098321923,15.3135307092624
0.00102889829092756,15.319454037974
0.00116766952015592,15.3249255706542
0.00132543472636192,15.3299821100083
0.00150475284020789,15.3346578458012
0.00170852357140187,15.3389845499736
0.00194003590745175,15.3429917654124
0.00220302786620103,15.3467069832725
0.00250175795852992,15.3501558188957
0.00284109626461059,15.3533621945149
0.00322664021253334,15.3563485295002
0.00366486578827648,15.3591359426914
0.00416333253979649,15.3617444843892
0.00473096902630047,15.3641934169586
0.00537848700991341,15.3665015755888
0.0061071527873132,15.3686558983204
0.00691233941565973,15.3706442506109
0.00780489953290654,15.3725007038178
0.00880123967307816,15.3742596723427
0.00992756733115009,15.3759592773506
0.0112322312515667,15.3776520620557
0.0128863079967974,15.3795001204024
0.0154216395771786,15.3819196461139
0.0170029021362667,15.3832765026675
0.0186551555564631,15.3846333592212
0.0201592232960957,15.3858596566263
0.0215069634525634,15.3869952699541
0.022713672858946,15.3880928908608
0.0237726905438871,15.3891917984863
0.0246603767179114,15.3903324774224
0.0253308871628316,15.3915743532825
0.0256845462598889,15.3930484938353
0.0253092203916777,15.3953127049134
0.0245410674474906,15.3967857127954
0.0234615675546612,15.3982587206774
0.0222355901966504,15.3996506159565
0.0208651010724501,15.4010572482413
0.0193591937240002,15.4025241556501
0.0177257506856038,15.4040886566962
0.0171317588599492,15.404659727463
0.0165465205651837,15.4052307982298
0.0152104839384404,15.4065928546084
0.0127334216134326,15.4093861390011
0.0104960206745291,15.4123175714289
0.00874164325195305,15.4150075241172
0.00733731893026876,15.4175131684412
0.00612797406770814,15.4200205988688
0.00506807556499559,15.4225859325641
0.00413661317553481,15.4252337782583
0.00336102121289984,15.4278281827313
0.00273188376093411,15.430290463006
0.00221204827303976,15.4326517046742
0.0017724923964326,15.4349542517799
0.0013896553857083,15.4372583832065
0.00104095574106365,15.4396711867954
0.000689382483544018,15.4425000932141
0.000461223323336466,15.4446096894438
0.000257706592579742,15.4467192856735
9.68803729343714e-05,15.4485688836254
-3.69153795549693e-05,15.450251715308
-0.000157675562643877,15.4518995732151
-0.000273614475728646,15.4536122323089
-0.00039266230293396,15.4555213458823
-0.000530124579853382,15.4579419083332
-0.000749217877744369,15.4623656529789
-0.000915827759980231,15.4663007671975
-0.00104230971417647,15.4696974861072
-0.00116424362145071,15.4733871056853
-0.0012994246433542,15.4781151553757
-0.0014262050851631,15.483635799256
-0.001500294584748,15.4884572950248
-0.00152294302232427,15.4928246226908
-0.00148766412876371,15.4967507984875
-0.00138787638940671,15.5002896127852
-0.00121707670026065,15.5034919766362
-0.000968117001453096,15.5064189639816
-0.000631627616802085,15.5091353264954
-0.000193557573488325,15.511708930101
0.000369702527629798,15.5142176427359
0.00109923308438279,15.5167561612671
0.00209549585271621,15.5195202223096
0.00344771396131642,15.5225673636048
0.00515150822340778,15.5257620732937
0.00646826323054474,15.5279073291997
0.00794755727396409,15.5300525851057
0.00942348462339215,15.5319470355573
0.0109769200959846,15.5337073999024
0.0125945666158448,15.5353181144327
0.0143655790533407,15.536860605824
0.0163164642519202,15.5383387433919
0.0184731875726409,15.5397546849946
0.0208784917725258,15.54111919608
0.0235580400589132,15.5424301573505
0.026555363966279,15.5436935554337
0.0299093904510999,15.5449108522622
0.033663471158382,15.5460838829337
0.0378734567702525,15.5472166169493
0.0426002972325082,15.5483120127303
0.0479152560158091,15.5493732292254
0.0539012917783697,15.550403429014
0.060661301239974,15.5514066217823
0.0683172474583627,15.5523866835384
0.0770181531261,15.5533478287734
0.0869490414174999,15.55429476065
0.0983433013215733,15.5552328321235
0.111504688697143,15.5561685583959
0.126838487341348,15.5571100522018
0.14490860042621,15.5580680971005
0.16636444213408,15.5590504584598
0.191212774311034,15.5600361276805
0.220108123188493,15.561035595713
0.253931788195516,15.5620638933256
0.294003512471519,15.5631461846795
0.340504887364845,15.5642834480544
0.380699848321733,15.5652108433963
0.414214588104257,15.5659765305506
0.443289504887331,15.566662373739
0.468686429238486,15.5673086163934
0.490464264240921,15.5679405823038
0.508252725602724,15.5685804028494
0.521183550564225,15.5692539354479
0.52745377938199,15.5700017884365
0.523860046667019,15.5708070759985
0.508682551060703,15.571635146719
0.480512146820501,15.5725019024864
0.43754230557542,15.5734187396615
0.377797186522966,15.5743941470672
0.333906257002567,15.575002618311
0.285841102282693,15.5756110895549
0.242990621104188,15.5761248120879
0.206083633354945,15.5765585612453
0.17355609019766,15.576942835911
0.144367228688385,15.5772962492065
0.11787638983262,15.577630494541
0.0936353153719075,15.5779542119227
0.0712709308951183,15.5782752698414
0.0503825138669163,15.5786031892941
0.0303131798051143,15.5789552598499
0.00870626661651956,15.5793958974688
-0.000367269343146329,15.5796089322193
-0.00858660670773568,15.5798219669699
-0.0150483810277068,15.5800065461097
-0.0210273149223882,15.5801943588538
-0.0270155145571871,15.5804033544192
-0.032775438360244,15.5806300951455
-0.0381569631616593,15.5808725451103
-0.0430772589970039,15.5811300298432
-0.0474936939057416,15.5814027814331
-0.0513878504265829,15.5816916876073
-0.0547996383597726,15.5820035239224
-0.0575925262743566,15.5823269519964
-0.0598708360907457,15.582672003407
-0.0616491316359168,15.5830417796907
-0.0629418022118443,15.5834399767547
-0.0637624664306595,15.583871163705
-0.0641224448133091,15.584341046423
-0.0640290580557,15.5848568619009
-0.063483256016787,15.5854281470477
-0.062473923294063,15.586068900067
-0.0609742217874974,15.586797526554
-0.0589296805578237,15.5876420972549
-0.0562261842306848,15.5886517317673
-0.0525643717770478,15.5899411020207
-0.0485064859792311,15.591334987602
-0.0445860183883192,15.5926835720748
-0.0408500180105617,15.5939913235196
-0.0373213115363386,15.5952604668454
-0.0340114493507685,15.5964918132283
-0.0309252729397135,15.5976854582109
-0.0280630086896065,15.5988411537914
-0.0254214281869588,15.5999585041425
-0.0229946274512829,15.6010370660663
-0.0207746371585985,15.6020763956587
-0.0187519446531726,15.603076062836
-0.0169159567379756,15.6040356454047
-0.0152554112563938,15.6049547090909
-0.0136872519868135,15.6058760655584
-0.0121790235198152,15.6068210724017
-0.0107351055729534,15.6077914008951
-0.00935941440988721,15.6087892024019
-0.00805566323160061,15.6098170044477
-0.00682730980243278,15.610877805725
-0.00567750406266204,15.6119751998389
-0.00460903337262435,15.6131135423974
-0.00362426523946637,15.6142981820064
-0.00272508688753819,15.615535788594
-0.00191284024661451,15.61683483573
-0.00118824951592232,15.618206338015
-0.000551335768426004,15.6196650354599
-1.30740162974431e-06,15.6212314190876
0.000447116542451672,15.622866319826
0.000798340607557727,15.624550839044
0.00106833438102186,15.6263033475123
0.0012715600589208,15.6281460216427
0.00142166017922471,15.6301087384625
0.00153191012017093,15.6322343552957
0.00161592292508604,15.6345899437375
0.00168909221650453,15.6372953064487
0.00177305331344524,15.6406227442242
0.00188119475825079,15.6443727148087
0.00202398156867431,15.6484438148616
0.00218450993234965,15.6523651203628
0.00235636475273221,15.656175370366
0.00253682287085685,15.6599581616661
0.00272435482053171,15.6637684831147
0.00291867360783578,15.6676474568208
0.00312057509087386,15.6716295753933
0.00333172933257485,15.6757463382792
0.00355449509518956,15.6800284801374
0.00379178570448078,15.6845075241337
0.00404703397859272,15.6892171701225
0.00432432018208258,15.6941947464551
0.00462872815237519,15.699482478874
0.00496184155151905,15.7050430347355
0.00529966934756101,15.7104202265289
0.00565222264086731,15.7157407401355
0.00601909275155194,15.7209517212919
0.00640491195958645,15.726075293645
0.00681350631898479,15.7311165884906
0.00724939793161613,15.7360852944368
0.00771725222911048,15.7409871721633
0.00822209341078847,15.7458259230654
0.00876935522279325,15.7506028897309
0.00936500821861063,15.7553176175167
0.0100156724083445,15.7599682818642
0.0107323481376792,15.7645743358099
0.0115387956118386,15.7692103924609
0.012450385360635,15.7738696553212
0.0134907007687742,15.7785699732443
0.0146936015675026,15.7833481663295
0.0161168540847676,15.7882936847284
0.0178895632548027,15.7936559076446
0.0203555097557367,15.8001242731244
0.0219782558269294,15.8039998054378
0.0236553247525592,15.8078753377512
0.025122579991449,15.8113159845633
0.0263618186636177,15.8144321748005
0.0273942800099013,15.8174075692439
0.0281807871285377,15.8202585078636
0.0287002409366726,15.8230153646747
0.0289461390185299,15.8257997846525
0.0288770953810197,15.8287835880581
0.0283366803443231,15.832409294307
0.0275309437410566,15.8354601898354
0.0264594509853829,15.8385110853638
0.0253811931641958,15.8411139018652
0.0243112244072681,15.8434657064831
0.0232401876788371,15.8456915614433
0.0221681578636666,15.8478482894821
0.0210982768100975,15.8499671490507
0.020034258685199,15.8520684156716
0.0189797442298925,15.8541666834576
0.0179381309492376,15.8562732509241
0.0169125335661759,15.8583973782446
0.015905782055796,15.8605470289893
0.014920433990949,15.8627293392678
0.0139587863756591,15.864950945441
0.0130228880535064,15.8672182247954
0.0121145546848072,15.8695374770459
0.0112353728771483,15.8719151018502
0.0103867153442059,15.8743577339232
0.00956975004116688,15.876872387723
0.00877609968914348,15.879498734112
0.007993860933695,15.8823004503001
0.0072268078782403,15.8852978775333
0.00647876890297541,15.8885152187046
0.00575381589430908,15.8919804865463
0.00505623052780979,15.8957262444876
0.00439045259121709,15.899790497022
0.00376098057737241,15.9042179404501
0.00317219558293663,15.90906203093
0.0026280960769608,15.9143887488256
0.00213197539312014,15.9202835170711
0.00168654428223868,15.9268566875107
0.0013101630121127,15.9339056813107
0.0010046783197217,15.941523211948
0.000758319449361662,15.9502205029213
0.000594411192631437,15.9582031908871
0.000450717859651458,15.9677039795709
0.000344335449364561,15.9777039795709
0.000271144503239717,15.9877039795709
0.000221534598510788,15.9977039795709
0.000188482194170048,16.0077039795709
0.000166958325671965,16.0177039795709
0.000153470654802696,16.0277039795709
0.000145645027352084,16.0377039795709
0.000141880758501079,16.0477039795709
0.000141100248973901,16.0577039795709
0.000142581633893325,16.0677039795709
0.000145850432012836,16.0777039795709
0.00015060882185526,16.0877039795709
0.000156688530436373,16.0977039795709
0.000164019369254023,16.1077039795709
0.000172608982697176,16.1177039795709
0.000182531170446797,16.1277039795709
0.000193921146907614,16.1377039795709
0.000206976850606013,16.1477039795709
0.000221966135155592,16.1577039795709
0.000239240456304861,16.1677039795709
0.000259256619948352,16.1777039795709
0.000282609452163012,16.1877039795709
0.000310080204917759,16.1977039795709
0.000342708666750605,16.2077039795709
0.000381902308839016,16.2177039795709
0.000429605288834529,16.2277039795709
0.000485748529654903,16.2372666864517
0.000549801701214001,16.24610392701
0.000622719432515918,16.254259283825
0.000705693093536503,16.26178546942
0.000800093725585025,16.2687318858088
0.000907479083710209,16.2751444233029
0.00102961372404499,16.2810657119618
0.00116849517501343,16.2865353591584
0.00132638520140511,16.2915901592796
0.00150584467955411,16.2962642941627
0.00170977555538667,16.3005895282916
0.00194146939196872,16.3045953976218
0.00220466720222815,16.3083093869276
0.00250363101339097,16.311757105809
0.00284323507851935,16.314962471518
0.00322908186262065,16.3179478993333
0.00366765353190183,16.3207345050918
0.00416651739517887,16.3233423375135
0.00473461203689913,16.3257906593124
0.00538266261760824,16.3280983088041
0.00611177738021098,16.3302517872676
0.0069174724491358,16.332239497032
0.00781063284869537,16.3340955192172
0.00880771480978985,16.3358542861874
0.00993502743739069,16.3375539858386
0.0112411748803212,16.3392473621675
0.012898754485907,16.3410978497368
0.0154419916804926,16.3435229281383
0.0170215147141654,16.3448776109736
0.0186711262607323,16.3462322938089
0.0201727863376351,16.3474572221766
0.0215185568559198,16.3485922783323
0.0227233506424521,16.3496898483317
0.0237802852748013,16.3507891435601
0.0246655168259745,16.3519307517665
0.0253328462503119,16.3531744997596
0.0256814655251352,16.3546531208918
0.0252921517029919,16.3569293642687
0.0245178414884147,16.3584001428259
0.0234350235160724,16.359870921383
0.0222062168223416,16.3612626890817
0.020833142833968,16.3626702225793
0.0193248872480089,16.3641387350951
0.0176892463623216,16.3657055706896
0.0170832104375495,16.3662885563325
0.0164870162872865,16.3668715419754
0.0141020143148566,16.3693766872487
0.0115482073309496,16.3724627581431
0.00955762594049653,16.3752867782998
0.00799494887483476,16.377875534777
0.00670115248903668,16.3803668329049
0.00557104584364798,16.382900322813
0.00457881306666296,16.3855048379007
0.00371679487348686,16.3881684435712
0.00302235395160961,16.3906893980291
0.00245389458851092,16.3930931323631
0.00197857944078874,16.3954173678299
0.00157080681703159,16.3977115257105
0.00120813746131547,16.4000550769874
0.000864069655007238,16.4026212433841
0.000575189733636801,16.4051093921857
0.000372573210118656,16.4070840578943
0.000190243206334537,16.4090587236028
4.30957765133142e-05,16.4108138876139
-8.42979406301188e-05,16.4124686904019
-0.000202471283633236,16.4141317674106
-0.000318962653607794,16.4159077268698
-0.000443313370439465,16.4179730230434
-0.000603863954504201,16.4209377699202
-0.000780071022392945,16.4246491208186
-0.000910089578570234,16.4277563655599
-0.00102425076305907,16.4307937938481
-0.00114121113215278,16.4342674903966
-0.0012709258232183,16.4386752364524
-0.00140730772460307,16.4443520374308
-0.001488805909983,16.449243564276
-0.00151986187344362,16.4536855635334
-0.00149398232545446,16.4576781165148
-0.00140469485231593,16.4612741867384
-0.00124550850893019,16.4645250946754
-0.00100933556847089,16.4674922638824
-0.000687462327668386,16.4702373904471
-0.000267142700500121,16.4728265006499
0.000272892911532088,16.4753351608189
0.000971771052845769,16.4778613954233
0.00191201734963121,16.4805648094664
0.00321135490244237,16.483588732037
0.00485839169313389,16.4867650567231
0.00620558215316582,16.4890144059524
0.00772509489609239,16.4912637551817
0.00924075993427533,16.4932441739624
0.0107590613911776,16.4949942675093
0.0123839794538183,16.4966412298242
0.014130460382769,16.498189207502
0.016054867518672,16.4996739144921
0.0181835472785266,16.5010974768581
0.0205551980629013,16.5024682409047
0.0231986364611023,16.5037860679711
0.026154842887436,16.5050558119667
0.0294596228876862,16.5062780752547
0.0331608099097036,16.50745662805
0.0373107532117826,16.5085944481113
0.0419691536444104,16.509694465623
0.0472036221307604,16.5107594048933
0.0530994878792048,16.5117932734588
0.0597555442216886,16.5127996648137
0.0672907312966535,16.513782409189
0.0758501956916416,16.5147456718892
0.0856132966604005,16.5156940399989
0.0968066748490114,16.5166328086257
0.10972384895729,16.5175683350117
0.124754454990749,16.5185084636709
0.142437447689892,16.5194635428365
0.163507790768388,16.5204460061006
0.187899680475859,16.5214306457162
0.216245919565354,16.5224275398211
0.24939217702375,16.523450967947
0.288579809961555,16.5245241795855
0.334482048000482,16.5256587268028
0.375785500730157,16.5266160485322
0.410037044916584,16.5273973554173
0.439650487126477,16.5280909484933
0.465535886132229,16.5287407785479
0.487820751477846,16.5293732658588
0.506191269442707,16.5300105638614
0.5198606663362,16.5306775800582
0.527203755455453,16.5314118208931
0.525093735778082,16.5322153251819
0.511551789341083,16.5330392376179
0.485231980047041,16.5338999716832
0.444369346933665,16.5348095491535
0.386998085701001,16.535776463265
0.342269639272319,16.5364103154856
0.292815606906692,16.5370441677061
0.248810897614641,16.5375746018363
0.211126655069669,16.5380179118501
0.178038701645387,16.5384079456179
0.148410578533234,16.5387649673752
0.121558137115154,16.5391013863208
0.0970136967362666,16.5394261249651
0.0743989891825098,16.5397470379283
0.053325556079547,16.5400731913051
0.0332028965131867,16.5404199495341
0.0122261225378,16.5408365491253
0.0011854412341172,16.5410891042052
-0.00618966794318561,16.5412756569673
-0.0129305598674291,16.5414622097294
-0.0188125036912694,16.5416406511036
-0.0248264013554692,16.5418421638879
-0.0306930080644384,16.5420626695535
-0.036226925974133,16.5422994468086
-0.0413243197327753,16.5425513821161
-0.0459300709368171,16.5428184118341
-0.0500181898881297,16.5431012011806
-0.0535763702469112,16.5434009851253
-0.0567090247848759,16.5437329179655
-0.0591617898206167,16.5440704794395
-0.0611081084863465,16.5444314815993
-0.0625639025112601,16.5448195616587
-0.0635432353540833,16.5452389702291
-0.0640583849424735,16.545694991747
-0.0641182403872766,16.5461942890938
-0.0637263308776428,16.5467454303061
-0.0628761642503601,16.5473608904726
-0.061546983948291,16.5480571927874
-0.0596957630983592,16.5488583944931
-0.0572348034805824,16.5498042751252
-0.0539576082804299,16.5509766451497
-0.049867149603637,16.5523891620574
-0.0458927419423302,16.553752440144
-0.0420910303314069,16.5550736030381
-0.0384905589144965,16.5563556219265
-0.0351059492508896,16.5575996822211
-0.0319439917371685,16.5588060648964
-0.0290063080085002,16.5599746081529
-0.0262907345582541,16.5611049504057
-0.023792195584045,16.5621966566165
-0.021503356717588,16.563249279866
-0.01941517165416,16.5642623849918
-0.0175173633385973,16.5652355486073
-0.0157988524256906,16.566168343348
-0.01421164403891,16.5670819571312
-0.0126826160331179,16.5680188485348
-0.0112165410234121,16.5689804065561
-0.00981739092997762,16.5699686738885
-0.00848895373661327,16.5709860413639
-0.0072347791229003,16.572035336553
-0.0060581268960156,16.5731199361037
-0.00496191302837232,16.5742439163607
-0.0039486532756799,16.5754122598495
-0.00302040392406477,16.5766311458756
-0.00217869855274142,16.577908372412
-0.00142447854728997,16.5792539918937
-0.000758012953600853,16.5806813142837
-0.000178798904171995,16.5822085835206
0.00030642378902472,16.5838308485235
0.000688447086613667,16.5854965429075
0.000984128207938391,16.5872239778702
0.00120828196908772,16.5890334214664
0.00137478431078938,16.5909517394402
0.00149697270817494,16.5930165740427
0.00158823976773172,16.5952849316875
0.00166312452757363,16.5978534816728
0.0017401873252677,16.6009207303608
0.00184178016223632,16.6046540158384
0.00197076526898239,16.6085715634282
0.002126528185193,16.6125562346719
0.00229486246813211,16.6163934069828
0.00247259849051991,16.6201784453607
0.00265777869433943,16.6239741319576
0.00284970260926289,16.6278252780583
0.00304881779814292,16.6317681315326
0.00325651693339618,16.6358349291707
0.00347493980582074,16.6400564691551
0.00370681837325014,16.6444638522733
0.00395539981555581,16.6490898596592
0.00422451223941196,16.6539704154129
0.00451883095463025,16.6591458979799
0.00484444164033528,16.6646624665479
0.00517949057646442,16.6700888790019
0.0055270367686124,16.6754375625346
0.00588834603415561,16.6806841325734
0.00626710326756732,16.6858380283883
0.00666719389622983,16.6909068990369
0.00709299008439229,16.6959003099704
0.0075490758333205,16.7008250838214
0.00804034774244222,16.7056857359672
0.00857207972514417,16.7104843573986
0.00915004122197805,16.7152210824914
0.00978061009479278,16.7198945041519
0.0104708976352914,16.7245022447932
0.011244436887042,16.729130035719
0.0121167310238102,16.7337795247595
0.0131086761256319,16.7384627386204
0.0142495465404393,16.7432070938076
0.0155861625451857,16.7480777376369
0.0172116888485231,16.753243358719
0.0194173913167709,16.7593180506953
0.0211815220453874,16.7636726041798
0.0230483606022744,16.7680271576642
0.0246265103542547,16.7716857793326
0.0259440648428692,16.7748955893326
0.0270500807335615,16.7779044003987
0.0279336101554019,16.7808174776504
0.0285472001299025,16.7835949815847
0.02889217004002,16.7863542046424
0.0289428988360857,16.789240405445
0.0286057885952491,16.7925405866409
0.0278405293013957,16.7959638163545
0.026970954513499,16.7986883582452
0.0259158517977066,16.801412900136
0.0248467698012578,16.803860155234
0.0237768784153835,16.8061387673535
0.0227050504036448,16.8083251390309
0.0216336320200202,16.8104599385199
0.0205662042848547,16.8125679264482
0.0195064819019555,16.814666129108
0.0184579939639241,16.8167672890528
0.0174239982032322,16.8188815712679
0.0164074659613499,16.8210175174937
0.0154110901161416,16.8231826294769
0.0144372957744288,16.8253837614243
0.013488255276528,16.8276273926649
0.0125658996341387,16.8299198405202
0.0116719270742887,16.8322674404449
0.0108078190067256,16.834676684481
0.0099748424897285,16.8371543853606
0.00917406839401313,16.8397077979348
0.00838559477767122,16.842419080089
0.00761044208475528,16.845315268672
0.00685234635449912,16.848418762741
0.00611525942643839,16.8517555783226
0.00540336312606163,16.8553558872964
0.00472102719349992,16.8592548259957
0.00407273473246996,16.8634935473883
0.00346295491597047,16.8681207577773
0.00289591816814983,16.8731955012651
0.00237531131872704,16.8787923037854
0.00190398175014404,16.8850101050242
0.00149345036315241,16.8918057827846
0.00122675614709478,16.8972890589323
0.00101525744477149,16.90277233508
0.000799728365113846,16.9101455007366
0.000615871192281172,16.9186070609981
0.000468602523899103,16.9278994421444
0.000356616961210972,16.9378994421444
0.000279525511234667,16.9478994421444
0.000227195867739952,16.9578994421444
0.000192247036183361,16.9678994421444
0.000169397993960267,16.9778994421444
0.000154978452934007,16.9878994421444
0.000146489979224115,16.9978994421444
0.000142245900988945,17.0078994421444
0.000141109199372853,17.0178994421444
0.000142316655634079,17.0278994421444
0.000145364615815913,17.0378994421444
0.000149934287877881,17.0478994421444
0.000155841920363401,17.0578994421444
0.000163005441072553,17.0678994421444
0.000171422824346626,17.0778994421444
0.000181159356753167,17.0878994421444
0.000192342029368393,17.0978994421444
0.000205160060953946,17.1078994421444
0.00021987128185076,17.1178994421444
0.000236814881749569,17.1278994421444
0.000256431944922827,17.1378994421444
0.000279296431713291,17.1478994421444
0.000306161104716345,17.1578994421444
0.000338025848259636,17.1678994421444
0.000376240812350974,17.1778994421444
0.000422665587189262,17.1878994421444
0.000477803901932611,17.1975609517425
0.000540745529080568,17.2064932771781
0.000612405284933054,17.21473649382
0.000693950097709866,17.2223436843712
0.000786726938167443,17.2293647344499
0.000892267515546029,17.2358459859378
0.0010123071915963,17.2418304870383
0.00114881048010501,17.2473582336207
0.00130400165102299,17.2524663818859
0.00148039913521562,17.2571894492903
0.001680856300124,17.2615595103633
0.00190860911430696,17.265606386677
0.00216733430488993,17.2693578255126
0.00246121889425247,17.2728396752462
0.00279504873330092,17.2760760670304
0.00317432031071781,17.27908960423
0.00360538682930873,17.2819015623202
0.00409565504384253,17.2845321161085
0.00465385812974852,17.2870006129204
0.00529044976736905,17.2893259202487
0.0060099403229367,17.2915041077918
0.00680485939344097,17.2935119231127
0.0076854905144191,17.2953834424061
0.00866740440937482,17.2971530067478
0.00977513175264689,17.2988578807892
0.0110529113655857,17.3005476952393
0.0126462172152057,17.3023623832792
0.0150521307587533,17.3047035966627
0.0166559701953165,17.3060998147552
0.0183454398839995,17.3074960328477
0.019884965945613,17.3087492877469
0.021260443743572,17.3098975846199
0.0224937867289602,17.3109992727703
0.0235820593075746,17.3120951129121
0.0245048594366093,17.3132242718509
0.0252216868861287,17.3144404912689
0.0256487803852998,17.3158520718242
0.0254850874150359,17.3179053965569
0.0248200423726783,17.3194302003453
0.0237909027823244,17.3209550041336
0.0226095683812901,17.3223554708994
0.0212814290882841,17.323751871581
0.0198149239869581,17.3251970207173
0.0182190434798976,17.3267285000922
0.0172065526563677,17.3276999884843
0.0162172046980245,17.3286714768765
0.0148813715199158,17.3300551919779
0.0123887413831064,17.3329215430034
0.0102261785964937,17.3358183958215
0.00852862804406712,17.3384775920505
0.00716393465726326,17.3409632450612
0.00597654444423803,17.3434764204421
0.00493509985887857,17.346051552996
0.00401968280105562,17.3487123277396
0.00326708372283172,17.3512860408291
0.00265518754160691,17.3537312739738
0.00214799027608391,17.3560811761065
0.00171751230820492,17.3583796271299
0.00134062422136665,17.360691169629
0.000994131122609048,17.3631361916814
0.00063383312672518,17.3661051142155
0.000421465534809228,17.3681172622458
0.000230906115197626,17.3701294102762
7.61582529203149e-05,17.371934549493
-5.49533035418631e-05,17.3736040044904
-0.000174585991613852,17.3752556006615
-0.00029058065660186,17.376989441156
-0.000411319684772382,17.3789509393229
-0.000555526323547985,17.3815331670463
-0.000768533764489647,17.3859121507594
-0.0009247917640647,17.3896492258547
-0.00104755066183956,17.3929699334571
-0.00116895111992328,17.3966658811233
-0.00130463402324838,17.4014494907314
-0.00142898559934602,17.4069341602231
-0.00150096972891512,17.4117360559581
-0.00152124327188154,17.4160833853567
-0.00148333161351712,17.4199922290925
-0.00138065685942843,17.4235156188815
-0.00120667453960795,17.4267057224432
-0.000954289276353582,17.429622061604
-0.00061398858153287,17.4323303467454
-0.000171446262760775,17.4348988402438
0.000396967125698174,17.4374040377842
0.00113288836318075,17.4399415579849
0.00214267968465988,17.4427199806669
0.00350769800644117,17.4457731570913
0.00522478756267684,17.4489719552832
0.00654621246371148,17.4511114235842
0.00803088210131541,17.4532508918851
0.00950174068501455,17.4551268140066
0.0110501587083507,17.4568706486945
0.0126838171433655,17.458486860992
0.0144605978539624,17.4600234683113
0.0164230055579288,17.46149951957
0.0185912860359802,17.4629123452956
0.0210097994112771,17.464273871616
0.0237046864665333,17.4655821765162
0.0267193501314988,17.4668430352954
0.0300935202251933,17.468058123418
0.0338698265949987,17.4692289183745
0.0381049839516935,17.4703595738815
0.0428604554284108,17.4714530638734
0.0482083293531047,17.4725125979591
0.0542319287978787,17.4735412701323
0.0610352548470527,17.4745431293702
0.068741507606156,17.4755220670579
0.0775013232408046,17.4764823179418
0.087501888479478,17.4774286144208
0.0989798198254932,17.4783663715344
0.112242805134455,17.479302138913
0.127702752071084,17.4802441470897
0.145933999608344,17.4812033579889
0.167550130836735,17.4821856325284
0.192588228250193,17.4831716718259
0.221711859441746,17.4841721351238
0.255817360798866,17.4852023684761
0.296258457701114,17.4862883652902
0.343017766906015,17.4874269349752
0.382790439681929,17.4883428221591
0.416014234488718,17.4891023006452
0.44486998630072,17.4897849713229
0.470064806470432,17.4904297269054
0.491630344729857,17.4910614925091
0.509172207721607,17.4917024285951
0.521785553055513,17.4923788544202
0.527584116231156,17.493132874553
0.523348567434763,17.493938962637
0.507459919537939,17.4947688613101
0.478481828768598,17.4956382468941
0.434590509674152,17.4965582551204
0.373804820567955,17.4975374418752
0.33027278230781,17.4981353638647
0.282790630894195,17.4987332858541
0.240426610315339,17.4992399859418
0.203851500131988,17.4996696571063
0.171566043412272,17.5000514471653
0.142568222698229,17.5004032966157
0.116235151255819,17.5007366048917
0.0921264176159352,17.5010598999055
0.0698705449629603,17.5013810718045
0.0490599070511079,17.501709881345
0.0290017376800058,17.5020646456544
0.00699414786404267,17.5025192664039
-0.00140924628836498,17.5027194623823
-0.00906213148695455,17.5029196583606
-0.0154384056067006,17.5031029128719
-0.021427349105138,17.5032922514448
-0.0274071775196878,17.5035025134882
-0.033145950683788,17.5037303303085
-0.0384991329882854,17.5039737754827
-0.0433872416105254,17.5042322461084
-0.0477696437203748,17.5045060235286
-0.0516291393345776,17.5047960335497
-0.0550626909342215,17.5051151524295
-0.0578116694765921,17.505440419141
-0.0600464276845462,17.5057874657805
-0.0617823852443822,17.5061595247923
-0.0630339339565032,17.5065603603735
-0.0638145563458798,17.5069946277841
-0.064135300095946,17.5074681469546
-0.0640030495285156,17.5079883115522
-0.0634179242603365,17.5085650047617
-0.0623676686861808,17.5092125006809
-0.0608236813351887,17.5099498193839
-0.0587280923218508,17.5108062260892
-0.055958441966407,17.5118337910909
-0.0521818837639882,17.5131590268354
-0.0481339253941956,17.5145482481273
-0.0442292171833581,17.5158928377333
-0.0405118293473172,17.5171969007713
-0.0370032040878409,17.5184624817209
-0.0337141231300764,17.5196903000175
-0.0306489259861249,17.5208804059401
-0.0278074737654159,17.5220325307097
-0.0251862576365094,17.523146270516
-0.0227791558998751,17.5242211805083
-0.020578033557343,17.5252568176927
-0.0185732579537788,17.5262527531277
-0.0167541565647711,17.5272085644498
-0.0151094238880171,17.5281238147881
-0.0135465413293272,17.5290473135538
-0.0120440619451351,17.5299945697379
-0.0106062604776921,17.5309673322431
-0.00923703700985486,17.5319677834686
-0.00794008333627174,17.532998490021
-0.00671883109553945,17.5340624996422
-0.00557639916029105,17.5351634683124
-0.00451553866164753,17.5363058322188
-0.00353857546055019,17.5374950460568
-0.00264734937082806,17.538737922689
-0.0018431486107248,17.5400431337919
-0.00112663646111462,17.5414219784106
-0.000497764236861251,17.5428896237589
4.43414128325917e-05,17.5444672414993
0.00048296302547134,17.5461059338539
0.000825994144023284,17.5477959918741
0.00108918422452162,17.549555860338
0.00128690435284159,17.5514082933098
0.00143274131151933,17.5533840963245
0.0015399662198798,17.555527765601
0.00162227777516364,17.5579096292323
0.00169537298472754,17.5606573548869
0.0017820539203572,17.5640710807848
0.00189256171727276,17.5678324855873
0.00203979157874828,17.5719550726829
0.00220173348746322,17.5758605682496
0.00237461393429784,17.5796646426559
0.00255587151929136,17.5834480833681
0.00274411249341615,17.5872638902039
0.00293917408265167,17.5911522297191
0.00314195485284397,17.5951471455495
0.00335420583533562,17.5992799650717
0.00357834951518647,17.6035814408942
0.00381735312239099,17.6080832577894
0.0040747080855221,17.6128194331086
0.00435457832242863,17.6178277549001
0.00466218676278192,17.6231510502762
0.00499560135464946,17.6286914769837
0.00533491157588074,17.6340650202425
0.00568874024694639,17.6393737780969
0.00605736710800038,17.6445756720515
0.00644529829756149,17.6496903631491
0.00685646094383316,17.6547239479687
0.0072953817289647,17.6596856167097
0.0077667617992195,17.6645809583587
0.00827566064099639,17.6694134037297
0.00882756143013723,17.6741840965144
0.00942849504567661,17.6788924183488
0.010085154364411,17.6835364374556
0.0108103743153459,17.6881458880635
0.0116266709366476,17.6927838135188
0.0125502166039784,17.6974463339742
0.0136053269090285,17.7021523651703
0.0148274678399202,17.7069421800051
0.0162783899588297,17.7119141118728
0.0181017487410067,17.7173502272454
0.0205696154409352,17.7237472524969
0.0221703290148999,17.7275462020291
0.0238158486725468,17.7313451515614
0.0252568285925987,17.7347392993806
0.0264748525129574,17.7378340836799
0.0274863878581216,17.7408031570459
0.0282455456077939,17.7436394360306
0.0287379531463465,17.746393195524
0.0289546576442024,17.749188403914
0.028848657524438,17.7522078006019
0.0282347274953453,17.7559672481063
0.0274143973092572,17.758928000113
0.0263504500612467,17.7618887521198
0.0252755312183983,17.7644532207413
0.0242058151052424,17.7667883688322
0.0231346021594381,17.7690054829863
0.0220626275059071,17.7711573355681
0.0209931587308336,17.7732736810654
0.0199299189463923,17.775374071285
0.0188765292505362,17.7774726955739
0.0178363599502512,17.7795806075166
0.0168124975909901,17.7817069122054
0.0158077447328705,17.7838594739312
0.0148246325279669,17.7860453673554
0.0138654333981757,17.7882711928702
0.0129321722017207,17.790543313641
0.012026641921762,17.7928680316719
0.0111504079486332,17.795251762703
0.0103048214990936,17.7977011751471
0.00949103176660978,17.8002233264469
0.00869834327115992,17.8028661594429
0.00791743974577109,17.8056862047257
0.00715208833397678,17.8087041972464
0.00640614206697198,17.8119446884485
0.00568369587048482,17.8154361023192
0.0049890492842653,17.8192114984741
0.00432665329448026,17.8233094781059
0.00370100480220492,17.8277754860084
0.0031164594398112,17.8326640148693
0.0025769614755284,17.8380425826101
0.00208571828691955,17.8439990713903
0.00164730138526415,17.850614349359
0.00127721709766932,17.8577135915819
0.000979016809210045,17.8653920609142
0.000751960375060244,17.873605501585
0.000583559615344829,17.8819230265125
0.000443759492366014,17.8913616447607
0.0003394984462989,17.9013616447607
0.000267842327110818,17.9113616447607
0.000219325053573336,17.9213616447607
0.000187036199134893,17.9313616447607
0.000166042037047,17.9413616447607
0.000152924239653313,17.9513616447607
0.000145361254558672,17.9613616447607
0.000141787842705865,17.9713616447607
0.000141150046654356,17.9813616447607
0.000142742118297012,17.9913616447607
0.000146100936765095,18.0013616447607
0.00015093693931763,18.0113616447607
0.000157088032155221,18.0213616447607
0.000164488825920675,18.0313616447607
0.000173150910923888,18.0413616447607
0.000183151601020467,18.0513616447607
0.000194629549650924,18.0613616447607
0.000207786388167116,18.0713616447607
0.000222894258879692,18.0813616447607
0.000240309905405461,18.0913616447607
0.000260496947332838,18.1013616447607
0.000284059289638117,18.1113616447607
0.000311790620422147,18.1213616447607
0.00034474819854262,18.1313616447607
0.00038436466453122,18.1413616447607
0.00043262142446063,18.1513616447607
0.000489194501017104,18.1608821486304
0.000553722840111843,18.169678793283
0.000627178442144757,18.1777966552391
0.000710763124496381,18.1852882854197
0.00080585822810318,18.1922028764223
0.00091403266827931,18.1985861232929
0.00103706350510198,18.2044804754334
0.00117696240701264,18.2099253724648
0.00133600718724178,18.2149574527377
0.00151677690144761,18.2196107535017
0.00172219429443202,18.2239169057969
0.0019555747605796,18.227905322687
0.00222068685332484,18.231603376082
0.00252182478875546,18.2350365730162
0.00286390077172203,18.238228738929
0.00325256281198511,18.2412022084057
0.00369434860688292,18.2439780288956
0.00419689471027968,18.2465761952465
0.00476922851105015,18.2490159342459
0.005422192924611,18.251316072401
0.00615543241062192,18.2534591338779
0.00696575439292329,18.2554383691609
0.0078643073232677,18.2572878653295
0.00886794251271658,18.2590421111913
0.0100037741731297,18.2607397272999
0.0113224309534314,18.2624349156094
0.0130093145207293,18.2643020558535
0.0149719512154172,18.2661915495825
0.0166055383896469,18.2676177828272
0.0183298732366826,18.2690440160719
0.0198732762267336,18.2703005018268
0.0212498714496452,18.2714494587307
0.0224841722094977,18.2725513752863
0.0235734937311754,18.2736471649975
0.0244975590725599,18.2747759572499
0.0252160600998891,18.2759913007592
0.0256457696910691,18.2774007510263
0.0254901849113854,18.2794434003511
0.0248296613454007,18.2809710185939
0.0238024764654187,18.2824986368367
0.0226229119666966,18.2838996969707
0.0212965040086337,18.2852958065105
0.0198316269875722,18.2867401800408
0.0182373043896448,18.2882704395966
0.0172252278442411,18.2892414448443
0.0162357070993899,18.2902124500921
0.0149662955174649,18.2915239852409
0.0124825575336908,18.2943651801175
0.0103003483658463,18.2972705391182
0.00858738809112665,18.2999379711341
0.00721184627752869,18.3024290706629
0.00601840944941191,18.3049406082272
0.00497187393718754,18.3075129866212
0.00405202747258997,18.3101701384845
0.00329345723181265,18.3127482781266
0.00267700715377292,18.3151971930389
0.00216640925729447,18.3175494640841
0.00173338667199608,18.319848809777
0.00135473523030275,18.3221585745586
0.00100735072771597,18.3245962480053
0.000648692850586572,18.3275324814195
0.000432862499394236,18.3295637616266
0.000239434268939079,18.3315950418338
8.32008272669854e-05,18.3334092214771
-4.86582737950844e-05,18.3350813174666
-0.000168679984977427,18.336731809491
-0.000284785060639586,18.3384605464583
-0.000405247311245268,18.3404095346761
-0.000547922227413824,18.3429517479735
-0.000762352954182557,18.3473371853397
-0.000920651328917031,18.3511079850516
-0.00104404397131842,18.3544359559527
-0.00116542016893361,18.3581206311701
-0.00130073844169094,18.3628739240804
-0.00142617894395042,18.368375479212
-0.00149906567896736,18.3731859481683
-0.00152037131077754,18.3775421997426
-0.00148362859562413,18.3814590662452
-0.00138226758513089,18.384989558708
-0.001209750995044,18.38818561166
-0.000959004741876214,18.3911067127283
-0.00062058202734082,18.3938184634637
-0.000180284418152546,18.3963890204737
0.000385353825330778,18.398894952273
0.00111753002595751,18.4014312867504
0.00212048597211711,18.4042027905674
0.00347899448729719,18.4072531841239
0.0051893478137729,18.4104502928374
0.00651152680142936,18.412597706874
0.0079973867533747,18.4147451209107
0.00946850819347792,18.4166266678057
0.0110167946095604,18.4183752814729
0.0126449785415152,18.4199908250456
0.0144184688791974,18.4215294139312
0.0163759871051967,18.4230065501951
0.0185391104479971,18.4244206851115
0.020951750324153,18.4257834564741
0.0236399196505105,18.4270928996559
0.0266470120004887,18.4283548444722
0.0300124294559004,18.4295708825427
0.0337790657232404,18.4307426292308
0.0380032706169195,18.4318741651279
0.0427462820346311,18.4329684584575
0.048079874107827,18.4340287061424
0.0540871220623062,18.4350580146545
0.0608715789795735,18.4360604240947
0.0685558992909822,18.4370398190074
0.0772900038437347,18.4380004246934
0.0872601168859768,18.4389469598712
0.0987014009773145,18.4398848099712
0.11191980128371,18.4408205095737
0.127324227335407,18.4417622333354
0.145484276867085,18.4427208592335
0.167030093493271,18.4437031197438
0.191984815547861,18.4446889342216
0.221007902143225,18.4456888821958
0.254988798136056,18.4467181608453
0.295265546779027,18.4478023751965
0.341914817674404,18.4489403080701
0.381881389621912,18.4498612836456
0.41523879317843,18.4506234686641
0.444195687576602,18.4513074891133
0.469483993224133,18.4519528424416
0.491147725421166,18.4525846315987
0.508803435633434,18.4532250032521
0.521562879100994,18.4539000689793
0.527577591783852,18.4546512611418
0.523633410426218,18.455456938908
0.508066906709074,18.4562859757607
0.479453754130853,18.4571541543582
0.435977382100775,18.4580727306176
0.375658516873806,18.4590502219636
0.331957228046125,18.4596529419006
0.284204230921204,18.4602556618377
0.241614487855065,18.460765556539
0.204884918332089,18.4611970817982
0.172486489135086,18.4615799990421
0.143399385242437,18.4619325546549
0.116992524541943,18.462266281874
0.0928218615161997,18.4625897593514
0.0705151751029437,18.4629108663113
0.0496680596433178,18.4632392508092
0.0296046407931312,18.4635927451075
0.00779058205371787,18.4640406409102
-0.000909086748124927,18.4642464521439
-0.00881349256788662,18.4644522633777
-0.0152326476960602,18.4646361398266
-0.0212166052294579,18.464824661059
-0.0272012147590066,18.4650342435537
-0.032951501001397,18.4652614803195
-0.038319976427098,18.4655043872171
-0.043225390526911,18.4657623235928
-0.0476260543155847,18.4660355447393
-0.0515041246055575,18.4663249562603
-0.0549243473737689,18.466639965298
-0.057697144756136,18.4669642228822
-0.0599555309693319,18.4673101769678
-0.0617144481182294,18.467680986926
-0.062988288829821,18.4680803798392
-0.0637906114054476,18.4685129641573
-0.0641326132327628,18.4689844978276
-0.0640214168962798,18.4695022893379
-0.0634575957735086,18.4700760334788
-0.0624295133602554,18.4707198538717
-0.0609095297672093,18.4714524352658
-0.0588416338787277,18.4723023889303
-0.0561079575217902,18.4733201599526
-0.0523943464593141,18.4746256474227
-0.048340785895062,18.4760174036281
-0.0444272880968917,18.4773641859417
-0.0406995679706114,18.4786702791151
-0.037179816300645,18.4799378242112
-0.0338792323365128,18.4811675897902
-0.0308024295217745,18.482359650275
-0.0279494689402467,18.483513747874
-0.0253169955475101,18.4846294829032
-0.0228990071210721,18.4857064112607
-0.0206874595569772,18.4867440893582
-0.0186727859628387,18.4877420875782
-0.0168443571795899,18.4886999836374
-0.0151908912512235,18.4896173421085
-0.0136250868681559,18.4905396563863
-0.012119425167293,18.4914856687292
-0.0106782387053777,18.4924570851522
-0.00930543654029985,18.4934560708422
-0.00800472232784948,18.4944851707314
-0.0067795421763079,18.4955474053529
-0.00563303215868197,18.4966463960773
-0.00456796345819172,18.4977865343665
-0.00358668498078731,18.4989732160064
-0.00269106277090269,18.5002131744507
-0.00188241476153431,18.5015149712451
-0.00116143793729832,18.50288974718
-0.000528122217235879,18.5043524315419
1.83604833795996e-05,18.5059238163895
0.000462386281695006,18.5075603964084
0.000809934439884895,18.5092473742417
0.00107687481138823,18.5110031506303
0.00127762848697115,18.5128501574491
0.00142581257502772,18.5148186814321
0.00153469979853426,18.5169523012907
0.00161794001830743,18.5193195165182
0.00169105831565335,18.5220435551925
0.00177619020217766,18.5254086610855
0.00188536147496803,18.5291633609576
0.00203009772577843,18.5332569148049
0.00219126134335902,18.5371712885787
0.00236357263189855,18.5409787956433
0.00254437944644685,18.5447618050847
0.00273221279602893,18.5485744341923
0.00292684105048765,18.5524573868401
0.00312910564054941,18.5564449589483
0.00334071223911838,18.5605685735847
0.00356404721737287,18.5648589713617
0.00380204670262811,18.5693477431732
0.00405816771641201,18.5740687233561
0.00433652479918023,18.5790594361955
0.00464225899699737,18.5843623641837
0.00497547736774005,18.5899147034494
0.00531390099858395,18.5952905735268
0.00566695627978357,18.6006062908896
0.00603452615320066,18.6058135773707
0.00642118944952312,18.6109335213561
0.00683081509725379,18.6159716777019
0.00726792618558608,18.6209375257618
0.00773720225311364,18.6258367570298
0.00824368111461011,18.6306729597704
0.00879281600759857,18.6354473940858
0.00939060145936603,18.6401595374827
0.0100436866100714,18.6448075208018
0.0107638082391453,18.649414950678
0.0115742258279919,18.6540517561696
0.0124906318179181,18.6587123201092
0.0135369000581025,18.6634149068627
0.0147475254942425,18.6681976992264
0.0161818365087257,18.6731536280745
0.0179745462541634,18.6785446703021
0.0204413308559499,18.6849841312863
0.0220536631709057,18.6888249200683
0.0237164417006699,18.6926657088503
0.025173486909279,18.6960879565476
0.0264046869115902,18.6991958318427
0.0274292693538966,18.7021686858402
0.0282054642539626,18.7050139504259
0.0287147467398409,18.7077694944223
0.0289497063269045,18.7105577769597
0.0288669155437172,18.7135545191191
0.0282999253732249,18.7172276680751
0.0274887783979646,18.720244218889
0.0264203385925121,18.7232607697029
0.0253434083047823,18.7258492839751
0.0242735510121981,18.7281949867203
0.0232024512226461,18.730417661064
0.0221304374374377,18.7325726160455
0.0210606993935367,18.7346905575901
0.0199969550691568,18.7367914974157
0.0189428383497798,18.7388898826204
0.0179017370454519,18.7409969229777
0.0168767558155688,18.743121822521
0.0158707148207359,18.7452725089297
0.0148861621590496,18.7474560961377
0.0139253860496265,18.749679207472
0.0129904267084238,18.7519482151997
0.012083091720031,18.7542694197405
0.0112049601005457,18.7566492265198
0.0103573968003725,18.7590942825668
0.00954156313259833,18.7616116176256
0.00874825352573897,18.7642438438506
0.00796648875021682,18.7670520966176
0.0072000404911239,18.7700568571153
0.00645274591780075,18.7732824524998
0.00572868523954719,18.7767570416916
0.00503214652634869,18.7805133649836
0.00436757369339817,18.7845896390467
0.00373946483040227,18.7890308260989
0.00315219226051055,18.7938907489331
0.00260973543304794,18.7992359304966
0.00211535715514921,18.8051526614543
0.00167244079936215,18.811740790919
0.0012983169516845,18.818807635085
0.000995460596939786,18.8264468084995
0.000753969212493053,18.8350573180518
0.000589460868646753,18.8431333094519
0.000447373716276687,18.852620697053
0.000342024133195775,18.862620697053
0.000269574517179861,18.872620697053
0.000220490485359052,18.882620697053
0.000187805761620639,18.892620697053
0.000166537624683451,18.902620697053
0.000153229004767544,18.912620697053
0.000145530761444216,18.922620697053
0.000141859170520211,18.932620697053
0.000141148032502178,18.942620697053
0.000142683289171152,18.952620697053
0.000145995965489011,18.962620697053
0.000150792237976967,18.972620697053
0.000156906822907818,18.982620697053
0.000164271855787256,18.992620697053
0.000172896896852302,19.002620697053
0.000182857457900112,19.012620697053
0.000194290434558931,19.022620697053
0.000207395575730083,19.032620697053
0.000222442841860226,19.042620697053
0.000239786290024102,19.0526206970531
0.000259886081155078,19.0626206970531
0.000283341514468072,19.0726206970531
0.000310939971708141,19.0826206970531
0.000343729855093945,19.0926206970531
0.000383131048142353,19.1026206970531
0.000431106080406786,19.1126206970531
0.000487459008005188,19.1221622689735
0.000551743862513418,19.1309791893628
0.000624923874026899,19.1391157869846
0.000708195549167001,19.146624691327
0.000802934974961004,19.1535551977795
0.000910705365594166,19.1599530974234
0.00103327739097177,19.1658609286479
0.00117265549129321,19.1713182138145
0.00133110927445419,19.1763616683208
0.00151120849686282,19.1810254008718
0.0017158652614092,19.1853411084924
0.00194838276174988,19.1893382650326
0.00221251544657671,19.1930442982256
0.0025125410369207,19.1964847658075
0.00285335227795854,19.1996835385437
0.00324057381284791,19.2026629907544
0.00368071482573042,19.2054442033963
0.004181376287197,19.2080471974307
0.00475153990813372,19.210491216559
0.00540198796412847,19.2127950917633
0.00613311470700972,19.2149433750943
0.00694106430058771,19.2169268431181
0.00783684847275101,19.2187795763787
0.00883711243594629,19.2205360291543
0.00996854921864799,19.2222345902096
0.0112807238815186,19.2239286884769
0.0129523205766361,19.2257869595747
0.0149438093938821,19.2277096705038
0.0165778770323172,19.2291379839999
0.0183038035945845,19.2305662974961
0.0198503322486773,19.2318251640463
0.0212293813583147,19.2329752663049
0.0224659927589534,19.2340775659009
0.0235578156161705,19.2351731315898
0.0244848429801247,19.2363010067144
0.0252071836556201,19.2375143188663
0.0256427613468179,19.2389190111363
0.0255046311266832,19.2409388270859
0.024853853516002,19.2424726744056
0.0238306791879799,19.2440065217253
0.0226547683011609,19.2454088310312
0.0213319239579333,19.2468042708566
0.0198703586168476,19.2482469539902
0.0182791596415438,19.2497745995492
0.0172677526875022,19.2507446533784
0.0162776460220697,19.2517147072075
0.0151150045840187,19.2529102764825
0.012644954360366,19.255710391949
0.0104281821346197,19.2586310630026
0.00868837335445772,19.261312946345
0.00729404708738567,19.2638135149163
0.00609020153709812,19.2663223317638
0.00503491680335048,19.268890067529
0.00410746297491462,19.2715410927956
0.0033380217841516,19.274128937584
0.00271341370738888,19.276585849791
0.0021968170557435,19.278943500523
0.00175949131241848,19.2812447526714
0.00137801651133072,19.283550986343
0.00102957783287917,19.2859734008456
0.00067506473938408,19.2888431047951
0.000451833470717899,19.2909197630473
0.000252326704629512,19.2929964212995
9.32122351825499e-05,19.2948314681731
-3.99291552913165e-05,19.2965098386473
-0.000160495633559093,19.2981585182389
-0.000276581702222855,19.2998771430724
-0.000396244441080497,19.3018011353655
-0.00053570627564425,19.3042661624699
-0.000753016476419916,19.3086721879624
-0.000916121879683518,19.3125338909136
-0.00104119326491443,19.3158947419214
-0.00116276635650759,19.319573519231
-0.00129777010118114,19.3242956245921
-0.00142451445702188,19.3298167073415
-0.00149851792387831,19.3346375796628
-0.00152108524680681,19.3390044891171
-0.00148574478453274,19.342930611479
-0.00138592496383208,19.3464693836362
-0.0012151067672457,19.3496720932931
-0.000966201390927247,19.3525988494409
-0.000629832631455775,19.3553148862011
-0.000191941937715896,19.3578881812367
0.000370894487053488,19.3603958922736
0.00109951152575971,19.3629324148226
0.00209522066642583,19.3656963542357
0.00344681549179302,19.3687435273703
0.00514996150005498,19.371938422481
0.00647033104735219,19.3740901090139
0.0079541788193077,19.3762417955467
0.00942738213659837,19.3781323402434
0.0109777624251285,19.3798890883677
0.0125978720933371,19.381502140866
0.0143681303084792,19.3830436928627
0.0163196262505154,19.3845219928874
0.0184766272204304,19.3859377684464
0.0208822618781322,19.3873021050257
0.0235623399849932,19.3886129593401
0.0265602750152365,19.3898762469922
0.0299150209522609,19.391093440642
0.0336699182296982,19.392266369317
0.037880828575915,19.3933990038089
0.0426087177013052,19.394494303969
0.0479248646480899,19.3955554288787
0.0539122636712438,19.396585543888
0.0606738340534211,19.3975886573527
0.0683315749274327,19.3985686453552
0.0770345547063847,19.3995297224588
0.0869678549373662,19.4004765918918
0.0983649384800217,19.4014146065676
0.111529662941027,19.402350281956
0.126867445852739,19.4032917308316
0.144942377336439,19.4042497368328
0.16640350806551,19.40523204063
0.191257972249599,19.4062176562569
0.22016045428103,19.4072170741673
0.253992473698771,19.4082453253112
0.294074226410149,19.409327579227
0.340587750561412,19.4104648334881
0.380779766307871,19.411391946106
0.414291821613156,19.4121574293847
0.44336478175571,19.4128431295966
0.468759895084039,19.4134892694534
0.490535651728452,19.4141211661983
0.508321292917655,19.4147609536943
0.521247708472682,19.4154345041183
0.527509775540695,19.4161824738354
0.523902945354785,19.4169877331688
0.508710004862419,19.4178158113179
0.480520944971427,19.4186826091313
0.437528328914742,19.4195995202694
0.377755586861251,19.4205750322732
0.333865461851607,19.421183326249
0.285804873559487,19.4217916202248
0.242958615180773,19.4223052202828
0.206054356383358,19.4227388931436
0.173528701309533,19.4231231170114
0.144341289839934,19.4234764946565
0.117851627573629,19.4238107149291
0.0936115055922815,19.4241344161434
0.0712478150225457,19.4244554673352
0.0503596552647499,19.4247833939001
0.0302894321996126,19.4251355038196
0.00867439542046092,19.4255763745733
-0.000385901727490152,19.425789136025
-0.0085941598620642,19.4260018974767
-0.0150547631053501,19.426186442957
-0.0210340153237739,19.4263742656438
-0.0270223249790695,19.4265832674554
-0.032782202116062,19.42681001149
-0.0381635860835238,19.4270524632618
-0.0430836840267908,19.4273099492036
-0.0474998860639864,19.427582701994
-0.0513937883439658,19.4278716097906
-0.0548043772878192,19.4281833517116
-0.0575971592420763,19.4285067755795
-0.0598753671362371,19.4288518246451
-0.0616535542669929,19.4292215994509
-0.0629461107341434,19.4296197961903
-0.0637666553820397,19.430050984372
-0.0641265081723809,19.4305208704361
-0.0640329881980819,19.4310366921792
-0.0634870416451696,19.4316079881143
-0.0624775470642065,19.4322487580858
-0.0609776557994587,19.4329774111404
-0.0589328755960619,19.4338220248774
-0.0562290385101724,19.4348317359928
-0.0525665808432298,19.436121284187
-0.0485085992040781,19.437515162977
-0.0445880525951111,19.4388637463768
-0.0408519801608743,19.4401715002016
-0.037323204898637,19.4414406480957
-0.0340132758794657,19.4426720005045
-0.0309270342789565,19.4438656525271
-0.0280647066027529,19.4450213558793
-0.0254230647255982,19.4461387145459
-0.0229962049930642,19.4472172851994
-0.0207761583796545,19.4482566238452
-0.0187534124685548,19.449256300337
-0.0169173742279109,19.4502158924403
-0.0152567815903488,19.4511349658584
-0.0136886034008368,19.4520563162693
-0.0121803547182208,19.453001316796
-0.0107364155300285,19.4539716385015
-0.00936070213296669,19.4549694326621
-0.00805692777642527,19.4559972266957
-0.00682855028674143,19.4570580191612
-0.00567871967985848,19.4581554034948
-0.00461022340557334,19.4592937350875
-0.00362542907446768,19.4604783622609
-0.00272622402865668,19.4617159545614
-0.00191395033069843,19.4630149850311
-0.00118933232899273,19.4643864675154
-0.00055239126480847,19.4658451408945
-2.33572866980072e-06,19.4674114943967
0.00044612048376763,19.4690463847581
0.000797372339555081,19.4707308889412
0.00106739003627978,19.4724833775308
0.00127063602013145,19.4743260254037
0.00142075298108663,19.4762887071345
0.00153101630506023,19.4784142757428
0.00161503879329321,19.4807697943361
0.00168821323785725,19.483475045331
0.0017721719108199,19.4868022597857
0.00188031028343495,19.4905522028788
0.00202308630519805,19.4946231692907
0.00218361915721262,19.498544749078
0.0023554722970586,19.5023551111542
0.0025359228595082,19.5061379101167
0.00272344173702537,19.5099481662824
0.00291774197507473,19.513827016871
0.00311961917020205,19.5178089617981
0.00333074283745393,19.5219255035222
0.00355347090490541,19.5262073768498
0.00379071555020246,19.5306861030052
0.00404590799338047,19.5353953777435
0.00432312619029096,19.5403725233154
0.00462745050448294,19.5456597575074
0.00496053338293685,19.5512209444831
0.00529830233960528,19.5565984019241
0.00565079618084742,19.5619193263037
0.00601759257515929,19.5671306463515
0.00640332596510678,19.5722545404527
0.0068118198822156,19.5772961242719
0.00724759551571884,19.5822650991371
0.007715316602206,19.5871672315417
0.00822000547207786,19.5920062302683
0.00876709360028841,19.5967834439423
0.00936254894085511,19.601498423255
0.0100129885287569,19.6061493474727
0.0107293425190895,19.6107552721816
0.0115354191227525,19.6153912601111
0.0124465583279426,19.6200504020975
0.0134863164570653,19.6247505091776
0.0146884942151421,19.6295282752256
0.0161107137534687,19.6344728294139
0.0178815686107742,19.6398324023164
0.0203474340237391,19.6463035022152
0.0219711727158587,19.6501823543767
0.0236496011870344,19.6540612065382
0.0251178152369508,19.6575035963801
0.0263578026831573,19.6606205730424
0.0273909951567191,19.6635962131887
0.0281784602142493,19.6664476884796
0.0286988572099048,19.6692046768726
0.0289457671325568,19.6719887514593
0.0288779891895051,19.6749713829155
0.0283399784869454,19.6785928509611
0.0275347393834758,19.681646959586
0.0264629506531167,19.6847010682109
0.0253845662191327,19.6873052045401
0.0243145868311271,19.6896575662649
0.0232435561685783,19.6918837110554
0.0221715253412864,19.6940406013728
0.021101631751152,19.696159546121
0.0200375891978877,19.6982608448181
0.0189830390318796,19.7003591049465
0.0179413796254581,19.7024656331122
0.0169157266003803,19.7045896946404
0.0159089108080419,19.7067392564339
0.0149234906655632,19.7089214567151
0.0139617639586572,19.711142933155
0.0130257803001892,19.7134100636492
0.0121173560651813,19.7157291480516
0.0112380785375022,19.7181065857323
0.01038932112512,19.7205490105745
0.00957225237412926,19.7230634360084
0.00877857208187814,19.725689260795
0.00799629146686629,19.7284903973137
0.00722918487825701,19.7314871743097
0.00648107990616222,19.7347037836977
0.00575604768247308,19.7381682253249
0.00505836930301029,19.7419130470207
0.00439248417222085,19.7459762346024
0.00376289080264502,19.7504024609781
0.00317397104907013,19.7552451501182
0.00262972505342036,19.7605702347472
0.00213344885490052,19.7664630615305
0.00168779331768366,19.7730349092226
0.00131121043358486,19.7800823241326
0.00100550682070348,19.7876979401336
0.000758779000073526,19.7964006277825
0.000594887461831457,19.8043764172247
0.000451056817103106,19.8138776339967
0.000344576837420647,19.8238776339967
0.000271316594630427,19.8338776339967
0.000221658034282946,19.8438776339967
0.000188571909080888,19.8538776339967
0.000167024796430762,19.8638776339967
0.000153521039821139,19.8738776339967
0.000145684155649666,19.8838776339967
0.000141911879895775,19.8938776339967
0.000141125548027513,19.9038776339967
0.000142602565005184,19.9138776339967
0.000145867937610863,19.9238776339967
0.000150623477938642,19.9338776339967
0.000156700645600116,19.9438776339967
0.000164029051746938,19.9538776339967
0.000172616184100531,19.9638776339967
0.000182535711550062,19.9738776339967
0.000193922729467405,19.9838776339967
0.000204400474917798,19.9919388169984
0.000216040134605014,20
