ecg,time
0.00488631048735727,15.0000593701411
0.00521466202655481,15.0054711519217
0.00555741995713547,15.0108288787225
0.00591380749631486,15.0160732056874
0.00628834631364045,15.0212271974804
0.00668469810901118,15.026295887137
0.0071072500242313,15.031289837311
0.00756049376110533,15.03621540138
0.00804925712979433,15.0410768937327
0.00857874504587387,15.0458761647077
0.00915466949752904,15.050613196247
0.00978335824267939,15.0552864721611
0.0104718746745985,15.0598935151288
0.0112432669065358,15.0645176338237
0.0121133586076746,15.0691630001744
0.0131028289149851,15.0738408042974
0.014240704060372,15.0785778369365
0.0155732116613958,15.0834376787805
0.0171917073598866,15.0885843836206
0.0193768116643589,15.0946059809874
0.0211567607594976,15.0989969751102
0.0230441753003215,15.103387969233
0.0246335434802096,15.1070569686417
0.0259589289368475,15.1102675241583
0.0270720944643647,15.1132732141198
0.0279638880099296,15.1161841492207
0.0285853894517975,15.1189571091216
0.0289384404805835,15.1217089901646
0.0289983442880037,15.1245833676107
0.0286745068169146,15.1278595225107
0.0276669501351349,15.1321502729005
0.0267769954540321,15.1347698439171
0.0257250495979356,15.1373894149337
0.0246576661289644,15.1397795849993
0.023587763025399,15.1420259965213
0.022516034111168,15.1441919779025
0.0214453644335376,15.1463130919126
0.020379431252658,15.1484117692312
0.0193219248894392,15.1505037821671
0.0182763162749198,15.1526011243225
0.0172457961334192,15.1547134853026
0.0162332685574283,15.1568490940079
0.0152413609567972,15.1590152454078
0.0142724356158603,15.1612186605168
0.0133286055735029,15.1634657384852
0.0124117438794974,15.1657627635519
0.0115234945575958,15.168116073437
0.0106652869787775,15.1705321988456
0.00983833911677221,15.1730180258365
0.00904011884548275,15.1755928230007
0.00825213562553103,15.1783375547093
0.00747817249857551,15.1812715173339
0.00672199312349194,15.1844179550905
0.00598761253510697,15.1878037592697
0.00527927406306414,15.1914601533948
0.00460140089509085,15.1954235578377
0.00395851598500467,15.1997367092229
0.00335509966920244,15.2044503679356
0.00279533180167114,15.2096266013963
0.0022827921919478,15.2153445173296
0.00182017699234882,15.2217102479729
0.00142325004711849,15.2285961124863
0.00109659021513686,15.2360186929846
0.000877173358091854,15.2428804213893
0.00067880620742096,15.2511616380151
0.000519218617954123,15.2602544451657
0.00039467041719826,15.2702544451657
0.000308947233375833,15.2802544451657
0.000250828614485866,15.2902544451657
0.000212150230922573,15.3002544451657
0.000187044112679876,15.3102544451657
0.000171415015403199,15.3202544451657
0.000162472520821682,15.3302544451657
0.000158338150207368,15.3402544451657
0.000157753616967103,15.3502544451657
0.000159883159115934,15.3602544451657
0.000164185350073957,15.3702544451657
0.000170330260704096,15.3802544451657
0.000178145329459793,15.3902544451657
0.00018758030441322,15.4002544451657
0.000198686021498535,15.4102544451657
0.000211604156812755,15.4202544451657
0.000226566485988285,15.4302544451657
0.000243903308887488,15.4402544451657
0.000264061913429,15.4502544451657
0.000287637494646013,15.4602544451657
0.000315421127955589,15.4702544451657
0.000348472779655004,15.4802544451657
0.000388232967747359,15.4902544451657
0.00043669656935088,15.5002544451657
0.000493955768668057,15.5098380390414
0.000559381412788327,15.5186909183207
0.00063396150786055,15.5268567740397
0.000718933882109485,15.5343893100592
0.00081572299682254,15.5413387985134
0.000925946978537298,15.5477518702913
0.00105143849851092,15.5536717900749
0.00119427217274966,15.5591387139656
0.00135679729623096,15.5641899167739
0.00154167476361073,15.5688600059304
0.00175192139544601,15.5731811274024
0.00199096183741712,15.5771831641106
0.00226269264224749,15.5808939240021
0.00257155995066755,15.5843393273479
0.00292265901876202,15.5875436015767
0.00332186223279278,15.5905294866578
0.00377598859873662,15.5933184585839
0.00429303664170512,15.5959309909325
0.00488251459852005,15.5983868803558
0.00555592991247471,15.6007056810743
0.00630668182439313,15.6028528801588
0.00713796809522244,15.6048435386688
0.00806298781456605,15.6067135631999
0.00910211982765795,15.6085004216804
0.0102902214305667,15.6102498536365
0.0117034905074139,15.6120408518222
0.0136563620695243,15.6141655095005
0.01533428252453,15.6157803113995
0.0171446489257948,15.6173951132985
0.0187327126313172,15.6187636970392
0.020126913851667,15.6199762439982
0.0213752142217732,15.6211180169891
0.0224844384752807,15.6222368398908
0.0234410611190659,15.6233713903782
0.0242144495931995,15.6245672511209
0.0247453696565518,15.6259012619167
0.0248834518937801,15.6275844967295
0.0244207011796938,15.6293474468251
0.0234360786516984,15.6311103969206
0.0223149338893781,15.6325785628908
0.0210619853329608,15.633987977669
0.0196750463571472,15.6354233097348
0.0181627887952156,15.6369264183018
0.0165319668446152,15.6385349488568
0.0148991954809432,15.640216808225
0.0124774537598364,15.642993327634
0.010291270750233,15.6458992865306
0.00856769340444612,15.6485743366632
0.0071821955776365,15.6510719598734
0.00597977051955261,15.6535874898747
0.00492396884274086,15.6561633726478
0.00399443723222759,15.6588237226419
0.00317517498812447,15.6615917435809
0.00251071050896389,15.6642400126535
0.00197235875976636,15.6667470158714
0.00152644341772491,15.6691496451451
0.00114782290407813,15.6714914722809
0.000817554479559777,15.6738231682284
0.000519988118831485,15.6762139732246
0.000236957179249243,15.6788057560845
-8.83823827284351e-05,15.6822649040977
-0.000245541763870152,15.6841592556337
-0.000390309534562129,15.6860536071697
-0.000513552441576516,15.6877905180049
-0.000623974485027006,15.6894515822504
-0.000729624310901634,15.6911394400136
-0.000837450090435541,15.6929664112199
-0.000958291529407155,15.695144084705
-0.00113722672539297,15.6986281739703
-0.00130513313877031,15.7021833756144
-0.00143872490698982,15.7052101764075
-0.00156856963844687,15.7083210560702
-0.00171247008714191,15.711971673907
-0.00188677562150871,15.7167322053697
-0.00206524871324261,15.7222753408123
-0.00218361899225915,15.7270997320551
-0.00223864070662519,15.7314529372318
-0.00221951593760253,15.7353538123141
-0.00211827806681753,15.7388656454586
-0.00192857948096852,15.7420554920347
-0.00164396027449154,15.744993467845
-0.00125551954454673,15.7477480684505
-0.0007497906839945,15.7503837446551
-0.000103283679663101,15.752975454047
0.000737846861494279,15.7556531572686
0.00190965628553266,15.7586778906702
0.00340412282820101,15.7618912371281
0.0052545173857667,15.7653036660201
0.00653386770929705,15.7674017266887
0.00794565239185266,15.7694997873574
0.00936646218259656,15.7713926120015
0.0108297584031859,15.773127647455
0.0123878420465354,15.7747598867588
0.0140870914450524,15.776321122202
0.0159550617670446,15.7778170459492
0.018030962192977,15.7792593025102
0.0203389955772174,15.7806457928468
0.0229154095747889,15.7819812535774
0.0257945926812177,15.783267333896
0.0290099676055238,15.7845043288856
0.032609133547518,15.785696735543
0.0366414593603198,15.786847251553
0.041164233938676,15.7879588775598
0.0462426583542844,15.7890344702494
0.0519583167896104,15.7900780252684
0.0584057595914457,15.7910931590516
0.065698594118494,15.7920837014512
0.0739751010635919,15.7930537872742
0.0834052826192191,15.794007904982
0.0942045132291819,15.7949513256096
0.106649044963538,15.7958901866904
0.121104354911411,15.7968320637385
0.138072743230445,15.7977868614595
0.158282140904775,15.7987685211264
0.181775730586043,15.7997558368662
0.209058948233913,15.8007535386981
0.240927210638103,15.8017751527307
0.278520963683769,15.8028418717649
0.323018735099173,15.8039765100585
0.365828315140444,15.8049911405742
0.401069761510668,15.8058054314734
0.431363131218502,15.8065181330644
0.457846102874546,15.8071796930001
0.480749123442267,15.8078185094181
0.499841664982581,15.8084568853963
0.514456577399163,15.8091182890178
0.523225494942647,15.809835443409
0.523292956442982,15.8106402847363
0.512203506910155,15.8114609319169
0.488723737623005,15.812314262065
0.451191736327103,15.8132130266663
0.397704703969761,15.8141660746877
0.352284268857914,15.8148362218088
0.301322013342456,15.8155063689299
0.256024700048144,15.8160607643262
0.21749908138069,15.8165179192284
0.183824368690121,15.8169165061917
0.153744480886492,15.817279142628
0.126523301702161,15.8176192475938
0.101671398598464,15.8179461542656
0.078805798541006,15.8182677468872
0.0575532375810141,15.8185926108695
0.0373951726077026,15.8189341045562
0.0170049099172396,15.8193285039007
0.00844894974535982,15.8195147819099
0.000563803136338255,15.819701059919
-0.00737320687180027,15.819906306677
-0.0139126122109356,15.8200922572047
-0.0198580169481483,15.8202780164225
-0.0258450346170335,15.8204855043024
-0.0316256147416454,15.8207111068902
-0.0370404974338127,15.8209525945968
-0.0420014435916088,15.8212091704607
-0.046462606255821,15.8214809850105
-0.050403605937971,15.8217688651615
-0.0538586519340061,15.8220789703055
-0.0566999147986892,15.8224010016253
-0.0590263464860399,15.8227444155252
-0.0608522363365532,15.8231122432689
-0.0621919239846478,15.823508101602
-0.0630591472965487,15.823936457725
-0.0634655253433341,15.8244028814086
-0.0634188962985784,15.8249144210246
-0.0629212031504659,15.8254802067193
-0.0619627905776369,15.8261138976731
-0.0605190858410666,15.8268331561139
-0.0585399454773478,15.827664620603
-0.0559215177101829,15.8286539561875
-0.0524023938628637,15.829902826939
-0.0483502046713667,15.8313014134644
-0.0444289669280281,15.8326535594406
-0.0406888166915654,15.8339643565367
-0.0371541115017827,15.835236281292
-0.0338371928407268,15.836470277784
-0.030743376350618,15.8376665127067
-0.0278732079559101,15.8388247761062
-0.0252236912194499,15.8399446922161
-0.0227890963398588,15.8410258281743
-0.0205615846279756,15.8420677454037
-0.0185317384454087,15.8430700169662
-0.0166890291143495,15.8440322234184
-0.0150222326306142,15.8449539340488
-0.0134550636249693,15.8458738401008
-0.0119475563974276,15.8468173223577
-0.0105041676606966,15.8477859988807
-0.00912883014760818,15.8487820002442
-0.00782527807000007,15.8498078276985
-0.00659699467261245,15.850866446903
-0.00544716035140007,15.8519614094259
-0.00437859852335617,15.8530970165756
-0.00339371916233745,15.8542785455222
-0.00249445949423998,15.8555125700814
-0.00168222063781343,15.8568074308796
-0.000957797741291093,15.8581739521638
-0.000321298824038837,15.8596265891202
0.00022795731052107,15.8611853812845
0.000676834537243003,15.8628177788671
0.00102738765447843,15.8644986043091
0.00129569239793733,15.866246193489
0.0014962202395904,15.8680823404451
0.00164258491857717,15.8700363114402
0.00174797396310279,15.8721498933053
0.00182580701792779,15.8744880542967
0.00189104342729082,15.8771656163119
0.00196406780817972,15.8804379975556
0.00206087243397406,15.8841819448534
0.00218635463351422,15.8880886600376
0.00233127389772283,15.8918894961918
0.00249201201895032,15.8956616203162
0.00266513382922038,15.8994601249936
0.00284835953004514,15.9033262115079
0.00304079858351924,15.9072943285364
0.00324284233952839,15.911395916555
0.00345595614522319,15.9156616308496
0.00368247054065684,15.9201229152898
0.00392543913277132,15.924813350273
0.00418864896976125,15.9297701191951
0.00447685965685816,15.9350353231493
0.00479637667240728,15.9406573702231
0.00512053970540108,15.9461037344986
0.00545816462393471,15.951488548322
0.00580882828085708,15.9567581047119
0.00617689902789368,15.9619346697674
0.00656599741823394,15.9670243088138
0.0069803909251866,15.9720379618309
0.00742443761823167,15.9769824211412
0.00790280109466049,15.9818623228013
0.00842050373697306,15.9866798498219
0.00898305841368796,15.9914353260977
0.0095965759015297,15.996127539812
0.0102678756021188,16.0007541785322
0.0110142468314518,16.0053690800582
0.0118552657294252,16.0100085380549
0.012809083736391,16.0146754248112
0.0139019873458461,16.0193916912758
0.0151738559152355,16.0242070054488
0.0166979633377,16.0292450383738
0.0186647340611823,16.034891620675
0.0206142339272367,16.0398479202504
0.0222377517567598,16.0436846195066
0.0239059492086806,16.0475213187629
0.0253428635374778,16.0508984622881
0.0265561360696848,16.0539803898298
0.0275627185945496,16.0569418392504
0.0283142583249986,16.0597668977052
0.0287990387962136,16.0625136574972
0.0290072744877396,16.0653066915266
0.0288899485906867,16.0683323820091
0.0282504795815276,16.0721347395225
0.0274261403887381,16.0750592522411
0.0263653161620907,16.0779837649598
0.0252921040358934,16.0805291924351
0.0242229489128003,16.0828528777433
0.023152014105057,16.0850614422718
0.0220802654207571,16.0872061751197
0.0210110217186603,16.0893162341324
0.0199480126412246,16.0914108663911
0.0188948530348494,16.0935040807348
0.0178549021603518,16.0956068152782
0.0168312331923175,16.0977280988861
0.015826635749978,16.0998757422756
0.0148436264750671,16.1020567874665
0.0138844649456363,16.1042778131096
0.0129511634901209,16.1065451728465
0.0120455001519138,16.1088651784135
0.0111690310330731,16.1112442552259
0.0103230957704773,16.1136891028313
0.00950883401158407,16.1162068230167
0.00871441126434887,16.1188492320861
0.00793175502707304,16.1216691433221
0.00716462725324811,16.1246874402669
0.00641689450014975,16.1279287993668
0.00569266890786544,16.131421805076
0.00499627202210182,16.1351997196178
0.00433217953505537,16.1393014158788
0.00370491805087918,16.1437726883001
0.00311887766660019,16.1486684803417
0.00257803702200733,16.1540569386644
0.00208563197594365,16.1600269128002
0.00164754322048959,16.1666389618722
0.00127777055441894,16.1737346236197
0.00101027620883699,16.1806718586257
0.000796092919418256,16.1882030518426
0.000610970240160894,16.1969610696007
0.000469004750962966,16.206223307585
0.000361047680815841,16.216223307585
0.000287232950609609,16.226223307585
0.000237607219992875,16.236223307585
0.00020492742360009,16.246223307585
0.000184055057251776,16.256223307585
0.000171449913084408,16.266223307585
0.000164717734003101,16.276223307585
0.000162251228072119,16.286223307585
0.000162976365447126,16.296223307585
0.000166185302273625,16.306223307585
0.000171428811456293,16.316223307585
0.000178446449718957,16.326223307585
0.000187120903595667,16.336223307585
0.00019744903844996,16.346223307585
0.000209525614384175,16.356223307585
0.00022353748741483,16.366223307585
0.000239767359941497,16.376223307585
0.000258607328543107,16.386223307585
0.00028058388618941,16.396223307585
0.000306397937764297,16.406223307585
0.000336986222459366,16.416223307585
0.000373615118496975,16.426223307585
0.000418025680779945,16.436223307585
0.000471812829834259,16.4460809148316
0.000533367861693689,16.455198852129
0.000603561109950141,16.4636107799476
0.000683549925931382,16.4713711536591
0.000774677372940302,16.4785313549289
0.000878472535886331,16.4851390723302
0.000996667595429454,16.4912385651699
0.00113122302175302,16.4968709252692
0.00128435794713051,16.5020743086297
0.00145858511537412,16.5068841477939
0.00165675114925668,16.5113333557911
0.0018820848304749,16.5154525232707
0.00213825477549064,16.519270106326
0.00242943978209904,16.5228126093227
0.00276041741324874,16.5261047722313
0.00313667633117182,16.5291697669601
0.00356456400251917,16.5320294063077
0.00405148515229455,16.5347043804642
0.0046061782479877,16.5372145424575
0.00523911649939634,16.5395792745683
0.00595556893740026,16.5417967033746
0.00674786514328177,16.5438416023736
0.00762660705178388,16.5457491191035
0.00860799754865065,16.5475550095642
0.00971793973897028,16.5492987503826
0.0110042797521766,16.5510346049694
0.0126254868416056,16.5529176507166
0.0151063488691564,16.5553793915011
0.0166539689727738,16.5567605245127
0.0182707907840149,16.5581416575243
0.0197418177397721,16.5593895429089
0.0210587969712149,16.5605445757276
0.0222365537240032,16.5616602852853
0.0232683787599672,16.5627764392472
0.0241308828873628,16.5639337977158
0.0247788925586929,16.565191778202
0.025114795286962,16.5666800854416
0.0247405190366109,16.5689502041295
0.0239804004152846,16.5704428756376
0.022910883241857,16.5719355471457
0.0216991070342143,16.5733414104112
0.0203475717704292,16.574758084404
0.0188654195538954,16.5762316916003
0.0172608547329304,16.5777992147253
0.0166662371301055,16.5783820252194
0.01608155259047,16.5789648357134
0.013736217656596,16.581476662829
0.011265311916153,16.5845181201543
0.009327085160682,16.5873122333973
0.00779586566727518,16.5898845975537
0.00651532480421792,16.5923820623689
0.00539456613650996,16.5949252121398
0.00440890732508084,16.5975419056725
0.00354060284637769,16.6002553551858
0.00277518490177449,16.6030892215586
0.00216172041748361,16.6057751607311
0.00166470044059464,16.6083202290535
0.00125177960754578,16.6107680935098
0.000900045301693502,16.6131625477697
0.000593701576721069,16.6155423265896
0.000321167354648256,16.6179465753365
7.05109646362043e-05,16.6204505331014
-0.000182128204264057,16.623318412018
-0.000354804315759138,16.6255127651672
-0.00051259429488685,16.6277071183165
-0.000638497017483976,16.6295997034522
-0.000745087732473916,16.6313066672663
-0.000843498146920985,16.6329713675034
-0.00094044163747954,16.6346966061972
-0.00104289958568499,16.6366130196814
-0.00116524279414009,16.6390259215811
-0.00137699822523716,16.6435100143212
-0.00155295403123145,16.6475180444528
-0.00169573803251341,16.6509500403802
-0.00184282607808804,16.6546576651666
-0.00201933904889301,16.6593899458264
-0.00220396939673204,16.6649647820684
-0.00232576123010411,16.6697966937629
-0.0023803636204373,16.6741447959113
-0.00235649774896886,16.6780352645719
-0.00224639054007789,16.6815418509245
-0.00204352436390326,16.6847435233244
-0.00174097813783311,16.6877111504938
-0.00133162705017647,16.6904955251369
-0.000805307372164383,16.693148502248
-0.000138908705823634,16.6957507333133
0.000717656731758452,16.6984227708344
0.00190739969346731,16.7014447605653
0.00341363357534273,16.7046387432073
0.00527226303652594,16.7080236767786
0.00654702413984691,16.7100923359182
0.00795044439837008,16.7121609950578
0.00939551456717366,16.7140745406628
0.0108929232354314,16.7158409274115
0.0124596344402268,16.7174750301679
0.0141764621386149,16.7190475383819
0.0160491584041138,16.7205440173651
0.0181300710998832,16.7219881384992
0.0204406204526517,16.7233756373994
0.0230192671984385,16.7247125432394
0.0259003706077264,16.7260002683647
0.0291174251652764,16.7272390027584
0.0327183975730888,16.7284332824611
0.0367528762611067,16.7295857829116
0.0412782537915268,16.7306994607456
0.0463602709960058,16.7317772347743
0.0520808606503736,16.7328230990814
0.0585351384812513,16.7338406966972
0.0658375287204199,16.7348338994291
0.0741275255683995,16.7358069029114
0.08357690537254,16.736764274902
0.094404066532764,16.7377114243926
0.106890065945665,16.7386546790496
0.121408729621199,16.7396019199154
0.138477744132926,16.7405635690041
0.158855933858008,16.7415545244966
0.182451463858715,16.7425475088326
0.209874731602596,16.7435525525544
0.241948492029153,16.7445841333038
0.279873126713262,16.7456653718143
0.324173498555918,16.7468038180333
0.36556805236182,16.7477976203924
0.399988666951434,16.7486068813329
0.429718896483757,16.7493210795196
0.455710189032146,16.7499865183261
0.478128045600089,16.7506304583195
0.496706184305261,16.7512748894931
0.510743188314515,16.7519432652879
0.518821431335089,16.7526684553022
0.518060100945006,16.7534780289861
0.506147251095208,16.7543035643741
0.481835732794204,16.7551613838629
0.443479129424256,16.7560636474577
0.389220256276061,16.7570191351996
0.344837688441419,16.757670267321
0.295351596459211,16.7583213994423
0.251235039612583,16.7588640291561
0.213503136596108,16.7593151467971
0.18039975012772,16.7597105909986
0.150766531500325,16.7600716111245
0.123912834833495,16.7604110488256
0.0993716126297669,16.7607379962371
0.0767706912298826,16.761060285606
0.0557380838168351,16.761386661357
0.0357366970173779,16.7617311984627
0.01529689644623,16.7621344868902
0.00148518670174822,16.7624507741638
-0.00583399972085989,16.7626387157896
-0.012522466264947,16.7628266574154
-0.0183878892910012,16.7630074089875
-0.0243694981515279,16.7632111463785
-0.0301942805546681,16.7634338350605
-0.0356818745259403,16.7636728090142
-0.0407315524002092,16.7639269963767
-0.0452900697611922,16.7641963662657
-0.04933255412023,16.7644816121197
-0.0528437533021356,16.7647839955804
-0.0557999383305726,16.7651029386143
-0.0582343337381717,16.7654421967728
-0.0601660449609307,16.7658051720132
-0.0616092966344332,16.766195318343
-0.0625780191208915,16.7666168874541
-0.0630843906408377,16.7670751643527
-0.06313723942587,16.7675768074356
-0.0627401010218068,16.768130370883
-0.0618865387862414,16.768748339831
-0.0605561193027542,16.7694471546695
-0.0587065375170761,16.7702507356211
-0.0562517832443334,16.7711985123393
-0.0529904431700118,16.7723710668326
-0.0489292389144948,16.7737810754001
-0.0449857584642098,16.7751415617339
-0.0412160232504695,16.7764596052673
-0.0376480172192899,16.7777382417214
-0.0342959522906922,16.7789787039547
-0.0311662708708614,16.7801813100147
-0.0282602865594505,16.7813459282594
-0.0255755662803561,16.7824722220264
-0.0231068062740261,16.7835597767531
-0.0208464883913956,16.7846081618336
-0.0187854275247145,16.7856169542496
-0.0169132514468853,16.786585738406
-0.0152188263556413,16.7875140900777
-0.0136426242551091,16.788430309619
-0.0121252405102829,16.7893699232577
-0.0106713203016705,16.7903344139258
-0.00928482371112403,16.7913258602655
-0.00796952120205765,16.7923466980341
-0.00672894024205103,16.7933998107519
-0.00556631382260611,16.794488645701
-0.00448452669549686,16.7956173698057
-0.00348605930252212,16.7967910839072
-0.00257292897299726,16.7980161252957
-0.00174662730937246,16.7993005086095
-0.00100805155716961,16.8006545933842
-0.000357425643699737,16.8020921433419
0.000205797720929998,16.8036321100019
0.000672212568885304,16.80525842424
0.00103745835097784,16.8069301892975
0.00131803360090433,16.808665703771
0.00152858363375219,16.8104858390454
0.00168284101723991,16.812418402309
0.00179403423000724,16.8145026488925
0.0018754965627945,16.816798649281
0.00194181509933754,16.8194099278292
0.00201199078833377,16.8225556569421
0.002105954082358,16.8262904524906
0.00222834269722587,16.8302022205823
0.00237093668484914,16.8340047956054
0.00253038001327226,16.837776375668
0.00270312756832366,16.8415727192592
0.00288668044221738,16.8454353439626
0.00307993494906501,16.8493988464696
0.00328311800797601,16.8534947088467
0.00349759151189466,16.8577535668629
0.00372564198395826,16.8622067943054
0.00397032951312861,16.8668878454209
0.00423548545868809,16.8718337154187
0.00452593840853193,16.8770862518685
0.0048480778472996,16.8826935399023
0.00517474111169987,16.8881197112333
0.00551538679212474,16.8934885361421
0.00586940940461517,16.8987433552728
0.00624125646154824,16.9039067172383
0.00663457646387166,16.9089841256083
0.00705370577405864,16.9139862794578
0.00750308117173925,16.9189197211925
0.00798746210182405,16.9237889003011
0.00851197738268201,16.928595807843
0.00908225557810084,16.9333405674402
0.00970453334877956,16.9380217874964
0.0103857711820527,16.9426370533762
0.0111465597845745,16.9472573035421
0.0120043098529905,16.9519000961681
0.0129786166482605,16.9565731199155
0.0140972916085578,16.961300960967
0.0154037141658578,16.9661409375183
0.0169809049628696,16.9712384779886
0.0190651101693286,16.9770821004168
0.020910218553831,16.9816925183733
0.0228832316815228,16.9863029363297
0.0245078773119109,16.990047459054
0.02585335989001,16.9932861285626
0.0269841287529848,16.9963027777869
0.0278993173101655,16.9992312966996
0.0285430518072803,17.0020116149578
0.0289189074630154,17.0047604787363
0.029005225823141,17.0076174313397
0.0287207604791474,17.010839793917
0.0277494196828986,17.0151555707493
0.0268678787895864,17.0178055468023
0.0258167157566201,17.0204555228552
0.0247492187912228,17.0228634044817
0.023679523184362,17.0251192993228
0.0226078589929182,17.0272906334352
0.0215369496510554,17.0294146938755
0.0204704461222234,17.0315147146617
0.0194120509073495,17.0336069017639
0.0183652574598935,17.0357035069224
0.0173332809623163,17.0378143830492
0.0163190498342764,17.0399478650041
0.0153252142778002,17.0421113181053
0.0143541584552515,17.0443115080773
0.0134080164300783,17.0465548598942
0.0124886804037931,17.0488476715625
0.0115978142429853,17.0511962789491
0.0107368644011778,17.0536072056885
0.00990706684049452,17.0560873166591
0.00910813050904491,17.0586483781583
0.00831911089667841,17.0613778582981
0.00754379767152789,17.0642947279178
0.00678593151620062,17.0674219495312
0.00604950624043983,17.0707860785278
0.00533874662218979,17.0744179392525
0.00465806248908066,17.0783534721948
0.00401197168224961,17.0826348281471
0.00340496673389078,17.0873119881855
0.00284126406910757,17.0924458884754
0.0023245094296175,17.0981138509219
0.0018574784804453,17.104419237251
0.00145462846827163,17.1112627972672
0.00112185448412471,17.1186348141652
0.000908882813492666,17.1250829145195
0.000701722966560832,17.1333992714637
0.000537708618999384,17.1423885740773
0.000407863882328109,17.1523885740773
0.000318410464805112,17.1623885740773
0.000257683755753829,17.1723885740773
0.000217202056820751,17.1823885740773
0.000190857175151455,17.1923885740773
0.000174376704019747,17.2023885740773
0.000164845373840557,17.2123885740773
0.000160299409899172,17.2223885740773
0.000159422679195873,17.2323885740773
0.000161339746434904,17.2423885740773
0.000165481455977728,17.2523885740773
0.000171498130111777,17.2623885740773
0.000179202876855638,17.2723885740773
0.000188534781802601,17.2823885740773
0.000199536421476326,17.2923885740773
0.000212342660609048,17.3023885740773
0.000227179155582192,17.3123885740773
0.000244370133287952,17.3223885740773
0.000264356234585312,17.3323885740773
0.000287724747120862,17.3423885740773
0.000315256712825369,17.3523885740773
0.000347998729760676,17.3623885740773
0.000387372799155601,17.3723885740773
0.000435347259592142,17.3823885740773
0.000492112690177787,17.3919888814049
0.000556981704071277,17.4008584731025
0.000630931195068744,17.4090403193857
0.000715189130081058,17.4165880558436
0.000811169164018352,17.4235519269621
0.000920477227960465,17.4299785488991
0.00104493208163327,17.4359111805229
0.001186592432432,17.4413899787306
0.00134778931671957,17.4464522241871
0.00153116266930224,17.4511325334384
0.00173970505423746,17.4554630630468
0.00197681293039489,17.4594737064266
0.00224634976210362,17.4631922806902
0.00255272247527094,17.4666447123285
0.0029009792278111,17.4698552299115
0.00329693484677705,17.4728465669281
0.00374733663066229,17.4756401817939
0.00426009144990675,17.4782565140148
0.00484458666532292,17.4807153012558
0.00551216404006034,17.483035999841
0.00625791890589966,17.485188532789
0.00708339892380559,17.4871823653994
0.00800132691706846,17.4890531133766
0.00903126005976735,17.4908376860767
0.0102062104252435,17.4925802763314
0.0115931033210264,17.4943504875808
0.0134743175411079,17.4964137952881
0.0151161075157095,17.4980051098005
0.0168950409592021,17.499596424313
0.0185280192297152,17.5009978989555
0.0199570646573429,17.5022264197671
0.0212353968213003,17.5033733443103
0.0223749497286522,17.5044901895956
0.0233651827044434,17.5056158886647
0.0241788089213807,17.5067935296024
0.0247634859467947,17.5080911247019
0.0249969589409789,17.509675788556
0.0246258106279979,17.511508144705
0.0236661463696798,17.513340500854
0.0225572024598678,17.5148277375466
0.021318825928649,17.516236046841
0.0199450171709489,17.5176636372718
0.0184438767305271,17.5191547642476
0.0168226759117138,17.5207467785233
0.0151155257695836,17.5224859033243
0.0135872522471141,17.524171080535
0.0112487722497038,17.5270664842
0.0093269963819059,17.529840441133
0.0077974774014938,17.5324111398986
0.0065169116349464,17.5349093432143
0.00539599717418898,17.5374533244618
0.00441013147242553,17.540070872686
0.00354159117395839,17.5427852114733
0.00278994646483922,17.5455634916301
0.00218903350441932,17.5481800903197
0.00169915065906032,17.5506653736327
0.00128997102861593,17.5530611580193
0.000939499741990512,17.5554119890272
0.000631509542808869,17.5577661651001
0.000352483440171504,17.560189438835
8.4839137078191e-05,17.5628341707423
-0.000143834083858725,17.5653955952414
-0.000304995618128452,17.5673971622598
-0.000453105261958997,17.5693987292782
-0.000575025262143214,17.5711740376672
-0.000682650053063374,17.5728439551462
-0.000784645648014774,17.5745201630697
-0.000887637876498409,17.5763087649935
-0.00100075383266,17.5783872537789
-0.00115254605767714,17.5813662000236
-0.00132902995421201,17.585100903731
-0.00146702215500954,17.58822069036
-0.00159500814115942,17.5912681324173
-0.00173402158946098,17.5947495183866
-0.00189935651351509,17.5991554122262
-0.00209312535607281,17.6049067217273
-0.0022240610336221,17.6098266103516
-0.00229275848960221,17.6142742667469
-0.00228738391470093,17.618256310025
-0.00219964759234168,17.6218338947061
-0.00202297908003376,17.6250820181737
-0.00175083165584894,17.628072881419
-0.0013755114873355,17.6308686146266
-0.000886168577834796,17.6335274928612
-0.000263042060338391,17.6361202282165
0.000540203028275814,17.6387669783247
0.00164921774091182,17.6417225718302
0.00307987206326097,17.6448844653188
0.00486866495938858,17.64826206822
0.00618088007757132,17.6504631029632
0.00762982931284065,17.6526641377064
0.0090483670311371,17.6545980275365
0.010509067761487,17.6563746071382
0.0120409869726584,17.6580245084588
0.0137099317553404,17.659604590252
0.0155368239663186,17.6611147792193
0.0175650769269234,17.6625713096333
0.019816450070249,17.6639705314282
0.0223294323235651,17.6653190094821
0.025134201822079,17.6666165055399
0.0282680491998583,17.6678653965521
0.0317750284568847,17.6690690381741
0.0357028768028073,17.670230043019
0.0401043277312535,17.67135073336
0.0450472403650292,17.6724352195183
0.0506081604356901,17.6734868994053
0.0568779091577606,17.674509340208
0.0639654779450512,17.6755063322204
0.0720023359563845,17.6764818521876
0.0811518692470243,17.677440459235
0.0916185487926861,17.6783872563172
0.103663815258677,17.6793281850793
0.117631716013414,17.6802705255265
0.133991453009647,17.6812236856465
0.153416349619116,17.6822007480617
0.176141301299501,17.6831891490466
0.202512250941095,17.6841859508706
0.233278312098072,17.6852038700581
0.269492114647825,17.6862622159429
0.312896964909366,17.6873974508716
0.34775348666178,17.6882426725858
0.383904203321013,17.6890878942999
0.416060193385463,17.6898392323574
0.444197844721397,17.6905232477845
0.468729102914017,17.6911723380088
0.489611861737271,17.6918103626997
0.506399972545203,17.6924593549847
0.518122096752576,17.6931460275201
0.522766073580779,17.6939136824798
0.517183123307201,17.6947258898053
0.499897106364983,17.6955624929692
0.469450506121155,17.6964383267423
0.424044465936808,17.6973637860096
0.376601975582343,17.6981318385469
0.321221558388243,17.6988998910841
0.282446556742939,17.6993906088099
0.24186978954927,17.6998813265356
0.205445433357715,17.7003134305152
0.173170744870698,17.7006982025389
0.144176213532872,17.7010523791467
0.117847064824966,17.7013874547417
0.0937448878631801,17.701712025928
0.0715031869728552,17.7020339366597
0.0507274835466875,17.7023626733209
0.0307716360971579,17.7027154103281
0.00933857666967837,17.703155482989
0.000209352283429048,17.7033712244318
-0.00805402283898579,17.7035869658746
-0.0145074401524638,17.7037727530621
-0.0204684005752129,17.703961500361
-0.0264365248981387,17.7041714813329
-0.0321757707353619,17.7043992563533
-0.0375369080546639,17.704642785604
-0.0424376832868905,17.704901395699
-0.0468358170439915,17.7051753224415
-0.0507130918104501,17.705465458776
-0.0542659072760159,17.705795199413
-0.0570172392225593,17.7061213063129
-0.0592542103665041,17.7064690451252
-0.0609934479513537,17.7068417737693
-0.0622492878442248,17.7072432427786
-0.0630351876033636,17.7076780859488
-0.0633622253924747,17.7081520920183
-0.063237393823642,17.7086726078769
-0.0626610586958811,17.7092494317284
-0.061621404280909,17.7098967296092
-0.0600906274326541,17.7106333027362
-0.0580124758842647,17.7114879683676
-0.0552684773121028,17.7125116384926
-0.0515414103958259,17.713825943902
-0.0475126836710035,17.7152147605547
-0.0436264224488725,17.7165585690753
-0.0399271174194674,17.7178615803678
-0.0364362794801073,17.7191259223262
-0.0331646573544208,17.7203523658777
-0.0301165163611715,17.72154099492
-0.0272916307122991,17.7226915639039
-0.024686406841548,17.7238036857763
-0.0222946487720149,17.7248769280496
-0.0201081616599277,17.7259108568004
-0.0181172691874234,17.7269050494332
-0.0163112713380844,17.7278590874721
-0.0146788503029771,17.7287725355572
-0.0131232261648677,17.7296971050827
-0.0116282895773877,17.7306454820159
-0.0101982700175946,17.7316194531771
-0.00883706556678215,17.7326212165922
-0.00754836440180347,17.7336533583888
-0.00633559348394517,17.7347189506959
-0.00520186621903369,17.7358216804208
-0.00414992787993578,17.7369660236472
-0.0031820986338911,17.7381574875781
-0.0023002135489964,17.7394029558553
-0.00150555817503218,17.740711198381
-0.000798796892288078,17.7420936555295
-0.000179888531693802,17.7435657074234
0.000352021909627055,17.7451488664151
0.000779524904683987,17.7467894841209
0.00111219840405721,17.7484823207869
0.00136563982320152,17.7502458682814
0.00155412114267177,17.7521031711344
0.0016911322665677,17.7540855040525
0.00178984628299423,17.7562381963313
0.0018638574267437,17.7586332478879
0.00192875236596235,17.7614024365859
0.00200731855798111,17.7648610414857
0.00210948098443634,17.7686292367797
0.00223911117913651,17.7724994305993
0.00238772932795332,17.7762866761831
0.00255158098425166,17.7800606470958
0.00272740997688392,17.7838720067372
0.00291321299262669,17.7877598216166
0.00310837591362745,17.791757522624
0.00331353747606996,17.7958961832088
0.00353037605811182,17.8002065154534
0.00376140953506317,17.8047203482374
0.00400988088490457,17.8094719953642
0.00427981538479997,17.8144997110759
0.00457633188067807,17.8198469978041
0.00489954680205381,17.825447898027
0.00522751570351558,17.8308643810813
0.00556956326741532,17.8362159181971
0.00592562065020564,17.8414543505191
0.00630021326517402,17.8466027643748
0.00669706726157997,17.8516673287924
0.00712052577313677,17.8566582275653
0.00757504285099509,17.8615815154574
0.00806540410187772,17.866441112203
0.00859678847159428,17.8712386042757
0.00917489818407394,17.8759738122309
0.00980606497782474,17.8806451266252
0.0104973676887119,17.8852500257529
0.0112725969313235,17.8898754708342
0.012147125484105,17.8945218170507
0.0131419791843234,17.8992013324165
0.0142866149457521,17.9039416408306
0.015628281874802,17.9088085902196
0.0172614228612641,17.913973146912
0.0194844479050836,17.9200632514542
0.0212439944499993,17.9243849858274
0.0231043990822696,17.9287067202005
0.0246810833203272,17.9323491197128
0.0259986465997699,17.9355491584949
0.0271048147982056,17.9385508064704
0.0279873418908237,17.9414551049953
0.0285999894932178,17.9442254620593
0.0289438997684275,17.9469789169319
0.0289931100713005,17.9498608470928
0.0286529129697252,17.9531603425785
0.0278883280817154,17.9565640667066
0.027018965194797,17.9592797708897
0.0259646519416278,17.9619954750728
0.0248962350725079,17.9644354522807
0.0238267808322775,17.9667077669475
0.0227552426128786,17.9688882852287
0.0216839983060435,17.9710174347531
0.0206166396027258,17.9731198500987
0.0195568839362997,17.9752124794238
0.0185082591477537,17.9773080119551
0.0174740198538697,17.97941657325
0.0164571328665619,17.9815466754302
0.015460285905491,17.9837057973776
0.0144858986622511,17.9859007758457
0.0135361374992664,17.9881380789632
0.0126129283628113,17.9904240162531
0.0117179641622857,17.992764922382
0.0108527213436103,17.9951672957718
0.0100184633272931,17.9976379617421
0.00921625778266165,18.0001841988036
0.00842569113933945,18.0028896489427
0.0076483106990347,18.005779695672
0.00688784924341558,18.0088767659219
0.00614826674589361,18.0122068880044
0.00543375675858787,18.0158002665073
0.0047487070758641,18.0196920905205
0.00409762631919485,18.023923592209
0.00348501800264598,18.028543587116
0.00291516029585573,18.0336112203982
0.00239179490171507,18.0392011314535
0.00191782252436381,18.045412466605
0.00150552174432166,18.0521905857826
0.00122389839532592,18.0579801850904
0.00100825521600054,18.0637697843983
0.000783279535767644,18.0717434146893
0.00060040826073857,18.0805534616681
0.000459356473889361,18.0899577059151
0.000354136236179373,18.0999577059151
0.000282261960946206,18.1099577059151
0.000233990544797845,18.1199577059151
0.000202242429199829,18.1299577059151
0.000182007303390764,18.1399577059151
0.000169839321693172,18.1499577059151
0.000163409690566685,18.1599577059151
0.000161155222768927,18.1699577059151
0.000162031662966091,18.1799577059151
0.000165351691104329,18.1899577059151
0.000170680580567411,18.1999577059151
0.000177768354745766,18.2099577059152
0.000186505422114226,18.2199577059152
0.000196894530165573,18.2299577059152
0.000209035158282741,18.2399577059152
0.000223118248992837,18.2499577059152
0.000239430398380449,18.2599577059152
0.000258367806473691,18.2699577059152
0.000280461701076965,18.2799577059152
0.000306418861390621,18.2899577059152
0.00033718372730843,18.2999577059152
0.000374033212835232,18.3099577059152
0.000418723316141935,18.3199577059152
0.000472796139325396,18.3298038259886
0.000534674122505046,18.3389103114082
0.000605233964137394,18.34731131053
0.000685638784850461,18.3550613172585
0.000777237924409938,18.3622117251428
0.000881567529835622,18.3688102267399
0.00100036784917507,18.374901079958
0.0011356085832504,18.3805253713084
0.00128951945091513,18.3857212485334
0.00146462533644086,18.3905241339799
0.00166378686896666,18.3949669295722
0.00189024905172953,18.399080214913
0.00214769947207173,18.4028924358549
0.00244033926901527,18.4064300881519
0.00277297267946999,18.4097179059175
0.0031511206791383,18.4127790593326
0.00358117058588049,18.4156353653302
0.0040705774372067,18.4183075267431
0.0046281450211358,18.4208154218484
0.00526443437860327,18.4231784773655
0.00598373707620535,18.4253919276169
0.00677929084980219,18.4274341368278
0.00766192743308035,18.4293403716506
0.00864821031752627,18.4311465793937
0.00976478775757803,18.4328928086434
0.0110614052345026,18.4346349640398
0.0127073760711585,18.4365382580605
0.0146329493166074,18.4384743969752
0.0162287753382656,18.4399291536035
0.0179131905887475,18.4413839102318
0.0194205242928921,18.4426653655003
0.020763655356416,18.443836293245
0.0219665027242401,18.4449583867941
0.0230263311109191,18.4460731986198
0.0239231404342747,18.4472201825802
0.0246173380287827,18.4484528686061
0.0250277038288251,18.4498775186213
0.0248729427992095,18.4519137452953
0.0242208389899091,18.453469443864
0.0232019647242448,18.4550251424327
0.0220362706304815,18.4564438543369
0.0207292945677096,18.4578522090482
0.0192890994183188,18.4593049960375
0.0177249209135557,18.4608397895123
0.0167453268906739,18.4617998618464
0.0157880302438492,18.4627599341805
0.01438563229311,18.4642472277686
0.0119391972388176,18.4671374142256
0.00986517265383356,18.4699908294966
0.00822813233435332,18.4726184148034
0.00689177848353478,18.4751089058335
0.00572506723199246,18.477634611944
0.00469982041545119,18.4802265164804
0.00379694867316411,18.4829080911629
0.00300113823382455,18.4857026675585
0.00234905829991274,18.4884102710843
0.00182296750327404,18.4909700093954
0.00138848205691801,18.4934213927119
0.00102049316948251,18.4958085407833
0.00070124763564981,18.4981741942394
0.0004177192965281,18.5005628376079
0.000157486830938333,18.5030491436561
-0.000101791114127211,18.5058680667104
-0.000285995428577734,18.5081174083017
-0.00045343601739043,18.510366749893
-0.000584663348180565,18.5122804281593
-0.000694572608970076,18.5139929760781
-0.000795397370767671,18.515656432615
-0.000894128454532177,18.5173739758093
-0.000997711299652242,18.5192720760125
-0.00111968854388053,18.5216341801113
-0.00133574616400665,18.5261469461484
-0.00151857654033802,18.5302825106696
-0.00166498796331723,18.5337964834518
-0.00181360591549572,18.5375518693555
-0.00199150663490957,18.5423508921714
-0.00217339078536726,18.5478976474782
-0.00229349919746217,18.5527211864856
-0.00234718144101328,18.5570632050434
-0.00232329711491971,18.5609511357543
-0.00221407255796919,18.5644523634045
-0.00201302925170816,18.5676457637972
-0.00171329486986619,18.5706021954066
-0.00130730815786258,18.5733761998625
-0.000784179329671578,18.5760221758134
-0.000120381111151378,18.5786205413743
0.000736652821638446,18.5812978192706
0.00192625268453359,18.584321937407
0.00343482814956063,18.5875234162468
0.00529595324971356,18.5909154252456
0.00656522789171027,18.5929762103108
0.00796305971380761,18.595036995376
0.00940970215684196,18.5969521385665
0.0108928065023011,18.5987007405488
0.012459984317367,18.6003344855096
0.0141788520065591,18.601907300543
0.0160527569415649,18.6034026817832
0.0181356261789898,18.6048458100118
0.020448470177294,18.6062321750746
0.0230300272799323,18.6075679998333
0.0259146463066031,18.6088546859364
0.0291356839551136,18.610092368568
0.0327412191748422,18.6112856226257
0.0367808826663618,18.6124371252553
0.0413122934338685,18.6135498744645
0.0464009120791331,18.6146267033621
0.0521288772124425,18.6156716378574
0.0585913901465835,18.6166883174233
0.0659029565630929,18.6176806067488
0.0742031397758116,18.618652691324
0.0836638455022558,18.6196091337698
0.0945033187031359,18.6205553095163
0.107002446927953,18.6214975193116
0.12153447652074,18.6224435950227
0.138615656463335,18.6234038742734
0.159001326434176,18.6243930988622
0.182617434071958,18.6253848167273
0.210061076270049,18.6263883423005
0.242151726054038,18.6274179924973
0.280081894282279,18.6284965787188
0.324484817722001,18.6296342163331
0.366090192841119,18.6306294485678
0.40063096820143,18.6314381942309
0.430445145026367,18.6321512200822
0.456509997651402,18.632815337948
0.478999393884144,18.633457943534
0.497650691597248,18.6341010803907
0.511764400374686,18.6347682622366
0.519922434687348,18.6354925182514
0.519235520499631,18.6363010598965
0.507384299256735,18.6371257336146
0.483119512425544,18.6379829547947
0.444787065501597,18.6388849689565
0.3905179230699,18.6398405442387
0.345953322839788,18.6404939185415
0.296233346778273,18.6411472928443
0.251932715020525,18.6416912576537
0.214074880450648,18.6421430008738
0.180879402563843,18.6425387153894
0.151173594048163,18.6428998218868
0.124259917307874,18.6432392342764
0.0996677510492023,18.6435660751349
0.0770229733863215,18.6438881845808
0.055952809542759,18.6442142915222
0.0359213673362158,18.644558396336
0.015472553919143,18.6449606289611
0.00139397366607741,18.6452823388071
-0.00591812221711389,18.6454699380014
-0.0126004175831312,18.6456575371957
-0.0184729703374515,18.6458383535417
-0.0244587881004201,18.646042087872
-0.0302856807842307,18.6462647250183
-0.0357740772115128,18.6465036202394
-0.0408237055348276,18.6467577143011
-0.0453815874737883,18.6470269840091
-0.0494230140650397,18.6473121279203
-0.0529331681362756,18.6476144115556
-0.0558990419605655,18.6479345891177
-0.0583300738427073,18.6482738685913
-0.0602581781575118,18.6486368746424
-0.0616977327835868,18.6490270846058
-0.0626626768207855,18.649448760687
-0.0631651761018445,18.6499072018891
-0.063214021707543,18.6504090862592
-0.0628126775711682,18.6509629966952
-0.0619545521901209,18.6515814763108
-0.0606189875633627,18.6522810315957
-0.0587632465818208,18.6530857254711
-0.0563003476126544,18.6540353096941
-0.0530258191575852,18.6552113988186
-0.0489626885328019,18.656621086602
-0.0450177158797029,18.6579814624073
-0.0412467263378281,18.6592994882666
-0.0376775759439127,18.6605781637271
-0.0343244253109991,18.6618187014543
-0.0311936976582551,18.6630214075751
-0.0282867015487109,18.6641861430747
-0.0256010050708147,18.6653125665262
-0.0231313080232245,18.6664002601737
-0.0208700963016058,18.6674487912188
-0.0188081883544434,18.6684577351299
-0.0169352145689259,18.6694266752958
-0.015240042635166,18.6703551868672
-0.0136635776206271,18.6712713026718
-0.0121459102970716,18.6722108085501
-0.0106916905046664,18.6731751838383
-0.00930487886255726,18.6741665057381
-0.00798924666291955,18.6751872082334
-0.00674832246178108,18.6762401726566
-0.00558534060495957,18.6773288435446
-0.00450318747153379,18.6784573843154
-0.00350434541467134,18.6796308912404
-0.00259083397637884,18.6808556955148
-0.00176414730146226,18.682139803418
-0.00102518555498657,18.6834935626284
-0.000374176044964237,18.6849307193184
0.000189424522218073,18.6864701975675
0.000656309118997767,18.688096349108
0.00102194591163204,18.6897678748696
0.00130284401439661,18.6915030729184
0.00151365232472586,18.6933227910615
0.00166810519688892,18.6952547996003
0.00177943022303147,18.697338290466
0.00186095535686017,18.6996332129936
0.00192725276984504,18.7022428175727
0.00199727827417652,18.7053854322914
0.00209104132833108,18.7091200829744
0.00221329878443777,18.7130356181153
0.00235569795560568,18.7168397582532
0.00251487912548977,18.7206114892427
0.00268729297136407,18.724407004734
0.00287043531130786,18.7282680306322
0.00306319497594175,18.7322292651611
0.0032657879233801,18.7363222333223
0.00347956081299604,18.7405775756199
0.00370677993702686,18.7450266430679
0.0039504783111185,18.7497028396702
0.00421444981640496,18.7546430838688
0.00450346901218317,18.759889123756
0.00482384531407147,18.7654889276308
0.00514974988415537,18.7709275459899
0.0054891034166712,18.7763024437182
0.00584176107335282,18.7815647604515
0.00621197539925114,18.7867343601732
0.00660342445990295,18.7918175872081
0.00702040421926056,18.7968250618629
0.00746732709021603,18.8017635322424
0.00794891527897416,18.8066375613885
0.00847025569487612,18.8114492623184
0.00903692830323555,18.8161988640251
0.00965511513902683,18.8208850638198
0.0103317139941005,18.8255054957417
0.0110857920251504,18.8301232784888
0.0119357516752601,18.8347644928205
0.0129005184135946,18.8394346184566
0.0140071798365667,18.8441569664655
0.0152974434714667,18.8489851913096
0.0168496056065132,18.8540541700365
0.0188769362503323,18.8598009205725
0.0207677076160488,18.8645636345681
0.0223776763552488,18.8683527184041
0.0240255548389946,18.8721418022402
0.0254435449665688,18.875487411191
0.0266409317623967,18.8785548424835
0.0276315154533567,18.8815127247021
0.0283622603412488,18.8843277947886
0.0288262660512531,18.8870733352022
0.0290117464434992,18.8898761933076
0.0288647433401135,18.8929329301794
0.0281583642504207,18.8968654990722
0.0273219806051612,18.8997240222345
0.0262651756430463,18.9025825453968
0.0251939092296761,18.9050974529281
0.0241247841099585,18.9074069506473
0.023053677017717,18.9096078514723
0.0219820144242603,18.9117482640753
0.0209132043859167,18.9138560859441
0.01985097851412,18.9159499378869
0.018798931431436,18.9180434722881
0.0177603968003251,18.9201474077748
0.0167384215058645,18.9222706322563
0.0157357700179643,18.9244208635857
0.0147549349934563,18.9266050833898
0.0137981530757208,18.9288298331918
0.0128674152876814,18.9311014454969
0.0119644785471932,18.9334262266165
0.0110908796259158,18.9358106059867
0.010247939074223,18.9382612993414
0.00943677863148702,18.9407854337639
0.00864325607087867,18.9434431464434
0.00786185092247531,18.9462800695469
0.00709631673997306,18.9493174627565
0.00635054391003167,18.9525803255346
0.00562866578201775,18.9560976282005
0.0049350214886539,18.9599030916905
0.00427409694344764,18.9640361457577
0.00365041694512334,18.9685432834811
0.00306834589684467,18.9734804322486
0.00253180964499954,18.9789172126531
0.00204396269415249,18.9849448428805
0.0016123144860465,18.9915964341722
0.00124833433311459,18.9987393031702
0.00101090580948889,19.0049885241423
0.000784913230435334,19.0129624262921
0.000604193683829025,19.0216235017483
0.000462316591355463,19.0309944941007
0.000355953979849539,19.0409944941007
0.000283234994006526,19.0509944941007
0.000234348362726702,19.0609944941007
0.000202157447943735,19.0709944941007
0.000181601683753847,19.0809944941007
0.000169195547407577,19.0909944941007
0.000162581966451159,19.1009944941007
0.000160178640608652,19.1109944941007
0.000160928369684672,19.1209944941007
0.000164134669088825,19.1309944941007
0.000169355894838342,19.1409944941007
0.00017633647249369,19.1509944941007
0.000184961920652525,19.1609944941007
0.000195230325457884,19.1709944941007
0.000207236292406617,19.1809944941007
0.00022116521969961,19.1909944941007
0.000237296959982805,19.2009944941008
0.000256019098007557,19.2109944941008
0.000277851448542913,19.2209944941008
0.000303485230664551,19.2309944941008
0.000333843126082109,19.2409944941008
0.000370170864569252,19.2509944941008
0.000414178583256851,19.2609944941008
0.000467744726842693,19.2709066268707
0.000529066530297988,19.2800762963713
0.000598997588480938,19.2885353667444
0.000678687349023545,19.2963386542126
0.000769472362196948,19.303537937536
0.000872875310464897,19.3101812615663
0.000990621427568198,19.3163132049881
0.0011246634946611,19.321975147866
0.00127721206861509,19.3272055079033
0.00145077043739153,19.3320399554954
0.00164817461204358,19.3365116202646
0.0018726415850085,19.3406512906167
0.00212782662118406,19.3444876038367
0.00241789342888427,19.3480472302879
0.00274760224336663,19.3513550619563
0.00312242159897112,19.3544344101924
0.00354867535916074,19.3573072158788
0.00403373995902321,19.3599942867986
0.00458631929311737,19.3625155840386
0.00521684325205837,19.3648905893156
0.00593129280329615,19.3671195355444
0.00672144907785218,19.3691747283026
0.00759786690971003,19.3710915082318
0.0085767080404603,19.3729058718593
0.00968380935430457,19.3746575301274
0.0109668935358539,19.3764010235914
0.0125820107810445,19.3782899202866
0.0150524378996436,19.3807583196842
0.0165946222729093,19.3821441470945
0.0182058429285817,19.3835299745048
0.0196716409199738,19.3847819422098
0.0209837157029548,19.3859405354183
0.022156878235701,19.3870594836476
0.0231844525109526,19.3881786533262
0.0240431334049075,19.3893388375902
0.0246879331044157,19.3905993896146
0.0250218017831468,19.3920895180412
0.0246502163299655,19.3943589983364
0.0238926703401325,19.3958556127829
0.0228256302257546,19.3973522272294
0.0216170135445983,19.3987606456245
0.0202694477152234,19.4001790134382
0.0187920845115501,19.4016536222304
0.0171932000454776,19.4032214012401
0.0166003948299711,19.403804513608
0.0160175721239213,19.4043876259759
0.0136796253653389,19.4069010673353
0.0112241337587323,19.4099347529644
0.00929607341464889,19.4127235616231
0.00777135125597482,19.4152929663019
0.00649406563262717,19.4177915880606
0.00537593005395726,19.4203365333137
0.00439248467966587,19.4229554878966
0.00352607456889348,19.4256716648752
0.00277232503311551,19.4284681599764
0.00217064134249678,19.4311005905348
0.00168078156280159,19.4335996335007
0.00127208206742156,19.436007507263
0.000922445214542058,19.4383684292222
0.000615876557652279,19.4407278658338
0.000339497221734105,19.4431438362489
7.76686275064184e-05,19.4457437464571
-0.000218971050507234,19.4491396905706
-0.000367622558766032,19.4510556562266
-0.000505047409690528,19.4529716218826
-0.000622070794955904,19.4547219377488
-0.000726856085419608,19.4563877903215
-0.000827176275524937,19.4580738771557
-0.000929619185341154,19.4598905965184
-0.00104418326474161,19.4620379903541
-0.00120879884364183,19.4653375444003
-0.00137429812586217,19.468904540545
-0.00150662331714941,19.4719315716803
-0.00163445104391055,19.4750004809995
-0.00177580396585418,19.4785646249638
-0.00194621098087264,19.4831425316866
-0.00213334186656736,19.4887841786994
-0.00225817997650571,19.4936497258499
-0.00231857218003281,19.4980381553407
-0.00230308032255779,19.5019660666392
-0.0022036943933886,19.5055002759994
-0.00201392782479201,19.5087160687939
-0.00172726814681374,19.5116836569346
-0.00133567036915323,19.5144653061777
-0.00082788594968362,19.5171174477182
-0.000183823686063849,19.519708668237
0.00064602522885155,19.5223648907017
0.0018068986887067,19.5253786772739
0.00328178502156442,19.528564080666
0.005113119860188,19.5319537493784
0.006408793503636,19.5340871408078
0.00783774707249887,19.5362205322371
0.00927051403548493,19.5381401789928
0.010737490529718,19.5398917955194
0.0122915644226448,19.5415335990279
0.0139827558931545,19.5431026485499
0.0158381239617141,19.5446046699534
0.0178982808285828,19.546052821879
0.0201867001207948,19.5474445708977
0.0227407704680181,19.5487854622049
0.0255938193022779,19.5500766203944
0.028779951633621,19.5513187051272
0.0323459305985444,19.5525159894643
0.036340615412163,19.5536711438219
0.0408194116688155,19.5547868534131
0.0458491698214155,19.5558665685113
0.0515095517726256,19.5569140158776
0.0578939370191108,19.5579328030183
0.0651145336935998,19.558926761622
0.073307828779892,19.5599000226871
0.0826415201589605,19.5608570679573
0.0933283527722029,19.5618031939079
0.105640875412654,19.5627445371838
0.119939727031718,19.5636886804111
0.136720680169155,19.5646455436246
0.156702462243532,19.5656290956267
0.179949925993167,19.5666190198478
0.206947953863098,19.5676192373938
0.238484733221236,19.5686433267859
0.275688830477819,19.5697124578062
0.319704094372449,19.5708486830311
0.362541365260381,19.5718753546518
0.397832229674577,19.5726986741644
0.428157340243714,19.5734179784293
0.454667714624908,19.5740845614371
0.477604842563649,19.5747271276637
0.496751337533784,19.5753679747999
0.511462837411926,19.5760302126301
0.520423747624842,19.5767454085355
0.520867701246065,19.5775523795885
0.510235004970975,19.5783738351212
0.487319998412182,19.5792266066079
0.450495890268526,19.5801234672863
0.39789414365866,19.5810733533478
0.352630051491711,19.5817482900768
0.301715863226497,19.5824232268058
0.256425581857814,19.5829810378215
0.217914076529576,19.5834403855428
0.184256156534753,19.5838405064135
0.154191855871771,19.5842042944312
0.12698445063482,19.5845452890587
0.102145334136485,19.5848728723646
0.0792934672415862,19.5851949286074
0.0580597831827768,19.5855199733685
0.0379377998507248,19.5858610886027
0.0176639975277709,19.5862529554754
0.00909003000700446,19.5864392526782
0.00118435791268002,19.586625549881
-0.00699245528149716,19.5868366482223
-0.0135816842796961,19.5870239545712
-0.0195072822169758,19.5872089987436
-0.0254880501339657,19.5874160172778
-0.0312720355592178,19.5876413303962
-0.0366960540126833,19.5878826199837
-0.0416695487142286,19.5881390338671
-0.0461452993979008,19.5884106867362
-0.0501020854507319,19.5886983795925
-0.0536104577373785,19.5890119744683
-0.0564619523503982,19.5893339987739
-0.0587984147806655,19.5896773012591
-0.0606345203697762,19.5900449438338
-0.0619845621099863,19.5904405218737
-0.0628622749552283,19.5908684738378
-0.0632793283483897,19.5913343304377
-0.063243677964437,19.5918450849998
-0.0627575022763991,19.5924097678152
-0.0618115717795916,19.5930419079205
-0.0603819683135425,19.5937589574234
-0.0584198375145451,19.5945871270823
-0.0558243783864932,19.5955710619302
-0.0523450060500891,19.5968087405869
-0.048296492631563,19.5982082266203
-0.0443775501581231,19.5995608430095
-0.0406390214354068,19.6008718964058
-0.0371056109881093,19.6021439498309
-0.0337898132636038,19.6033779954444
-0.03069701441118,19.6045742279026
-0.0278277932522061,19.6057324541653
-0.0251791682405833,19.6068523090875
-0.0227454157831103,19.6079333667021
-0.0205186992983173,19.6089751930313
-0.01848960157022,19.6099773642595
-0.0166475938864263,19.6109394630708
-0.0149814523818191,19.6118610601754
-0.0134145596834151,19.6127810599092
-0.0119073436862724,19.6137246383908
-0.0104642578217096,19.614693416671
-0.00908923457707143,19.6156895266461
-0.00778600761614759,19.6167154711475
-0.00655805936727503,19.6177742177492
-0.00540856914423929,19.6188693203915
-0.00434035901210931,19.6200050833899
-0.00335583731703007,19.6211867878173
-0.00245693936257168,19.6224210126894
-0.00164506401836131,19.6237161057737
-0.000921003800387779,19.6250829014839
-0.00028486361184129,19.626535870146
0.000264041530722695,19.6280950751865
0.000712505127903657,19.6297276244973
0.0010627122946125,19.6314086641521
0.00133073192623825,19.6331565327402
0.00153103403973341,19.6349930451844
0.00167723299652527,19.636947500749
0.00178252020291846,19.639061743659
0.00186032494006698,19.6414008541298
0.00192562899229552,19.6440799167027
0.00199888093592826,19.6473552243128
0.00209600777534554,19.6510995062423
0.0022215220126319,19.6549951424957
0.00236669784742907,19.658791587963
0.00252793880492156,19.6625636706149
0.00270180767470724,19.6663651855383
0.00288601976260167,19.6702367114216
0.0030796865778193,19.674212396763
0.00328321394250204,19.6783235615763
0.00349809636696981,19.6826008599201
0.0037267096175701,19.6870758224085
0.00397217317438479,19.6917822072815
0.00423837000306735,19.6967574622982
0.00453020300784702,19.7020440328475
0.00485330125961333,19.7076753046614
0.00517934118012063,19.7130956582919
0.00551984528237568,19.7184649498253
0.0058736553140133,19.7237169918445
0.00624549004697335,19.7288786378698
0.00663893617670465,19.7339545401242
0.00705834149247463,19.7389556480642
0.0075081211240098,19.7438882987024
0.00799302144311715,19.7487568314808
0.00851816061369751,19.7535631355086
0.00908916326682235,19.7583072795907
0.00971226670601636,19.7629878384587
0.0103944360259733,19.7676023803561
0.011156506593672,19.7722230848739
0.0120157379677372,19.7768661967589
0.0129918387085059,19.7815397676757
0.0141127540766542,19.7862686341016
0.0154221749778409,19.7911108039592
0.0170040186054146,19.7962137131811
0.0190990641667356,19.8020760452457
0.020936345598113,19.8066601739324
0.0228991009392486,19.811244302619
0.0245199103111339,19.8149804995912
0.0258633476334848,19.8182162353675
0.0269923574999448,19.8212317468077
0.0279052159747904,19.8241584987441
0.0285467427782033,19.8269380788942
0.0289203412934261,19.8296872353472
0.0290040584172022,19.8325458871699
0.0287157716327916,19.8357733993745
0.027740868756104,19.8400866220784
0.0268585545923467,19.8427335191829
0.0258073839130845,19.8453804162875
0.0247399210163976,19.8477865871007
0.0236702132118089,19.8500416019778
0.0225985427196819,19.85221246906
0.0215276503807716,19.8543363049587
0.0204611902011644,19.8564362661641
0.0194028636029834,19.8585285181022
0.018356161781,19.8606252896225
0.0173242973811693,19.8627364204689
0.0163101962107927,19.8648702385316
0.0153165060025161,19.8670341062217
0.0143456084693379,19.8692347897558
0.0133996353439673,19.871478717322
0.0124804766712349,19.8737721925404
0.0115897940681719,19.8761215599997
0.0107290321610663,19.8785333540579
0.00989942495118366,19.8810144541634
0.00910057033090393,19.8835770115916
0.00831166387801046,19.8863081590418
0.00753649582917523,19.8892268987423
0.0067788089780362,19.8923562254817
0.006042599011317,19.8957227336254
0.00533209230139747,19.8993572943288
0.00465169968513805,19.9032959052915
0.00400593922262212,19.9075807876724
0.00339930191087565,19.9122620160933
0.00283600029359875,19.9174006596774
0.0023196730421247,19.923074248167
0.00185308719653374,19.9293864644875
0.00145086333097718,19.9362346629187
0.00111939641535704,19.9436121961329
0.000899477962490712,19.9503300832166
0.000696246728061902,19.9585939255143
0.000533560802920711,19.9676109225428
0.000405284297750016,19.9776109225428
0.00031697310064335,19.9876109225428
0.0002773065941322,19.9938054612714
0.000246353347642047,20
