ecg,time
0.000590522286169278,15.0007828692308
0.000668107111573455,15.0085727845346
0.000756203032665699,15.0157674323972
0.000856238329648289,15.0224132521205
0.000969832842260663,15.0285533710999
0.00109882079309995,15.0342278695421
0.00124527898356713,15.0394740068679
0.00141155918763986,15.0443264233627
0.00160032481555553,15.04881733437
0.00181459504861488,15.0529767171293
0.00205779657337787,15.0568324857577
0.00233382609851918,15.060410656537
0.00264712815791653,15.0637355170231
0.00300279211422799,15.0668298021543
0.00340667807334673,15.0697148761177
0.00386558210847962,15.0724109322094
0.0043874615607756,15.074937227673
0.00498175317142463,15.0773123720168
0.0056598396601962,15.0795547098555
0.00641488223080686,15.0816304672276
0.00724922015513119,15.0835523611748
0.00817508092158431,15.0853538892291
0.00921092347138286,15.0870691564808
0.0103871395146241,15.0887378033688
0.0117684801250962,15.0904254523529
0.0135907558586106,15.0923412751919
0.0154126734646479,15.0940222317033
0.0174120881858386,15.0957031882147
0.0191459352625146,15.0970921687925
0.0206459024459286,15.0982917605144
0.0219879480031586,15.0994080908657
0.0231880275494758,15.1004937762182
0.0242367567907297,15.1015872147161
0.0251074831338476,15.1027303224069
0.025748730752465,15.1039885511342
0.0260417453132479,15.1055201553277
0.0257151125184166,15.107329844699
0.0247641707220992,15.1091395340702
0.0236480256987995,15.1106023570581
0.0223937896235496,15.1119874631754
0.0209949649692836,15.1133945444087
0.0194594507616293,15.1148682693147
0.0177942105246245,15.1164465823008
0.0164303765334499,15.1177672845136
0.0151428146362983,15.1190879867265
0.0126273290045569,15.1219475619925
0.0104254488140268,15.1248647273907
0.00870217566587544,15.1275381145933
0.00732107599992337,15.1300323090151
0.00612685637088731,15.1325405706374
0.00508082571421673,15.1351087093874
0.00418985021937672,15.1376754274671
0.00346583484562661,15.1401159331734
0.00286801024721686,15.1424578147317
0.00236397645424912,15.1447402105874
0.00192714953328049,15.1470203293681
0.00153137284587469,15.1494058602023
0.00113167398514638,15.1522275527276
0.000884179125776809,15.15424886851
0.000664393552522881,15.1562701842923
0.000489632851510876,15.1580646280512
0.000344031954418278,15.1597127744922
0.000213017297161096,15.1613369616799
8.78549404292867e-05,15.163035649467
-3.99774890168322e-05,15.1649459885852
-0.000187651812079217,15.167419693782
-0.000405051842574717,15.1717380796191
-0.000560059665126237,15.1755071058182
-0.000674238514709528,15.1788243881507
-0.000779145032880096,15.1824819463702
-0.000885179360235735,15.1872112979013
-0.000964657480485251,15.1925975066748
-0.000989957721106861,15.1973407424887
-0.000963051895829611,15.2016427996167
-0.000880347907080915,15.2055227393562
-0.000737391238795596,15.2090230671772
-0.000528943373917957,15.2121944008184
-0.000249136167369596,15.2150858184832
0.000109443345368683,15.2177492972131
0.000557752513563274,15.220241620107
0.00111252269997859,15.2226219852915
0.00180317594902398,15.2249642713644
0.0026815623734685,15.2273617516615
0.00384764795045623,15.2299545679188
0.00543971115058285,15.2328589760505
0.00692234820780513,15.2351468995982
0.00863388718149031,15.237434823146
0.0103268463733493,15.2394008085896
0.0120165411130305,15.2411163271203
0.013831030895174,15.2427281146688
0.0157730779186487,15.2442324081313
0.0179057665213923,15.2456685180039
0.0202724856808451,15.2470491624522
0.0228934989920982,15.2483703859394
0.0258212800347405,15.2496437068219
0.0290915277323807,15.2508693666808
0.0327544534410598,15.2520517784378
0.0368630089830795,15.2531938157671
0.041474195357567,15.254297595148
0.0466602255426451,15.255366874686
0.0525042214254385,15.256405094057
0.0591041942776187,15.2574157490442
0.0665779984571167,15.2584025988966
0.0750683081167267,15.2593696481108
0.0847552165303117,15.260321742505
0.0958642415277091,15.2612642126021
0.108686861253502,15.2622034158344
0.123611376161142,15.263147296598
0.14117562981286,15.2641063449021
0.162100787388469,15.2650926011553
0.186330574198255,15.2660812559096
0.214498055001456,15.2670826014203
0.247452034707198,15.2681112609374
0.286444092108266,15.2691910969894
0.331853286869861,15.2703267897949
0.372767974082088,15.2712869916673
0.406808596587465,15.2720733709366
0.436267642007845,15.2727721177532
0.46201582711228,15.2734266670315
0.484170837247984,15.2740633257268
0.502418484111242,15.2747041193941
0.515980252354722,15.2753736061831
0.52326318824178,15.2761082020473
0.521193453290153,15.2769145817947
0.507755254388667,15.2777403773707
0.481622228110085,15.2786017941659
0.441063843993958,15.2795106901914
0.384155217125569,15.2804756456437
0.339842261448106,15.28110734407
0.290852110392081,15.2817390424962
0.247201479815481,15.2822684073685
0.209764365028087,15.2827114659848
0.176860720599382,15.2831016356468
0.147379434611243,15.2834589750568
0.120649134236951,15.2837958077446
0.0962093396838294,15.2841210179661
0.0736864820917782,15.2844424420079
0.0526958280756335,15.2847691368163
0.0326512312259611,15.285116459348
0.0117604534909634,15.2855335851041
0.000737420051235427,15.285787085133
-0.0066236989170449,15.2859743046924
-0.0133510047995209,15.2861615242518
-0.0192262382200444,15.2863407920315
-0.0252284935411494,15.2865431225278
-0.0310804089842175,15.2867644456478
-0.0365980889911732,15.2870020518998
-0.0416786681298997,15.2872548385558
-0.0462676330393657,15.2875227516449
-0.0503393625703549,15.287806465441
-0.0539517275861393,15.288114342759
-0.0569160196851012,15.288431533332
-0.0593618796058291,15.2887694507802
-0.0613034436848936,15.2891310124787
-0.0627549247315253,15.2895196575115
-0.0637302935896532,15.289939627756
-0.0642417612155911,15.2903961977268
-0.0642981674078159,15.2908960148312
-0.063903020666565,15.2914476223208
-0.0630498495407986,15.2920634564221
-0.0617180142347719,15.2927599682183
-0.0598648100844339,15.2935610714316
-0.0574034084671805,15.2945062093251
-0.0541303614159408,15.2956760807413
-0.0500378134409823,15.2970880909351
-0.0460619906243984,15.298450623773
-0.0422594429200713,15.2997708772674
-0.0386586227824928,15.3010518679439
-0.0352740604069298,15.3022948098595
-0.0321124538483558,15.303500003558
-0.0291753353255822,15.304667301472
-0.0264604586432919,15.305796352821
-0.0239626752169678,15.3068867309316
-0.0216745896432562,15.3079379953064
-0.0195871074756676,15.3089497154926
-0.0176899165571164,15.3099214711778
-0.0159719150745329,15.3108528364225
-0.014381169721974,15.3117672956142
-0.012848703077183,15.3127050695281
-0.0113792419096551,15.3136675775754
-0.00997674580762807,15.3146568740494
-0.00864498680305994,15.315675364257
-0.00738749487982502,15.3167258937729
-0.00620750588278126,15.31781186195
-0.00510790687697239,15.318937374219
-0.00409117885599524,15.3201074510591
-0.00315933620871346,15.3213283223988
-0.00231386161245198,15.3226078555502
-0.00155563369677853,15.3239562010827
-0.000884842329864464,15.3253868136892
-0.000300881259484684,15.3269181624523
0.000188531834975099,15.3285417205906
0.000575452584712326,15.3302093592747
0.000876713267110097,15.3319393820341
0.00110716856081985,15.3337522491085
0.00128076789709463,15.3356751250442
0.00141097564599903,15.337746162369
0.00151140506609908,15.3400233320413
0.00159701278317546,15.3426054438189
0.001687328319181,15.3456973527713
0.00180415547746397,15.3494306945708
0.00194918588005008,15.3533626785041
0.00214473896419867,15.3578903000289
0.00234407836909681,15.3620415989745
0.00254274059364034,15.3659516558143
0.00274226946890689,15.3697661531189
0.00294408415545476,15.3735642146388
0.00314996524028268,15.3773979331646
0.00336212949934672,15.3813071440219
0.00358319140653679,15.3853258143893
0.00381611272483116,15.3894852451426
0.00406420040965354,15.393816301817
0.00433115108590268,15.3983508657155
0.00462120418087032,15.4031232398766
0.00493946281880428,15.4081715179582
0.00529246414763893,15.4135387389133
0.00565603469761832,15.4188021898146
0.00603600617454151,15.4240146587872
0.00643273963909752,15.4291387256977
0.00685026513836625,15.4341830116053
0.00729276328681951,15.4391516092306
0.00776516261406638,15.4440517313942
0.00827279210128963,15.4488886733339
0.00882142759655809,15.453665673085
0.00941735322905832,15.45838385604
0.0100674705695268,15.463042657579
0.010784841534806,15.4676737261253
0.0115915804747102,15.4723391563899
0.0125038736939468,15.4770363456216
0.0135460354423214,15.4817857128849
0.0147535661066532,15.4866295806444
0.0161884800818087,15.4916705485962
0.0179963833455013,15.4972050640711
0.0204150609799057,15.5036606880222
0.021984210764534,15.5075076362907
0.0235926816699258,15.5113545845593
0.0249972233916371,15.5147935066959
0.0261819753636221,15.5179357271078
0.027161552471277,15.5209554735239
0.0278903267594787,15.5238455083764
0.0283530210818256,15.5266562146375
0.0285390131291405,15.5295158197332
0.0283977089738493,15.5326181922919
0.0277235811384216,15.5365404832634
0.0268847241792569,15.5395153389676
0.025816060967018,15.5424901946718
0.0247372920498082,15.5450882896541
0.0236635855372935,15.5474660119638
0.0225892624291358,15.5497293196505
0.0215153093532606,15.5519296866654
0.0204450111845937,15.5540966400406
0.0193820727422712,15.5562497936055
0.0183300991925607,15.55840350165
0.0172924546198053,15.560569027123
0.0162722259223924,15.5627557146754
0.0152722226277718,15.5649716875766
0.0142949865324056,15.5672242989208
0.013342801181613,15.5695204509581
0.0124177056660471,15.5718668240575
0.0115215025564976,15.5742700705812
0.0106557657668594,15.5767369824029
0.00982185616482197,15.5792746224209
0.00902092234216514,15.5818904952176
0.00824822419900757,15.584613550886
0.00748900760801194,15.587520131512
0.00674712429953218,15.5906312367887
0.00602639696533008,15.5939720367909
0.00533084737585647,15.5975716209755
0.00466465497231598,15.6014637237548
0.00403207539776491,15.6056877272405
0.00343731012074116,15.61029015462
0.00288430927883408,15.6153271900121
0.00237649003576146,15.6208694415364
0.00191650631016176,15.6270095671634
0.00150710081955401,15.6338559709326
0.00116319713743574,15.6412277028996
0.000885867446367418,15.6492301266792
0.000678037990987834,15.6578575332282
0.000536515849717394,15.6660246966855
0.00041497939145052,15.6756664645253
0.000327597354269055,15.6856664645253
0.000268713446898502,15.6956664645253
0.000230280596896536,15.7056664645253
0.000206407418921852,15.7156664645253
0.000192883147270167,15.7256664645253
0.0001868120896548,15.7356664645253
0.000186269806080111,15.7456664645253
0.000190015558932618,15.7556664645253
0.00019728431457934,15.7656664645253
0.000207651752342331,15.7756664645253
0.000220953147111841,15.7856664645253
0.000237238995889745,15.7956664645253
0.000256757183337895,15.8056664645253
0.000279957852511747,15.8156664645253
0.000307522010569655,15.8256664645253
0.000340419413908204,15.8356664645253
0.00038000723668737,15.8456664645253
0.000428190780608423,15.8556664645253
0.000484832364802235,15.8652261205904
0.000549373340274841,15.8740626547452
0.000622738510279642,15.8822199733764
0.00070610020030943,15.8897507014267
0.000800814947578578,15.89670400719
0.000908426362934711,15.9031254735958
0.00103068377814813,15.9090573944094
0.00116956800068817,15.9145390403799
0.00132732245166128,15.919606885235
0.00150648777496627,15.9242948159813
0.00170994359522559,15.928634334224
0.00194095671004997,15.932654748285
0.00220324062251015,15.9363833502939
0.00250102638500148,15.9398455899372
0.00283915319575099,15.943065255109
0.00322318335081668,15.9460646599445
0.00365955225467213,15.9488648435936
0.0041557718244801,15.9514857990565
0.00472071349213671,15.9539467512896
0.00536501862399378,15.9562665149999
0.00609183990457342,15.9584370776275
0.00689504350990718,15.9604401660798
0.00778542212552468,15.9623100571201
0.00877937900632209,15.964081535918
0.00990313976299083,15.9657931414883
0.0112051562669495,15.9674980439836
0.0128544263101157,15.9693576061454
0.0153814244181455,15.9717916431999
0.0169532426813837,15.9731534698079
0.0185949252032219,15.9745152964159
0.0200891324757003,15.9757464104424
0.0214278842447382,15.9768868514963
0.022626099453347,15.9779893099455
0.0236769648398632,15.9790931447304
0.0245567833450802,15.9802389874477
0.0252196705742182,15.9814865482213
0.0255657768107552,15.9829677131374
0.0251824435189128,15.9852412115298
0.0244132212270709,15.9867177519546
0.0233351935784814,15.9881942923795
0.0221120890448575,15.9895897319292
0.0207459776436532,15.990999548689
0.0192460269566614,15.9924691806761
0.0176202103649675,15.9940358449757
0.0170166540514297,15.9946197541725
0.0164230888135335,15.9952036633692
0.0140514908133717,15.9977101828611
0.0115234988824022,16.0007838568878
0.00955019762187917,16.0035996571771
0.00799902826487646,16.0061839511866
0.00671193965368926,16.0086768530858
0.00558780874509753,16.0112128854428
0.00464207648481394,16.0137038749548
0.00386731822314908,16.0160779066046
0.00322255788900467,16.0183628639181
0.00267497126554014,16.0205972153694
0.00219688919167335,16.0228388045714
0.00175953584193832,16.0252017129501
0.00130494536063893,16.0280808868582
0.00104593631643443,16.029975234785
0.000814248507457089,16.0318695827118
0.000625622953227132,16.0335816023936
0.000465616841850156,16.0351770586438
0.000319838936070948,16.0367656953754
0.000178860636794981,16.0384457523619
3.23974336703715e-05,16.0403678205059
-0.000144308056480014,16.0429769214574
-0.00037640381993461,16.0470251919576
-0.000540076134648758,16.0504564020408
-0.00066843060918169,16.0536102039595
-0.000791847637235445,16.0571782327878
-0.000922746098652682,16.0618456488084
-0.00103522533163707,16.0673777951481
-0.00108941454741622,16.072211579026
-0.00109083379456603,16.0765983162666
-0.00103645700474586,16.0805471619918
-0.000922084366061824,16.0841086741666
-0.000742915898603213,16.0873280211072
-0.000493122226609431,16.0902600133549
-0.000165504279540845,16.09295777772
0.000250227760284082,16.0954779618739
0.000771009068609418,16.0978857662323
0.00142994308069834,16.100271770059
0.0022854900067145,16.1027462782896
0.00349314453113132,16.1055672458624
0.00505510731356567,16.1085627214216
0.00653191187994601,16.1109792697683
0.00822660917820777,16.1133958181149
0.00983304688247941,16.1153949770107
0.0114221751261124,16.1171308259406
0.0131275416648157,16.1187637629875
0.0149437785383143,16.12028117353
0.0169518239539581,16.1217394618254
0.0191683247319952,16.1231330783341
0.0216424787459939,16.1244763349501
0.0244030449326714,16.1257679889193
0.0274931814705845,16.1270127835871
0.0309559552858913,16.1282130781322
0.0348347892520667,16.1293699481494
0.0391890738760743,16.1304876288775
0.0440827667163718,16.1315690433062
0.049590741253653,16.1326173310442
0.0557996951055752,16.1336355490206
0.0628175879389559,16.1346276693747
0.0707731188784292,16.1355976126532
0.0798235961613403,16.1365496159674
0.0901647835007422,16.1374884270123
0.10204500069126,16.1384195273488
0.115785957472092,16.1393494344183
0.131820622784158,16.1402864820562
0.150752805279781,16.1412417318471
0.173132708485905,16.1422172356779
0.199060027881196,16.1431971817435
0.229223844913907,16.144192280609
0.264559155318367,16.1452181692472
0.30650713592894,16.1463023150385
0.343377697628559,16.1471766904058
0.382124309339222,16.148051065773
0.416274158299973,16.1488119165639
0.445987606324557,16.1494927573173
0.471976577074857,16.1501323002164
0.494351829428973,16.1507565204428
0.512781352121946,16.151387763452
0.5264374879738,16.152051883072
0.53357815342177,16.1527895134506
0.530945181690412,16.1535880548589
0.51671288247987,16.1544096019587
0.489477487928793,16.1552708266586
0.44739284240401,16.1561838966101
0.388409624678875,16.1571571187305
0.343158717362046,16.1577869763885
0.293266736424998,16.1584168340465
0.248958392967687,16.1589439876598
0.211054022841541,16.1593847308205
0.177795980664163,16.1597726612722
0.148030300839488,16.1601279047109
0.121062618709192,16.1604628022321
0.0964180069395473,16.1607862538435
0.0737113505144557,16.1611061419232
0.0525442333323975,16.1614316650051
0.0323005041881634,16.1617787053018
0.0110137456561638,16.1622003607963
0.00061044680142332,16.1624375460675
-0.00674627537966725,16.1626224288985
-0.0134719490151334,16.1628073117295
-0.0193893054829828,16.1629856415969
-0.0254289351732977,16.1631867729892
-0.0313138644228297,16.1634066992587
-0.0368611224236678,16.1636427779339
-0.0419682678848529,16.16389394138
-0.0465810013296432,16.1641601529195
-0.0506738520598812,16.1644420948055
-0.0542340630377176,16.1647410140517
-0.0573339305637657,16.1650680811709
-0.0597916699517517,16.1654044908114
-0.0617419384925553,16.1657643704393
-0.0632003615365807,16.1661513157839
-0.0641810763210399,16.1665695877104
-0.0646964010459857,16.1670244875903
-0.0647552105414346,16.1675227052717
-0.0643609356722877,16.1680728525932
-0.0635068505329999,16.1686874710022
-0.062171714873967,16.1693832150712
-0.060311512906628,16.1701844022777
-0.0578362778589457,16.1711314278342
-0.0545324414698083,16.1723081679885
-0.0504216437514334,16.1737217523938
-0.0464264341522383,16.1750865307086
-0.0426035862534187,16.1764095011922
-0.0389818141739206,16.17769355215
-0.0355759190834912,16.1789398161909
-0.0323928757789103,16.1801485378857
-0.0294344850526397,16.1813195287131
-0.0266987477440503,16.1824524066262
-0.0241807310318168,16.1835467206254
-0.0218732178716026,16.1846020114542
-0.0197672521026765,16.1856178348479
-0.0178526195956629,16.1865937614377
-0.0161182782910729,16.1875293610457
-0.0145236500100596,16.1884413181766
-0.0129867789309189,16.1893764807145
-0.0115125190426862,16.1903361779284
-0.0101048483035808,16.191322429954
-0.00876756423534766,16.1923375994728
-0.00750422884677055,16.1933844790584
-0.00631811695390557,16.1944664012518
-0.00521216202999421,16.1955873859382
-0.00418889953434835,16.1967523420441
-0.00325040724370689,16.1979673508286
-0.00239824143783994,16.1992400761743
-0.00163336660594583,16.2005803811052
-0.000956074142150976,16.2020012969258
-0.000365881058970951,16.2035206354951
0.000132280720844724,16.2051404194843
0.000525958010446499,16.2068023603525
0.00083225408790945,16.2085247951184
0.00106610109213969,16.2103276227832
0.00124147862984891,16.212237138073
0.00137181021209963,16.2142900123046
0.00147055085178395,16.2165414285164
0.00155225193395279,16.2190840530298
0.00163529801534226,16.2221047674695
0.00174384774713896,16.2258391691799
0.00187785579480581,16.2297295872515
0.00205923318864946,16.2341801851654
0.00226807217249492,16.2387354231616
0.00246735629481953,16.2428126035934
0.0026625779390492,16.2466882822539
0.00285699392800835,16.2504899021311
0.00305315627529955,16.2542883637346
0.00325359634152862,16.2581320704027
0.0034609960472045,16.2620591917443
0.00367821715229132,16.2661027957173
0.00390833714867304,16.2702939136567
0.00415470605291856,16.2746635197261
0.00442104768771933,16.2792439165959
0.00471167051301654,16.2840701620306
0.00503184587515987,16.2891813698133
0.00538643204698926,16.2945914196082
0.0057481458973438,16.2998318350693
0.00612809607978766,16.3050358890283
0.00652522800622896,16.3101447425436
0.00694430779721898,16.3151764588106
0.00738940179335315,16.3201330591471
0.00786555275230627,16.3250224371773
0.00837811155229576,16.3298493264532
0.00893291095610851,16.3346166278632
0.00953630391226662,16.3393251032941
0.0101952888757803,16.3439739553289
0.010925986393992,16.3486118752582
0.0117484161345974,16.3532819049075
0.0126801498206574,16.3579864304271
0.0137468393050764,16.3627480356195
0.0149869926396041,16.3676157754412
0.0164704605831162,16.3727103744596
0.0183745151639598,16.378402055514
0.0207943733613595,16.3847389562403
0.0223317564426115,16.3884741657283
0.0238924412476906,16.3922093752163
0.0252496294738992,16.395570054568
0.0263936237997081,16.3986762328858
0.0273317212777203,16.4016882811511
0.0280069044317078,16.4045536680124
0.0284156793095708,16.4073630764546
0.0285420480763476,16.410251690297
0.0283211601778429,16.4134442897007
0.027444606724517,16.4177881231988
0.0265739897635091,16.4205917295144
0.0255141332713708,16.4233953358301
0.024439857179792,16.4259108868901
0.0233662946333335,16.4282489880592
0.0222917854650438,16.4304908997755
0.0212184415251097,16.4326795995605
0.0201497714884704,16.4348410985235
0.0190894799336358,16.4369932289711
0.0180411116101711,16.4391493265895
0.0170079542160129,16.4413200322587
0.0159930162509847,16.4435142984815
0.0149990304753333,16.44574000332
0.0140284654546787,16.448004353775
0.0130835344553027,16.4503141802609
0.012166208576369,16.4526761515681
0.0112782264789746,16.4550969552417
0.0104210996175829,16.4575834676037
0.00959612936024557,16.4601428803449
0.00880440788810054,16.4627828730187
0.00803512998613905,16.46555567378
0.00728041532505726,16.4685175672755
0.00654408769406396,16.4716907409242
0.00583003036646018,16.4751014067584
0.00514231410874469,16.4787798999909
0.00448515014548133,16.4827614515894
0.00386279521758341,16.4870873064438
0.0032794026486114,16.4918064534204
0.00273881141649491,16.4969785488351
0.0022442396246322,16.5026796523384
0.00179811170330876,16.509010618496
0.00140777324657748,16.5159931616503
0.00108101635662156,16.5235278490329
0.000817311660171953,16.5320530256655
0.00066404207787074,16.5390334793989
0.000511529609699817,16.5483597956878
0.000402993241907935,16.5577244970204
0.000322627942611337,16.5677244970204
0.000269137970788413,16.5777244970204
0.0002349418243637,16.5877244970204
0.000214500448967518,16.5977244970204
0.000203900153654586,16.6077244970204
0.000200487909211933,16.6177244970204
0.000202530653073149,16.6277244970204
0.000208941616524126,16.6377244970204
0.000219090266925323,16.6477244970204
0.000232684144514705,16.6577244970204
0.000249702726765922,16.6677244970204
0.000270368108663043,16.6777244970204
0.000295145227130967,16.6877244970204
0.000324771426459117,16.6977244970204
0.000360321495203677,16.7077244970204
0.000403321991542949,16.7177244970204
0.000455940916594071,16.7277244970204
0.000516479657246377,16.7370478190679
0.000585371725181918,16.745654373929
0.000663662664803117,16.7535969200908
0.00075261147286638,16.7609276988215
0.0008536649840722,16.7676951508665
0.000968466666154389,16.7739441457917
0.00109887867398408,16.7797162927385
0.00124701020321585,16.7850502057344
0.00141525114945893,16.789981730896
0.00160630938371457,16.7945441626714
0.00182325692800965,16.7987684504709
0.00206958300230258,16.8026833927723
0.00234926000881446,16.8063158167652
0.00266682431014709,16.8096907607017
0.00302747882884802,16.8128316653866
0.00343722694661858,16.8157605737404
0.00390304904604638,16.8184983500585
0.00443314664170308,16.8210649417931
0.00503729086682496,16.8234797079757
0.00572734106373694,16.8257618638067
0.00649291511345299,16.827867998608
0.00734051450644382,16.8298237889588
0.00828411637000776,16.8316648225207
0.00934537577104131,16.8334285626213
0.0105619621646415,16.83516201771
0.0120297849894255,16.8369626751281
0.0141148041942955,16.8391555223142
0.0157102183680851,16.8406472440732
0.0174160149853597,16.8421389658323
0.018995374649476,16.8434792193812
0.0203937945171674,16.8446790890334
0.0216471115392958,16.8458121084487
0.0227604595596194,16.8469244763211
0.0237195181008115,16.8480547069718
0.0244925962779557,16.8492490774646
0.025018060659429,16.8505872553676
0.0251346376648895,16.8522967986397
0.0246487748692547,16.8540334109295
0.0236551872112041,16.8557700232193
0.0225270889276099,16.8572265134662
0.0212649526217105,16.8586312738636
0.0198675029770312,16.8600651257557
0.0183435346293202,16.8615692637186
0.0166995493025702,16.8631816676456
0.015244698864559,16.8646685401183
0.0128305369262652,16.8673983562736
0.010592043606291,16.870330662033
0.00883111335094935,16.8730281499539
0.00742171197837173,16.8755399728454
0.00620953307387187,16.8780501127174
0.00516242723377184,16.8805781778435
0.00430237436576657,16.8829973084158
0.00358470968555622,16.8853377010072
0.00297263216180541,16.8876443654702
0.00243362849388071,16.8899912669874
0.00192851756227436,16.8925493369235
0.00150825874329566,16.8950319375958
0.00122469767709606,16.896945089982
0.000971569838959182,16.8988582423682
0.000767394931587629,16.9005742526509
0.000591392879929485,16.9022028539231
0.00042907478889344,16.9038505812595
0.000270046830770607,16.9056257386236
0.000100900204867414,16.9077232012778
-0.000123839426097265,16.9109272862826
-0.00033250493148167,16.9144636938538
-0.000483462691828672,16.9174802274281
-0.000614828891851473,16.9205308321145
-0.000744639750608892,16.9240856478038
-0.000880623309904151,16.9287065183453
-0.000996297857014393,16.9341806491439
-0.0010511154409172,16.9389710488767
-0.00105133709135403,16.9433268075916
-0.00099428655932652,16.9472540371248
-0.000875895872249841,16.9508047930137
-0.000691319764446721,16.9540232513632
-0.000434537068025167,16.9569630849374
-9.78489961996872e-05,16.9596777000567
0.000329823768894321,16.9622236875041
0.000866866723516124,16.964667451039
0.00154563834517869,16.9670911434199
0.0024293254915545,16.9696157593899
0.00367109658173236,16.9724846874515
0.00526003451640586,16.9755000464107
0.00666698854123289,16.9777825404237
0.00827542999476816,16.9800650344367
0.00985116032552939,16.9820205124556
0.0114415415095693,16.9837522790848
0.0131358051522027,16.9853683712945
0.0149680525695362,16.9868928807719
0.0169846076515321,16.9883504722837
0.0192169061475868,16.9897472500556
0.0217050610888909,16.9910915139393
0.0244830722339664,16.9923851251699
0.0275896145209822,16.9936307472698
0.0310699807867091,16.9948318507939
0.0349690855547178,16.995989927959
0.0393450546032683,16.9971087256746
0.0442632655930505,16.9981914600946
0.0497994755206428,16.9992413233914
0.0560422745979728,17.000261540893
0.0630998580615546,17.0012559239302
0.0711035512865003,17.0022285607554
0.0802136802923296,17.0031837940202
0.0906304440794555,17.0041265191687
0.102609011704228,17.0050624395423
0.116482035053963,17.0059984078672
0.132701152992947,17.006943304533
0.151904447657252,17.0079091453003
0.174488424163031,17.0088908324913
0.200673853277145,17.009878883905
0.231179443140273,17.0108849598835
0.266996818631921,17.0119264164558
0.309708989714341,17.0130348748277
0.34549324620879,17.0138915164021
0.382843406076069,17.0147481579765
0.41598504938975,17.0155032034502
0.444921220783516,17.0161850395505
0.470198824127592,17.0168288748747
0.491849481096528,17.017459558496
0.509484162201356,17.0180992686437
0.522204456630103,17.0187743078256
0.528134769565723,17.0195267417182
0.524045936615889,17.0203318952814
0.508303566279853,17.0211608611251
0.479472383367984,17.0220294246598
0.435723400489424,17.0229488217348
0.375066739920418,17.0239275462524
0.331349006642101,17.0245284223849
0.283617068446014,17.0251292985175
0.241050981359952,17.0256378833953
0.204335574933003,17.0260685513861
0.17194617886263,17.0264508662501
0.142865766236053,17.0268029741358
0.116464251620832,17.0271363631251
0.0922976818278765,17.0274595948014
0.0699931650675835,17.0277805543929
0.0491440851541999,17.0281089376403
0.0290662211673099,17.0284627828214
0.00714960171242122,17.0289133550934
-0.00142099083646623,17.0291164491844
-0.009216409209299,17.0293195432753
-0.0156202010504748,17.0295029716927
-0.021611652174845,17.0296917333757
-0.0275994748816121,17.029901484112
-0.033349754924536,17.0301288337884
-0.0387161795398521,17.0303718247843
-0.0436182210183537,17.0306298337377
-0.0480146364618766,17.0309031277224
-0.0518871956919081,17.0311926213039
-0.0554641513850127,17.0315250957886
-0.0582013109958642,17.03185091067
-0.0604225197111332,17.0321983893235
-0.0621449591165265,17.0325709616857
-0.0633830309217679,17.0329724155168
-0.0641501643485095,17.0334074338085
-0.0644573017025541,17.0338818737279
-0.0643111566997644,17.0344031808988
-0.0637115322393241,17.0349813500173
-0.0626457220695159,17.035630752425
-0.0610844102588424,17.0363706209013
-0.0589683533470861,17.0372306421782
-0.0561717394290257,17.0382639552603
-0.0523481445829785,17.0396015785571
-0.0482944306683471,17.0409895942784
-0.0443859383897082,17.0423332000841
-0.0406657885025183,17.0436364081746
-0.037155029941845,17.0449012000573
-0.0338642379860897,17.0461282614148
-0.0307976259555435,17.0473176244804
-0.0279549684440496,17.0484690108788
-0.0253326928818478,17.0495820117941
-0.0229246291099611,17.0506561798372
-0.020722605295664,17.0516910707208
-0.0187169616452299,17.0526862547164
-0.016897006879884,17.0536413087072
-0.0152514241291765,17.0545557947799
-0.013685610519889,17.0554797123657
-0.0121802314141301,17.0564274091996
-0.0107395366909551,17.0574006494747
-0.00936741762003937,17.0584016217151
-0.00806755507537074,17.0594329002697
-0.006843367492779,17.0604975426269
-0.0056979578473301,17.0615992171917
-0.00463405815194904,17.0627423762345
-0.00365397121083829,17.0639324956667
-0.00275950882572031,17.0651764169905
-0.00195192474471004,17.0664828516603
-0.00123183899575294,17.0678631559752
-0.000599147059908444,17.0693325833967
-5.29005293440667e-05,17.0709124435397
0.000389596362982621,17.0725518955361
0.000736875913975135,17.0742430612797
0.00100469617930725,17.0760044028316
0.00120746999977047,17.0778587911368
0.00135885096032959,17.0798372205937
0.00147221855415931,17.0819845226457
0.00156145819099975,17.084371697103
0.00164263460963834,17.0871280576753
0.00173952262430843,17.0905597579672
0.00186054747211494,17.0943237821095
0.00201908521794683,17.0984571023175
0.00220804174762786,17.1027377743184
0.00239912974567758,17.1067098043329
0.00259235096632455,17.1105469449184
0.00278823562193479,17.114344724824
0.00298783756299568,17.1181621608343
0.00319282253913577,17.1220423748006
0.00340539078490257,17.1260209192846
0.00362818246893099,17.1301297970248
0.00386421921097911,17.1343999135165
0.00411689582593713,17.1388627368257
0.00439005965844876,17.1435516942806
0.00468823834195275,17.1485036151495
0.00501707719941797,17.1537599286386
0.00536935175349636,17.159145179547
0.00573156747627658,17.1644084703495
0.00611012205016644,17.1696080145452
0.00650623075052168,17.1747163130755
0.00692430821833253,17.1797458545762
0.00736869767041609,17.1847020989943
0.0078443720897206,17.1895923148385
0.00835662618253455,17.1944210004217
0.00891121035326151,17.1991906489905
0.00951439780789183,17.2039016997106
0.010173116905079,17.2085531412327
0.0109029643278472,17.2131907892886
0.0117243306820931,17.2178608782945
0.0126545793244598,17.2225650202841
0.0137192063039175,17.2273256001377
0.014956376517083,17.2321909382819
0.0164350493290307,17.2372797200248
0.018328727918675,17.2429533728828
0.0207490400045191,17.2493030379866
0.0222901875620673,17.2530502347124
0.0238563297691569,17.2567974314382
0.025218744179791,17.2601661674004
0.0263673335048964,17.2632760195371
0.0273101680871817,17.2662886971999
0.0279914285083301,17.2691566968446
0.0284063532586267,17.2719661168312
0.0285396418147121,17.2748512434261
0.0283281709460793,17.2780328874402
0.0274785951920093,17.2823186540612
0.0266118872598395,17.2851413301464
0.0255514467487183,17.2879640062316
0.0244768135376542,17.2904893593464
0.023403267171631,17.2928324571219
0.0223287583731779,17.2950772096928
0.0212552838342289,17.2972675741803
0.0201863296020825,17.2994299889731
0.0191256014900584,17.3015825118425
0.0180766519426396,17.3037386131686
0.0170427777635743,17.3059090218212
0.0160269967003323,17.3081027515463
0.0150320502696777,17.3103277260823
0.0140604153997822,17.3125911884121
0.0131143133142053,17.3148999992802
0.0121957226786327,17.3172608550466
0.0113063896749378,17.3196804694509
0.010447832990528,17.3221657461477
0.00962136120776078,17.3247239064538
0.0088280737592166,17.3273626634403
0.00805837330594754,17.3301296727338
0.00730309510271043,17.3330851533681
0.00656607187708278,17.3362511329968
0.00585117853589544,17.3396537069367
0.00516247893218389,17.3433230711548
0.00450417957558483,17.3472942892566
0.00388053649123937,17.351608395402
0.00329570872747878,17.3563140918808
0.00275354885465426,17.3614706191197
0.00225729870145158,17.36715336791
0.0018094079439018,17.373462185476
0.00141672570716954,17.3804287000096
0.00108782316981625,17.3879441020892
0.000875895541682105,17.3945661830878
0.000686805416263468,17.4026064981737
0.000533606726070777,17.4115361880307
0.000416628139713172,17.4210786343072
0.000331888091147051,17.4310786343072
0.00027529217533212,17.4410786343072
0.000238836183681237,17.4510786343072
0.000216688652715882,17.4610786343072
0.000204734800342976,17.4710786343073
0.000200180451405309,17.4810786343073
0.000201189327392881,17.4910786343073
0.000206594763643651,17.5010786343073
0.000215699643274442,17.5110786343073
0.00022815064642595,17.5210786343073
0.000243865504216439,17.5310786343073
0.000262997011185332,17.5410786343073
0.000285925508222895,17.5510786343073
0.000313278301774291,17.5610786343073
0.000345980113538681,17.5710786343073
0.000385344988555183,17.5810786343073
0.000433229727106549,17.5910786343073
0.000489749748880908,17.6006835615693
0.000554149394781788,17.6095638788084
0.000627324325924789,17.6177618512593
0.000710430521225789,17.6253302412356
0.000804811245075491,17.6323184049899
0.000911997003868462,17.6387721007915
0.00103372298487161,17.6447337867039
0.00117195436752663,17.650242889175
0.00132891719916061,17.6553360300745
0.00150713281072974,17.6600472368169
0.00170945910526236,17.6644081436092
0.00193913838832086,17.6684481837175
0.00219985624734767,17.6721947666465
0.0024958115203176,17.6756734510546
0.00283180585009391,17.6789081246072
0.00321335690660027,17.6819211915042
0.00364684621436301,17.6847337699551
0.00413971907931183,17.6873659188401
0.0047007622178164,17.6898369127345
0.00534050565906099,17.6921655942887
0.00606354878232188,17.6943480627568
0.0068624960422959,17.6963610467154
0.00774790382561101,17.6982388601451
0.00873583194266848,17.7000163022577
0.00985181323771358,17.7017316017968
0.0111425863083412,17.7034367655425
0.0127660881532706,17.7052836486028
0.0152373781236302,17.7076857002046
0.0168176972665917,17.7090645030733
0.0184737040549841,17.7104433059421
0.01998107140618,17.7116858710279
0.0213301625995063,17.7128320337527
0.0225384600877497,17.7139366885056
0.0236006330509786,17.7150397421734
0.0244943453115774,17.7161812228177
0.0251760465651959,17.7174183232729
0.0255531027799675,17.7188725612836
0.025257149491345,17.7210729774382
0.0245278696288012,17.7225678438869
0.0234709748955492,17.7240627103357
0.0222667768037527,17.7254610894177
0.0209186611945177,17.72686671244
0.0194357187766181,17.7283274579383
0.017826448850406,17.7298804844349
0.0167500618600203,17.7309237882443
0.0157142893603669,17.7319670920537
0.0132989673186695,17.7346244227036
0.0109554054609879,17.7376061245006
0.00911843290244655,17.7403440802021
0.00765793786130382,17.7428808238742
0.00641918665059429,17.7453820935141
0.00533536620146132,17.7479353528871
0.00441997460138201,17.7504586352625
0.00366858695181468,17.7528750056747
0.00304078478692279,17.7552180987529
0.00250351267247402,17.7575376533158
0.0020266814565395,17.7599198991081
0.00156983198255644,17.7625852119204
0.00123644386691593,17.7648452111068
0.000945210563261336,17.7671052102931
0.000729871683369724,17.7689935552826
0.000556516929475282,17.7706792942643
0.000403137134068005,17.7723185351885
0.000258647382478983,17.7740132966816
0.000113599086214187,17.7758892292099
-4.80006536671229e-05,17.7782286298714
-0.000305496990438285,17.7826651639384
-0.000497768442959199,17.786784512076
-0.00063365377764374,17.7903207102854
-0.000753820020396127,17.7941068515442
-0.000874495680106811,17.7989928110032
-0.000961733116663395,17.8043074794757
-0.00099289336071992,17.8090187054164
-0.000970212124790779,17.8132929692141
-0.00089050002307281,17.8171508887999
-0.00074929139413526,17.8206407289451
-0.000541564323796471,17.8238064211908
-0.000261116092420672,17.8267005993403
0.000100053685823333,17.8293760661461
0.00055350741810266,17.8318884572319
0.00111804054664165,17.8343014241613
0.0018245853192778,17.8366877771133
0.00273464700301512,17.8391605934394
0.00396885901085553,17.8418884461688
0.00559588209166207,17.8448435405306
0.00702364097316833,17.8470509649618
0.00866078299492793,17.849258389393
0.0102804728768762,17.851163433939
0.0119516061214999,17.8528842783743
0.0137497324068754,17.85450239721
0.0156647219796103,17.8560034495121
0.0177825656786147,17.8574455549638
0.0201246992562449,17.858826197107
0.022727337367091,17.8601513507449
0.0256358564073249,17.8614284064617
0.0288836944513839,17.8626569282201
0.0325228537306766,17.8638423005564
0.0366046544255529,17.8649870092921
0.0411849322335567,17.8660930723698
0.0463361314921892,17.8671645116379
0.0521400445677025,17.868204661866
0.0586936409138939,17.8692170258528
0.0661134576809942,17.8702053591471
0.0745406600802999,17.8711736729944
0.0841530705967751,17.8721267817163
0.095173277657819,17.8730699844499
0.107888654723598,17.8740095882876
0.122681487390167,17.8749534566639
0.14008021227165,17.8759119409279
0.160834831946254,17.8768987850408
0.184863626471916,17.8778876339562
0.212791404644549,17.8788886558637
0.24545404247355,17.8799162456532
0.28407578861171,17.8809936528005
0.329188663900055,17.8821288929693
0.370488269735744,17.8831019430057
0.404788227830835,17.8838955746533
0.434433066398099,17.8845983606205
0.460347731224685,17.8852552159773
0.48267537536691,17.8858929020099
0.501122862348947,17.8865334705294
0.514941966783842,17.8872011265202
0.522604517659524,17.8879311306872
0.52108959926483,17.8887374385752
0.508270619848156,17.8895621162604
0.482847410399817,17.890421518126
0.443110771700795,17.8913277066652
0.387146553417833,17.8922893072585
0.34260190595312,17.892930329104
0.293174165802517,17.8935713509495
0.249153068372972,17.8941068789849
0.211470271494902,17.8945534902087
0.178392081385871,17.8949458346478
0.148775025457242,17.8953045756021
0.121933345940168,17.8956422978346
0.0974003425836523,17.8959679907186
0.0748009463705264,17.8962894929319
0.0537545602476034,17.8966157197441
0.0336957649584815,17.8969614366141
0.0129813575243615,17.8973717338608
0.000954447868089268,17.8976466862006
-0.0064278324202327,17.8978342112918
-0.0131743433242196,17.898021736383
-0.0190412805799041,17.8982005027848
-0.0250420224793522,17.8984024278378
-0.0308980025354851,17.89862344012
-0.0364229861911781,17.8988607826775
-0.0415126975866007,17.8991133221736
-0.0461117905463429,17.8993809846787
-0.0501941404130083,17.8996644300495
-0.0538163876430405,17.8999718886828
-0.0567915914127044,17.900288733847
-0.0592482498845108,17.9006262544889
-0.0612004285110878,17.9009873532326
-0.0626623190782339,17.9013754528499
-0.0636479080862322,17.9017947745428
-0.06416945888893,17.9022505656243
-0.0642359061777696,17.9027494364088
-0.0638509096163427,17.9032998774558
-0.0630083057261851,17.9039142109606
-0.0616878511474004,17.9046087775024
-0.0598475679540279,17.905407244049
-0.0574022199350614,17.9063485072984
-0.0541533132002121,17.9075115491316
-0.050060762358867,17.9089247045097
-0.0460836717964996,17.9102880183782
-0.0422790933589723,17.9116089389756
-0.0386758517408464,17.9128905402238
-0.0352886634309061,17.9141340658528
-0.0321243355389306,17.9153398320422
-0.0291844729348691,17.9165076993991
-0.0264668821035137,17.9176373213045
-0.0239664541015238,17.9187282730977
-0.0216758234127064,17.9197801152002
-0.0195859174452433,17.9207924176094
-0.0176864389837527,17.9217647603874
-0.0159662951445243,17.9226967181564
-0.0143750973964125,17.9236108485584
-0.0128421078528898,17.9245482778267
-0.0113720708876771,17.9255104132483
-0.00996894886262513,17.926499304597
-0.0086365174725679,17.9275173514811
-0.00737831118425297,17.9285673923393
-0.00619757121174061,17.929652817483
-0.00509719094614863,17.9307777207213
-0.00407965875009686,17.9319471073328
-0.00314699753891705,17.9331671869354
-0.00230069984184557,17.9344457989834
-0.00154165572884919,17.9357930545751
-0.000870068535038863,17.9372223501301
-0.000285348284472401,17.9387520639845
0.000205164235334712,17.9403751134767
0.000592922413151837,17.9420419810833
0.000894796038252171,17.9437709737763
0.00112565223412293,17.9455824747532
0.00129944729961137,17.9475035284897
0.00142964429608024,17.949572082096
0.00152984178040957,17.951845717525
0.00161495281715686,17.9544223790793
0.00170437151405236,17.9575043429462
0.00182030947248385,17.9612376408469
0.00196421448318795,17.9651638188463
0.00215170403320162,17.9695334693676
0.00234321613590136,17.9735478566657
0.00253813877498507,17.9774024423222
0.00273646427993949,17.9812040420496
0.00293875850515298,17.9850161697136
0.00314632704728264,17.9888840267984
0.0033611288489434,17.992844160376
0.00358565977509117,17.9969290282702
0.00382286237259691,18.0011695864375
0.0040760909316271,18.0055970896764
0.00434915657459446,18.0102444879897
0.00464651546703675,18.0151478664378
0.00497365894374724,18.0203476801391
0.00532847024511234,18.0257493602853
0.00569149694781877,18.0310085929848
0.00607120720407677,18.0362156483588
0.00646784080599802,18.04132921138
0.00688597637407228,18.046364224789
0.00732986272048741,18.0513250289921
0.00780448933247487,18.0562192066539
0.00831515148152076,18.0610514229898
0.00886760125455732,18.0658244113629
0.00946810250675087,18.0705387998311
0.0101235607398605,18.0751936988245
0.0108484444883513,18.0798286442848
0.0116639178818082,18.0844968575968
0.0125868256099616,18.089198095252
0.0136421475100657,18.093953876017
0.0148668788909759,18.0988098824213
0.0163268951558969,18.1038776486294
0.0181829693528037,18.1094889216511
0.020603033051538,18.1158835461124
0.0221566660924487,18.1196735258331
0.0237414122454225,18.1234635055537
0.0251219336156854,18.1268615305787
0.026286231398046,18.1299847714466
0.0272451389592303,18.1330000216579
0.0279471049310674,18.1358771310062
0.0283829277046085,18.1386866312061
0.0285393642217479,18.1415599376995
0.028359178748414,18.144705158576
0.0275931743323179,18.1488136610285
0.0267391347183979,18.1517019599853
0.0256758225386893,18.1545902589422
0.0245996402281334,18.1571480038554
0.0235260952459105,18.1595068909316
0.0224516737712365,18.1617601875147
0.0213779513700147,18.1639551678397
0.02030833060561,18.166119667818
0.01924651981481,18.1682724584838
0.0181960972941567,18.1704274186349
0.0171603919031806,18.17259552567
0.0161424541431209,18.1747859484687
0.0151450575716741,18.177006705629
0.0141707097275826,18.1792650937144
0.0132216611781475,18.1815679957371
0.0122999189737658,18.1839221042919
0.0114072559726631,18.1863341084873
0.0105452168430172,18.1888108651277
0.00971513489750545,18.1913595277395
0.00891813283417135,18.1939877196869
0.0081469923562195,18.196733864053
0.00738982533592132,18.199666131277
0.00665047468055363,18.2028060540724
0.00593279052984284,18.2061792863065
0.00524081687912665,18.2098154954085
0.00457874772199319,18.213749108474
0.00395083958885586,18.2180203647993
0.00336127285488771,18.2226769103537
0.00281394754091158,18.22777649602
0.00231218964144179,18.2333921684286
0.00185854440160109,18.23962025476
0.0014579465471266,18.2465292706731
0.00112192758925585,18.2539758778275
0.000856339548901352,18.2620694568955
0.000685329383059843,18.2694069325054
0.000531623421478301,18.2783100050177
0.000415616992603459,18.2876728884956
0.000329291394210032,18.2976728884956
0.000271310308450472,18.3076728884956
0.000233634724233827,18.3176728884956
0.000210385477088992,18.3276728884956
0.000197385777512968,18.3376728884956
0.000191780268805908,18.3476728884956
0.000191679304647409,18.3576728884956
0.00019586894839342,18.3676728884956
0.000203605602474259,18.3776728884956
0.000214484583052056,18.3876728884956
0.000228361928193682,18.3976728884956
0.000245312397941186,18.4076728884956
0.000265614089264123,18.4176728884956
0.000289756506463001,18.4276728884956
0.000318473838213655,18.4376728884956
0.000352810002597461,18.4476728884956
0.000394228687363741,18.4576728884956
0.000444792774445367,18.4676728884956
0.000503151050700016,18.4770420443646
0.000569547225151455,18.4856967458627
0.000644979592513312,18.4936873198424
0.000730658715422576,18.501065347287
0.00082797632548434,18.5078788000492
0.000938513133788538,18.5141721800935
0.00106405974494707,18.5199868059726
0.00120664364518632,18.5253610620395
0.00136856122017576,18.5303306127368
0.00155241305958297,18.5349286065493
0.00176114730916874,18.5391858715808
0.00199810919365356,18.5431311007064
0.00226710244604477,18.5467910230314
0.00257246339765952,18.5501905760785
0.00291915475559578,18.5533530853386
0.00331288633817459,18.5563004501668
0.00376027241515214,18.5590533437849
0.00426904631369001,18.5616314464183
0.00484836123770198,18.5640537301909
0.00550922883330823,18.5663388314251
0.00624993820911138,18.5684656222527
0.00706852257257385,18.5704316735939
0.00797652802962046,18.5722709930622
0.00899144898946589,18.574018168206
0.010141719346284,18.5757125277941
0.0114813362847013,18.5774106810341
0.0132174022902811,18.5793052541125
0.0151055118567645,18.5811049378522
0.0167371531377028,18.582522194573
0.0184557455207578,18.5839394512938
0.0199905781622872,18.5851879345577
0.0213607035000043,18.586332933279
0.0225888736105354,18.587433331146
0.0236713682559337,18.5885295589832
0.0245870552294869,18.5896610401728
0.025294270409102,18.5908827277714
0.0257059407966352,18.5923076443857
0.0254906912352684,18.5944311869673
0.0247976288500539,18.5959397715276
0.0237558901115671,18.5974483560879
0.0225635418420169,18.5988454421797
0.0212248482132285,18.6002438756236
0.019748577590986,18.6016941480362
0.0181435187573448,18.6032336290242
0.0171293212678699,18.6042079686541
0.0161423171655449,18.605182308284
0.0137281470247412,18.6077738713673
0.0112787293137436,18.6108083631103
0.00936571327872817,18.6135886057049
0.00785469447536245,18.6161509687387
0.00658924504278384,18.6186461110694
0.00548331203606981,18.6211882423575
0.00453796687995071,18.6237310863443
0.00376687456232087,18.6261527174966
0.00312810259605099,18.6284803444118
0.00258798573961455,18.630752956942
0.00211852679867646,18.6330285570537
0.00169139177976058,18.635419490759
0.00125318835141047,18.6382981799132
0.000996245880283305,18.6402510593208
0.000767227490952622,18.6422039387284
0.000582418435549935,18.643958615973
0.000426763153110242,18.6455857664968
0.000285695130965418,18.64720013657
0.000149994230968971,18.6489006758372
1.00284360741001e-05,18.6508341503684
-0.000155872553077406,18.6534123881876
-0.000386737432814953,18.6576729472151
-0.000549277156344828,18.6613251642045
-0.000672535532948882,18.6646124010883
-0.000788467292884342,18.6682998386866
-0.000908698944953822,18.673139981319
-0.000999940271201531,18.6785189461754
-0.00103572523733811,18.6832673487983
-0.00101859356032054,18.687571431156
-0.000945175984608011,18.691452883293
-0.000811127260786274,18.6949547527492
-0.000611254574046103,18.6981282443022
-0.000339649827234423,18.7010231919016
1.11205445306128e-05,18.7036916380405
0.000452142967888597,18.7061912181542
0.00100084241634206,18.7085840179219
0.00169000501381089,18.7109539951377
0.00257968640602976,18.7134109770864
0.00380357159918644,18.716154697206
0.00541101162635544,18.7191152330197
0.00686273118789504,18.7213927797881
0.00852788277629226,18.7236703265565
0.0101705298562897,18.7256298314429
0.0118124843244354,18.7273455423207
0.0135794462136761,18.7289619544551
0.0154650356312747,18.7304662177922
0.0175467131634005,18.7319096569477
0.0198525978462495,18.733294153015
0.022415946424112,18.7346234528594
0.0252809538603216,18.7359044684963
0.0284810112210171,18.7371368435393
0.0320669591727642,18.7383257689885
0.0360888353331556,18.7394735819193
0.0406009403874662,18.7405821905396
0.0456746219110962,18.7416557274001
0.0513893062250009,18.7426974080432
0.0578393047011071,18.743710680726
0.0651366027117978,18.7446990888024
0.0734196564306937,18.7456668092831
0.0828590177738641,18.7466183919723
0.0936680462095574,18.7475589199777
0.106120402650504,18.7484943778115
0.120576882844791,18.7494321198386
0.137529702968825,18.7503816319494
0.157688521468691,18.7513562412137
0.181191495198262,18.7523389917127
0.20847281829651,18.7533309426964
0.240311798141008,18.7543449706613
0.277814020181739,18.75540105415
0.322569785133053,18.7565314215168
0.357191281049596,18.7573457718383
0.392893727656379,18.7581601221598
0.424659005743351,18.7588885114816
0.452476908904545,18.7595563985973
0.476695542175722,18.7601943032881
0.497216413446969,18.7608255241286
0.513521321783124,18.761472686781
0.524502113290215,18.7621649772607
0.527771058133856,18.7629538948623
0.520214401956297,18.7637646382947
0.500616456701957,18.7646044283663
0.467404276624239,18.7654877016809
0.418675160641951,18.7664243506233
0.371111087210821,18.7671620362995
0.316373546305541,18.7678997219756
0.267990207457852,18.7684963172069
0.227473356949627,18.7689759034327
0.19242469452492,18.7693870712518
0.161296301534673,18.7697571913094
0.133223600079796,18.7701016506754
0.107658553729957,18.7704306040166
0.0841933020453158,18.7707521449895
0.0624574678691021,18.7710744347226
0.0419922478324514,18.7714088747701
0.0218375524936141,18.7717812961822
0.00720440231470732,18.772090939235
-0.00120583123027222,18.7722898754348
-0.00887159860959318,18.7724888116346
-0.0153222073176916,18.7726726456683
-0.0213023402823525,18.7728600052074
-0.0272967064873437,18.7730686238003
-0.0330653466207727,18.7732950202144
-0.0384567863876299,18.7735371348582
-0.0433874218245154,18.7737942784234
-0.0478141736580222,18.7740666728105
-0.0517181047958254,18.7743551978049
-0.0553271847608072,18.7746862894399
-0.0580955731655382,18.7750108789808
-0.0603472316620013,18.7753569679654
-0.0620992692506322,18.775727945067
-0.0633660892698575,18.7761275496306
-0.0641612156252701,18.7765604025891
-0.0644957829559294,18.7770322787347
-0.0643768150564532,18.7775505102076
-0.0638047127976471,18.7781248416904
-0.0627675858236307,18.7787694417606
-0.0612374019182669,18.7795030924849
-0.0591574203622394,18.7803545970982
-0.0564080779884776,18.7813748808973
-0.0526688872948538,18.7826857924859
-0.0486072156276792,18.7840770793597
-0.0446866005398649,18.7854235181016
-0.04095235800026,18.7867293378954
-0.0374265091018994,18.7879966485351
-0.0341201703295863,18.7892262014958
-0.0310379089116316,18.790418061686
-0.0281797570465624,18.7915719659156
-0.0255423395772645,18.7926875113877
-0.0231196393611982,18.793764252175
-0.0209036005952033,18.794801743584
-0.0188846472499491,18.7957995552757
-0.0170521430537631,18.7967572644216
-0.0153948008335146,18.79767443509
-0.0138246330481356,18.7985968471527
-0.0123145580040118,18.7995429626998
-0.0108688987203121,18.8005144913961
-0.00949155723024532,18.8015135998495
-0.00818622869294811,18.8025428348025
-0.00695634895006391,18.8036052190779
-0.0058050416132748,18.8047043769729
-0.00473506265986188,18.8058447037436
-0.00374874228529506,18.8070316001833
-0.00284792323833944,18.808271806503
-0.00203389398313417,18.8095738936241
-0.00130731342969641,18.810949015809
-0.000668120888029288,18.8124121225863
-0.000115418344941583,18.8139840382744
0.000334868924657923,18.8156207933875
0.000688813431661808,18.8173080294579
0.000962333110734089,18.8190641504339
0.0011699114919396,18.8209116154066
0.00132524936458763,18.8228807549123
0.00144173937205669,18.8250152250226
0.00153322001873304,18.8273836789531
0.00161555917488825,18.8301097158426
0.00171170702371948,18.8334788902104
0.0018324729320476,18.8372341162523
0.0019891902947983,18.8413300890472
0.00219121796857326,18.845896859628
0.00238914282755277,18.8499862953554
0.00258576496888784,18.8538685894997
0.00278299909701093,18.8576739235872
0.00298254571687591,18.8614743001694
0.00318641026128809,18.865318673271
0.00339696519949514,18.8692454084737
0.00361691807465487,18.8732877525677
0.00384928313640155,18.8774767848781
0.00409739725372179,18.8818434765147
0.00436498680615561,18.8864200834779
0.00465635217338954,18.8912415776618
0.00497672561356911,18.8963469543781
0.00533210740723264,18.9017684844425
0.00569375930629277,18.907014668206
0.00607335710956729,18.9122273496767
0.00646958893346028,18.9173438375393
0.0068872396189173,18.9223827131741
0.00733035834052321,18.9273460867959
0.00780395303878945,18.9322419144078
0.00831333428001773,18.9370750667575
0.00886428365207937,18.9418485860578
0.00946309132159176,18.9465633564539
0.0101166795686169,18.9512186586121
0.0108392456053148,18.9558525521371
0.0116521182600205,18.9605199192997
0.0125720044624996,18.9652200499396
0.0136237217986153,18.9699741735863
0.0148438992086993,18.9748271430361
0.0162974523214399,18.9798882745532
0.0181413115992238,18.9854804014426
0.0205606804475375,18.9918894414177
0.0221179319130199,18.9956931045151
0.0237082790274492,18.9994967676125
0.0250943883103392,19.0029043840215
0.0262634770943214,19.0060320379037
0.0272272641792343,19.0090482417822
0.0279355838530027,19.0119283167149
0.0283778056934758,19.0147379513769
0.0285413232650401,19.0176077370625
0.0283706031335122,19.0207421217968
0.0276281729440522,19.0248016410627
0.0267778580453912,19.027710586553
0.0257133728318852,19.0306195320432
0.0246365903505639,19.0331871118304
0.0235629997839453,19.0355506403776
0.0224885904101464,19.0378063863732
0.0214147988660314,19.040002646082
0.0203449997218956,19.0421676737066
0.019282900984786,19.0443204494632
0.0182320881045152,19.0464749695396
0.0171958992402065,19.0486422805765
0.0161773944736922,19.0508315925807
0.0151793568908401,19.0530509465671
0.014204303111277,19.0553076485571
0.0132544924568499,19.0576085805631
0.012331940498447,19.0599604249228
0.0114384279176689,19.0623698529741
0.0105755070797338,19.0648436946931
0.00974451847567991,19.0673890681223
0.00894659141252241,19.0700135515168
0.00817503402211137,19.0727535010583
0.00741732320386898,19.0756788705796
0.00667730291156057,19.0788110556534
0.00595881649365949,19.0821755803565
0.00526590259300408,19.0858019575347
0.00460275198361031,19.0897244296493
0.00397362173180628,19.093983008508
0.00338269873206349,19.0986250437184
0.00283389724988064,19.10370787667
0.00233056876391707,19.1093039186103
0.00187528873130723,19.1155085522417
0.0014724396144177,19.1224006887928
0.00113442765642106,19.1298271149182
0.000865375987649098,19.1378961296674
0.000676393633504434,19.1459753003092
0.000530415548520234,19.1545392706288
0.000413345271608954,19.1640578778705
0.000328048870138855,19.1740578778705
0.000270846557842542,19.1840578778705
0.000233795348790036,19.1940578778705
0.000211087648194526,19.2040578778705
0.000198595335903338,19.2140578778705
0.000193497047132947,19.2240578778705
0.000193929803529028,19.2340578778705
0.000198703708052296,19.2440578778705
0.000207099425700541,19.2540578778705
0.000218738934783424,19.2640578778705
0.000233509622814764,19.2740578778705
0.000251525158018587,19.2840578778705
0.000273113990199356,19.2940578778705
0.00029883294487929,19.3040578778705
0.000329508700783126,19.3140578778705
0.000366315488955106,19.3240578778705
0.000410905361652288,19.3340578778705
0.000464874217762321,19.3439321604519
0.00052649614397221,19.3530704219441
0.00059656620376942,19.3615056606054
0.000676180718687293,19.3692919569731
0.000766627735064742,19.3764802275772
0.000869379771018104,19.383117647712
0.000986107245107829,19.3892479581664
0.00111870203399455,19.3949117544302
0.00126930670927925,19.4001467315704
0.00144034827683346,19.4049879007212
0.0016345765253974,19.4094677964685
0.00185511045542039,19.4136166755094
0.00210549298487038,19.4174627017082
0.0023897573462393,19.4210321205051
0.00271251041334601,19.4243494381538
0.00307903731447073,19.4274376093836
0.00349543842831976,19.430318232536
0.00396881109478638,19.4330117673107
0.00450750039954861,19.4355377955133
0.00512145851834565,19.4379153486232
0.00582277718665221,19.4401633435015
0.00659762451008986,19.4422308394233
0.00745534132225896,19.4441523988564
0.00841027731318203,19.4459630565648
0.0094846101995677,19.4476997008581
0.0107171126987813,19.4494090920405
0.0122151930262681,19.4511983592727
0.0143643230655264,19.4533976545357
0.0159777535776675,19.4548666370051
0.0176990793955375,19.4563356194746
0.0192845271887476,19.4576516441774
0.0206909556809233,19.4588346112555
0.0219522712011394,19.4599549350735
0.0230722699131504,19.461057471051
0.0240356100489115,19.4621805622029
0.0248091414689409,19.4633713917451
0.0253278464045962,19.4647134143672
0.0254142426153361,19.4664579755891
0.0248951975051983,19.4681625807691
0.0238839769433185,19.4698671859491
0.0227418779569255,19.4713081723229
0.0214628780512834,19.4727063238722
0.0200463295760582,19.4741380509108
0.0185009606879366,19.4756438227073
0.0168327077587827,19.477262232393
0.0155051818119532,19.4786033616712
0.0130762364959922,19.4813062793264
0.0107788273064432,19.4842665877687
0.00897639461525158,19.4869855430614
0.00753909241630924,19.4895104058778
0.00631233437798352,19.492015092471
0.00523825711011798,19.494574178096
0.00435568672090861,19.4970296854551
0.00362729559758301,19.4993836918594
0.00301490377324814,19.5016712747805
0.00248732284449037,19.5039426339298
0.00201525501966734,19.5062870586325
0.00155586309979938,19.5089459659992
0.0012369205451998,19.5110812304025
0.000956056612473646,19.5132164948059
0.000741798454426867,19.5150462316461
0.000567410618896204,19.5166921976852
0.000412281148534445,19.5182973038947
0.000265432984967392,19.519960937644
0.000117180688606165,19.521808669837
-4.96039875547298e-05,19.5241304185687
-0.000310975970141898,19.5284365984544
-0.00050686835003455,19.5324058959799
-0.000648338099516346,19.5358452881986
-0.000776185506971081,19.5395553644467
-0.000908581451442204,19.5443655515407
-0.00101439249261838,19.5497986436377
-0.0010625005936533,19.5545827811123
-0.00105706503232664,19.5589212481478
-0.000995068181967181,19.5628339468962
-0.000872267426283147,19.566366300769
-0.00068361300604015,19.5695668754291
-0.000423399352701121,19.5724848018955
-8.40286020859827e-05,19.5751754220084
0.000345579172811967,19.577696659147
0.000883131179983372,19.5801124987839
0.00155939761416092,19.5825012899105
0.00244019864705831,19.5849936348682
0.00367705594513124,19.5878258125922
0.00527034887757687,19.5908228443699
0.00670704447677332,19.5931311768623
0.00835159428480288,19.5954395093546
0.00992631396708205,19.597371804118
0.0115464922779882,19.5991170610115
0.0132603654293191,19.600733796907
0.0151040850597823,19.6022510344932
0.0171438449547764,19.6037094860465
0.0193892733062029,19.6050993628143
0.0218952545694736,19.6064390137774
0.0246927355311312,19.6077280956456
0.0278210174928916,19.6089694012583
0.0313263407912414,19.6101665660682
0.0352544568513065,19.6113211352839
0.0396628217425807,19.6124364707684
0.0446181472353543,19.6135159829363
0.0501969473194086,19.6145628474874
0.0564897874887761,19.6155804441318
0.0636038530770383,19.6165722307579
0.0716727901834477,19.6175424564039
0.0808586991737545,19.6184954672602
0.0913640141403751,19.6194361600344
0.103446808939581,19.6203702410864
0.11744393562719,19.6213045898675
0.133811842245756,19.6222480582962
0.153196287295258,19.6232126819423
0.175976875006152,19.6241924871653
0.202390782307148,19.6251787935606
0.233163044754725,19.6261832571634
0.269295260404665,19.6272232969729
0.312395287094604,19.6283309484299
0.348147876097643,19.6291792872151
0.38541666579343,19.6300276260003
0.418488733377568,19.6307763989566
0.447372982126464,19.6314537048188
0.472602028978072,19.6320942364171
0.49419530048044,19.6327226679978
0.51174876535953,19.6333612777383
0.524336245277731,19.6340368802153
0.530008271715853,19.634793232644
0.525505724596423,19.6355974751266
0.509272221657589,19.6364266862143
0.479844093139432,19.6372966239532
0.435362276778427,19.6382184449145
0.373812516289184,19.6392006089369
0.330114386288731,19.6397960738819
0.282515551705337,19.640391538827
0.240073166692547,19.6408963625641
0.203437932539526,19.6413246617647
0.171104154855722,19.6417053853872
0.142066508419285,19.6420563700749
0.115699639122586,19.6423889672186
0.0915608676125388,19.642711689477
0.0692759071437138,19.6430324452794
0.048431830408515,19.6433610849904
0.0283189285244354,19.6437163045272
0.00608147977509256,19.6441758845178
-0.00212259439943381,19.6443716058803
-0.00960635963449014,19.6445673272428
-0.0159546465204168,19.6447495447906
-0.0219595196876623,19.6449391665068
-0.0279473415513031,19.645149559937
-0.0336881648973225,19.6453773935386
-0.0390396302673289,19.6456207940274
-0.0439235603547455,19.6458791918866
-0.0483001159812391,19.6461528904398
-0.0521520475421215,19.6464428316486
-0.0557043860816107,19.6467756418171
-0.0584211736372251,19.6471020448885
-0.0606222422010743,19.6474502289153
-0.062324808529359,19.6478236497666
-0.0635432950151786,19.6482261321243
-0.0642910786153503,19.6486624070621
-0.064578968902802,19.6491383965512
-0.0644134458509412,19.6496616369152
-0.063793842166603,19.6502423167214
-0.0627067845768968,19.6508949795884
-0.0611218536621837,19.6516392343907
-0.0589776013417232,19.6525055194662
-0.056142587381949,19.6535489072151
-0.0522460760937316,19.6549088458263
-0.0481938255262319,19.6562948398159
-0.0442897777733856,19.6576367781519
-0.0405753908659453,19.6589385428482
-0.0370710606423187,19.6602020073577
-0.0337870187644414,19.6614277989635
-0.0307272682215164,19.6626159185038
-0.027891440026963,19.6637660707731
-0.0252758570219203,19.6648778380635
-0.022874270984252,19.6659507683815
-0.020678452353497,19.6669844150206
-0.0186787004396997,19.6679783467473
-0.0168642974358133,19.668932139043
-0.0152239123137678,19.6698453521406
-0.0136598405925556,19.670769964924
-0.0121563587291978,19.6717183934869
-0.0107176821104427,19.6726924274134
-0.00934769644790557,19.673694265433
-0.00805007542743832,19.6747264948032
-0.0068282288209445,19.6757921892715
-0.00568524938856167,19.6768950379804
-0.00462385730634239,19.6780395200604
-0.00364634184165932,19.6792311468755
-0.00275449945500506,19.6804768078186
-0.00194956658782265,19.681785280915
-0.00123214372129841,19.6831680183777
-0.000602104042175435,19.6846404183393
-5.84730927731683e-05,19.6862240222099
0.000380798944479636,19.6878647471827
0.000725371670166356,19.6895577661706
0.000990930953109601,19.6913215720966
0.0011918576175896,19.6931792322692
0.00134178408441993,19.6951620590738
0.00145408438382936,19.6973154497389
0.00154266649416952,19.6997115420589
0.00162368954807862,19.702482456912
0.00172133750946627,19.7059447616417
0.00184277046755557,19.7097134169608
0.00200229319116012,19.7138650209207
0.00220135774246888,19.7183642205837
0.00239709235088178,19.7224259769074
0.00259185482630877,19.7262970465751
0.00278740854092588,19.7300992683251
0.00298543016965475,19.733901667969
0.00318792534261652,19.7377518862727
0.00339726856797408,19.7416876664774
0.00361616424673525,19.7457419547145
0.0038476209395703,19.7499457729215
0.00409496670296541,19.7543301737681
0.00436192129088715,19.7589276267465
0.00465279031626946,19.7637734615843
0.00497283618776265,19.7689071465678
0.00532604042671326,19.7743296851245
0.00568602216089554,19.7795841606249
0.00606358834927202,19.7847997426529
0.00645783196136834,19.7899192948502
0.00687347004824142,19.7949607239187
0.00731457065448737,19.7999267122475
0.00778610999023835,19.8048252687931
0.0082933562433285,19.8096612582043
0.00884204306627253,19.8144377036009
0.00943840923524,19.8191554657751
0.0100893242264818,19.8238138094225
0.0108081586376558,19.8284462348628
0.0116167894512838,19.8331127245864
0.0125315610080952,19.8378112571002
0.013576960790753,19.8425625721561
0.0147888886961386,19.8474099260043
0.0162304011441107,19.852458375294
0.0180511463574147,19.858013846192
0.0204698446727674,19.8644523372265
0.0220344990745688,19.868283360834
0.0236361820531781,19.8721143844416
0.0250337605533733,19.8755416108302
0.0262126321699541,19.8786783816234
0.0271863259473032,19.881696756502
0.0279075368131199,19.8845831406028
0.028362684400507,19.8873934471193
0.0285404886698818,19.8902567288912
0.0283886094923437,19.8933705722612
0.0276905658854848,19.8973404699029
0.0268476028105474,19.9002912187471
0.0257805739915023,19.9032419675913
0.0247025515645797,19.9058291351703
0.0236288685596724,19.9082019055233
0.022554476699132,19.9104626569825
0.0214805301816538,19.9126617135028
0.0204103469274934,19.9148281498221
0.0193476327736819,19.9169813588149
0.0182959854248056,19.9191355732327
0.0172587590679042,19.9213019862235
0.0162390303433173,19.9234899028957
0.0152395985109555,19.9257074274016
0.014262995584663,19.9279619080906
0.013311495625865,19.9302602545706
0.0123871284648864,19.9326091656692
0.0114916882132104,19.9350153216368
0.010626740421166,19.9374855540202
0.00979363824282915,19.9400269769843
0.00899352318671125,19.9426471599559
0.00822125248583565,19.9453766545976
0.00746259440269702,19.948290419264
0.00672140166191523,19.9514095935521
0.00600150417541676,19.954759489591
0.00530692959834413,19.9583693683165
0.00464186131106309,19.9622731722449
0.00401055544666616,19.9665105437414
0.00341720844893749,19.9711283482514
0.00286575816051499,19.9761832464249
0.00235959857866343,19.9817465849957
0.00190135576791739,19.9879121447294
0.00153817525034447,19.9939560723647
0.00124420163267779,20
