ecg,time
9.56139144558445e-05,15.0012832825043
9.29361524159733e-05,15.0112832825043
9.27495739961919e-05,15.0212832825043
9.44034761923176e-05,15.0312832825043
9.74686405450991e-05,15.0412832825043
0.00010166940632169,15.0512832825043
0.000106839383904369,15.0612832825043
0.000112891878733528,15.0712832825043
0.000119800058524714,15.0812832825043
0.00012758408509619,15.0912832825043
0.00013630349793943,15.1012832825043
0.000146053716494217,15.1112832825043
0.000156965952098609,15.1212832825043
0.00016921020238357,15.1312832825043
0.000183001373422795,15.1412832825043
0.000198608967245188,15.1512832825043
0.000216371235864421,15.1612832825043
0.000236715320858134,15.1712832825043
0.000260185799610485,15.1812832825043
0.000287485457525272,15.1912832825043
0.000319534364925134,15.2012832825043
0.000357557115893932,15.2112832825043
0.000403214615966583,15.2212832825043
0.00045880848196613,15.2312832825043
0.000524191017436685,15.240831047459
0.000598715126768384,15.2496362064455
0.000683511489438738,15.2577470290109
0.000779982110078345,15.2652202410872
0.000889735309423214,15.2721084528407
0.00101459779682459,15.2784601392614
0.00115664033972965,15.2843200399931
0.00131821025265018,15.2897295107852
0.0015019704716482,15.2947268232324
0.00171094448437581,15.2993474368821
0.00194857143153843,15.3036242541806
0.00221877213348771,15.3075878624697
0.00252603267242119,15.3112667643464
0.0028755092808643,15.3146876114876
0.00327316702224133,15.31787545566
0.00372596632059957,15.3208540277854
0.00424212227976864,15.3236460676104
0.00483148251524522,15.3262737494396
0.00550610294098396,15.3287592782768
0.00626097481066496,15.3310693822912
0.00710129197540315,15.3332227797679
0.00804408037660277,15.3352627895467
0.00911784925793745,15.3372394258483
0.0103787090909187,15.339226500388
0.0119901599758272,15.3414068667921
0.0135624028098061,15.3432775777686
0.0152822339057784,15.345148288745
0.0167786522661479,15.3467034273385
0.0180700510646654,15.3480467141959
0.0192188352437702,15.3492937443224
0.020237498121214,15.3505022670345
0.0211166110075632,15.3517136546522
0.0218314978664866,15.3529716371281
0.0223357085104196,15.3543417191985
0.0225265529418393,15.3559720907895
0.0219844957397961,15.3584481663599
0.0211937077864263,15.3600058838288
0.0201410034308228,15.3615636012977
0.0189712063518931,15.3630373819968
0.0176869164166412,15.3645173103964
0.0162974066385261,15.366047550696
0.0152134199821091,15.3672253482363
0.0141494394171435,15.3684031457766
0.0131998066361883,15.3695089082394
0.0110236596693646,15.3722963801263
0.00916736257587136,15.375044982881
0.00767197227522161,15.3776098173251
0.00640275437038344,15.3801278320393
0.00528755822301211,15.3826952426292
0.00432239665269002,15.3852840572292
0.00354217021665409,15.3877144431672
0.00290412259531519,15.3900010543969
0.00237456250629794,15.3921648827817
0.0019281202784837,15.3942277745311
0.00154531943915123,15.3962137152899
0.00121069664886436,15.3981512580398
0.000911031833194597,15.4000794638381
0.000632893540565478,15.4020645395451
0.000355266111839011,15.4042693710336
0.00012924630758744,15.4062583755719
-7.67992174311368e-05,15.4082473801102
-0.000231980514145233,15.4098700938872
-0.00036029296874079,15.4113008176529
-0.00047740230694599,15.4126822573008
-0.00059136947975094,15.414100286766
-0.000709663126874872,15.4156532436344
-0.000845495932138242,15.4175435596731
-0.00107051781640892,15.4209403229006
-0.00127253262214623,15.4242873764351
-0.00143504071919904,15.4271953495574
-0.00159471044182109,15.4302517368261
-0.00178138860512384,15.4341035966701
-0.00203273370490225,15.4399021600701
-0.00222303083274752,15.4452561615179
-0.00233817064891086,15.4500570582731
-0.00236801676537991,15.4543554100669
-0.00230472162766039,15.4581959574786
-0.00214540458365189,15.4616257009912
-0.00189084449741461,15.464701684407
-0.00154331042283078,15.4674778624453
-0.00110304223121277,15.4700125114558
-0.000566265788271437,15.4723613872582
7.83011929472517e-05,15.4745836457629
0.000856696132933961,15.4767525040842
0.00182676310427555,15.4789765947765
0.0031514951278853,15.4815001690731
0.00490980781828847,15.4843212215569
0.00712226178607213,15.4873788974076
0.00872048511868643,15.4893510994687
0.0104795699115133,15.4913233015298
0.01226175207775,15.4931189369824
0.0140322489212705,15.4947105403673
0.0159270802869389,15.4962202384717
0.0179683971713698,15.4976500595357
0.0202177302058785,15.4990262403276
0.0227069451130829,15.5003494049905
0.0254818286288138,15.5016261439377
0.0285733007129188,15.5028542759061
0.0320319541656253,15.5040389415382
0.0359048858633226,15.5051817413098
0.0402405648039124,15.5062835624325
0.0451069342980672,15.5073487057779
0.0505766810862673,15.508380028281
0.0567350276738571,15.5093805952258
0.063683009890823,15.5103536862635
0.0715402093579777,15.5113026375643
0.0804524482060437,15.5122312043415
0.0905991759949796,15.513143548716
0.102201502958142,15.5140441293425
0.115537824877635,15.5149380025553
0.130965608965566,15.5158310899616
0.148954970542945,15.5167305928407
0.170146736521728,15.5176458254073
0.195197348031564,15.5185806912468
0.224175977111738,15.5195183733772
0.257813284543814,15.5204681469537
0.2971051042851,15.5214444340269
0.343660320374236,15.5224755060246
0.380888860842492,15.5232374106787
0.419582521827069,15.5239993153328
0.453887248674195,15.5246737510176
0.483901653395333,15.525287786356
0.510227851506286,15.5258744571103
0.532871232294081,15.5264579384033
0.551351332033638,15.5270622143391
0.564522451807116,15.5277210892954
0.569604454695155,15.5284796223927
0.563221514064321,15.5292560919319
0.544221256555478,15.5300714793314
0.510783022584022,15.5309439791777
0.462550499086276,15.5318528844644
0.399988313159387,15.5327839752718
0.351804988635605,15.5334023070975
0.299266471269276,15.5340206389231
0.253150112730045,15.5345364392478
0.213993225655117,15.5349671140139
0.17979050130196,15.5353462820652
0.149267668817598,15.5356938838618
0.121667179521298,15.5360221209183
0.0964725367924172,15.5363398732671
0.073261346209885,15.5366552090203
0.0515820962714573,15.5369780237124
0.0306773393441851,15.537326966513
0.00751211000637342,15.5377800821615
-0.000935034815392378,15.5379710283646
-0.00864036939275211,15.5381619745677
-0.0151004259922702,15.5383375746547
-0.0212233069569717,15.5385204537278
-0.0273523767700128,15.5387238910826
-0.0332458515516451,15.5389445526203
-0.0387529521291552,15.5391805369781
-0.0437901398490272,15.539431231882
-0.0483143052156485,15.539696891394
-0.0523068640684772,15.5399784037153
-0.0557643328698481,15.5402771828808
-0.0586889874212544,15.5405951378673
-0.0611802081579111,15.5409511251109
-0.0630163993782271,15.5413133790959
-0.0643586293477064,15.5417035826232
-0.0652224867709101,15.542126550365
-0.0656198192120709,15.5425880433146
-0.0655582471933442,15.5430953973474
-0.0650387516479692,15.5436582525957
-0.0640496155149248,15.5442909472246
-0.062562078774301,15.5450125133083
-0.0605170063449865,15.5458523857272
-0.0577876856751899,15.5468633706441
-0.0540231413984728,15.548176187305
-0.0498952791016451,15.5495790757164
-0.0458984054030066,15.55093847646
-0.0420812100296076,15.5522585233223
-0.0384680802237235,15.5535411016089
-0.0350719368581048,15.5547867895449
-0.031898900006052,15.5559955115594
-0.0289503787307046,15.5571668870729
-0.0262242028629789,15.5583004144308
-0.0237153765753431,15.5593955655537
-0.0214166716167279,15.5604518300652
-0.0193191431430592,15.5614687291015
-0.0174125954135215,15.5624458097013
-0.0156860036023796,15.563382625816
-0.0141027875751272,15.5642935963766
-0.0125773509886377,15.565227746993
-0.011114591834805,15.5661863751037
-0.00971850615779527,15.5671714874844
-0.0083929160872517,15.5681854308804
-0.00714141523058271,15.5692309786518
-0.00596731800595705,15.5703114396539
-0.00487360689557713,15.5714308039328
-0.00386287773947949,15.5725939419659
-0.00293728287574321,15.5738068842324
-0.00209847144590264,15.5750772256335
-0.00134749549206279,15.5764147322971
-0.000684558515734965,15.5778322937025
-0.000109339022291268,15.5793475029455
0.000374165817845765,15.5809658764036
0.000752646361341265,15.5826257630199
0.00104307795117574,15.5843455083588
0.00126020346827399,15.5861448194304
0.0014177516977305,15.5880496974686
0.00152879037383751,15.5900963191915
0.00160622813202928,15.5923389471815
0.00166367629568362,15.5948682517277
0.0017175582340442,15.597865444018
0.00179031322250732,15.6016007083123
0.00188645925564641,15.605477221962
0.00202385744585068,15.6099024816726
0.0021798744661061,15.6142425144615
0.0023438902375082,15.6184720931585
0.0025187192334599,15.6228322107803
0.00271847080047733,15.6277576575644
0.00291622198300859,15.6326039348182
0.00311752596676999,15.6374842033159
0.00330406489460949,15.6418968462254
0.00347621538532181,15.6458613953085
0.00364514236108153,15.6496429436304
0.00381634209143425,15.6533583161395
0.00399343001670526,15.6570736135389
0.00417940108652243,15.6608347739818
0.00437709956514097,15.6646781243363
0.00458946629154285,15.6686352110206
0.00481973219765648,15.6727358741725
0.00507157006878238,15.6770098948018
0.00534927410736337,15.6814882880209
0.00565802968811184,15.6862045162975
0.00600437703693685,15.6911959231789
0.00638907316894554,15.6964003360318
0.00679027015369164,15.701472142075
0.00721754322234104,15.7065033116472
0.00767111280808336,15.7114521725108
0.00815610499831806,15.7163292070281
0.00867767400839659,15.7211362184354
0.00924211570199703,15.7258784375935
0.009856328797977,15.7305585284586
0.0105279272004219,15.7351774563096
0.0112803714968052,15.7398232771249
0.0121288540582628,15.7444970548429
0.0130941325673823,15.7492122379083
0.0142049365892389,15.753996603568
0.0155067574227596,15.7589147868487
0.0170889908231768,15.764132631733
0.0192252880641616,15.7702439477039
0.0209725777928661,15.7747225573437
0.022823351389479,15.7792011669835
0.0243771324100036,15.7829383617886
0.0256701752160763,15.7862094179876
0.0267529304870088,15.7892729433376
0.0276175842499032,15.792248066836
0.0282131752217748,15.7950837602677
0.0285405801361179,15.7979001121471
0.0285736472021625,15.8008464189399
0.0282171296981738,15.8042184310248
0.0271898811392807,15.808554678674
0.0262887644616638,15.8112275213653
0.0252295982226905,15.8139003640566
0.024156820819695,15.816344055852
0.0230828694309217,15.8186442319182
0.0220083695386818,15.8208645176215
0.0209361646467203,15.8230408579634
0.0198699013815423,15.8251960569885
0.0188132600359048,15.8273462200574
0.0177697161197526,15.8295036451167
0.0167424773457765,15.831678301857
0.0157344730648859,15.8338786826126
0.0147483590485811,15.8361123386088
0.0137865310804625,15.8383862331151
0.0128511327264251,15.8407070087788
0.0119440670082803,15.8430811860335
0.011067008509431,15.845515322713
0.0102214058070035,15.8480161799223
0.00940849716405456,15.8505908438669
0.00862931375720121,15.8532468841946
0.00786405210717419,15.8560718793443
0.0071146213313818,15.8590917131749
0.00638479279190089,15.8623299837063
0.00567852949747512,15.8658140218634
0.0049999752941243,15.8695754916768
0.00435339364266251,15.8736512698143
0.00374306282667466,15.8780847079875
0.003173107201686,15.882927709128
0.00264727132508157,15.8882442938959
0.00216862166829324,15.8941174269532
0.00173945631648535,15.9006583799906
0.00137183152062139,15.907788991183
0.00106654506666527,15.9155012889638
0.000827387768746451,15.923919923018
0.000669878858886727,15.9320006133882
0.000545438982744693,15.9410110378332
0.000453788516504062,15.9507241579003
0.000393455712937867,15.9607241579003
0.000358861864714249,15.9707241579003
0.000343646640388485,15.9807241579003
0.000343360712097694,15.9907241579003
0.000355122744315516,16.0007241579003
0.000377354203311702,16.0107241579003
0.000409557467575783,16.0207241579003
0.000452184979340882,16.0307241579003
0.000506637514204194,16.0407241579003
0.000575420070960344,16.0507241579003
0.000658548892562594,16.0603121223227
0.000754601297149764,16.0691420723868
0.000864829038081013,16.0772649240624
0.00099098060080154,16.084741657321
0.00113515568039452,16.0916287406692
0.00129979532987199,16.0979781723828
0.00148770926291875,16.1038379920693
0.00170212376662585,16.10925272845
0.00194674806565477,16.1142637890748
0.00222585924951581,16.1189098360706
0.00254441702253417,16.1232271739177
0.00290821738719702,16.1272501740188
0.00332411114780237,16.1310117689447
0.00380032141143617,16.1345440967905
0.00434693873976487,16.1378794288742
0.0049767397161995,16.1410516360913
0.0057066609856868,16.144098777126
0.00654340748984947,16.1470129078204
0.00752363223021769,16.1498850875564
0.00875192136009679,16.1529329544651
0.00995080542141165,16.1555245198745
0.010977378065451,16.1575573487164
0.0120530417820292,16.1595901775583
0.013004284607035,16.1613747053123
0.013838807363897,16.1629969231857
0.0145689478125597,16.1645378125562
0.0151904091095125,16.1660500565857
0.0156876841899332,16.16757989092
0.0160325888445553,16.1691834164224
0.0161723760034344,16.1709560440666
0.0159702807448507,16.1731614285363
0.01539273629605,16.175293506063
0.0144923054681316,16.1774255835897
0.0135371986661007,16.1792231319957
0.0125256284430133,16.1809090069674
0.0114547513790411,16.1825755585599
0.0108955967936096,16.1834206574697
0.0103353837408026,16.1842657563795
0.00988078951553207,16.1849733136351
0.00840873245531714,16.1874420943798
0.0070679993178934,16.1899850666865
0.00587613698322694,16.1925604127232
0.00488333147363121,16.1950054665568
0.00404695813962421,16.1973412391369
0.00333082545579345,16.1995975362944
0.00270474704270843,16.2018132001532
0.00214092552242099,16.204048404517
0.00160566366237145,16.2064276931652
0.00100987858763637,16.2094376155282
0.000685137276601599,16.2112701389763
0.000385007210657937,16.2131026624245
0.000131156806424484,16.2147677267995
-9.39401297649748e-05,16.21634009548
-0.00030768031164783,16.2179224661567
-0.000523800289993427,16.2196162653832
-0.000761569086342472,16.2215946481333
-0.00108328972904901,16.2244737327557
-0.00144622266847127,16.2280190147534
-0.00173212692674757,16.2310552118753
-0.00199386422892692,16.2340506427711
-0.00227229233701847,16.2375218139804
-0.00259390905243213,16.2420878543673
-0.00284979763249065,16.2466073354923
-0.0030051984738623,16.2505268796005
-0.00307804096751435,16.2541369539544
-0.00306913301606339,16.2576828521951
-0.00295783274036579,16.2614107327876
-0.00272461169296363,16.2651396333248
-0.00239496835190617,16.2684834692588
-0.00197864495766738,16.271532786976
-0.00147978661317524,16.2743471499949
-0.000892776354216136,16.2769966460176
-0.000197031233857536,16.2795718835172
0.000667250892056646,16.282239490765
0.00177427987343667,16.2851340867032
0.00311410382103337,16.2881896027006
0.00443026440219833,16.290928549198
0.0059301312706676,16.2938584303795
0.00704861756238182,16.2959229894365
0.00824093013806369,16.2979875484935
0.00945773339023011,16.2999236828997
0.0106792047433095,16.3016795809429
0.011994408424613,16.303364735417
0.0134325416069356,16.3049868663695
0.0150234657605159,16.3065521781442
0.0167997695443721,16.3080667764221
0.0187847806426339,16.3095272604582
0.0210028948815866,16.3109321055122
0.0234862521703569,16.3122844635678
0.0262647771676942,16.3135848711964
0.0293697482022257,16.3148339559887
0.0328451389356628,16.3160361820307
0.0367376278272623,16.3171945809107
0.0411008253671893,16.3183122426394
0.0459984901990602,16.319392678771
0.0515057794490786,16.3204394919351
0.0577112724213613,16.3214562775787
0.0647205456295832,16.3224467301572
0.072661740840586,16.3234148369235
0.0816913076975234,16.3243648532229
0.0920035841297409,16.3253014984809
0.10384453028695,16.3262301819245
0.117533118648358,16.3271573735014
0.133495122780478,16.3280911508866
0.152322398855755,16.3290422356996
0.17462063828655,16.3300152529993
0.200444232835512,16.3309920195174
0.230471715896727,16.3319829152443
0.265618156094604,16.3330029758901
0.307275737150905,16.3340782371007
0.344638053430118,16.3349613053257
0.384007390977082,16.3358443735506
0.418544585654487,16.3366074974585
0.448540793967497,16.3372878059116
0.474782802340949,16.3379255936817
0.49741254255758,16.3385473000878
0.516118453231245,16.3391753548086
0.530096634718076,16.3398354842572
0.537647853251304,16.3405678977855
0.53551063356407,16.3413638483757
0.521788273556933,16.3421825671921
0.495087929006125,16.3430410469636
0.453556543627275,16.3439518193805
0.39511904363058,16.3449232245108
0.349265060300446,16.345564030584
0.298528063011178,16.3462048366572
0.253548178072397,16.3467388587677
0.215191592582161,16.3471832337151
0.181606277301763,16.3475731381548
0.151583452006005,16.3479294602379
0.124403349782718,16.3482648644431
0.0995787260937767,16.348588381754
0.0767190580546623,16.3489079076699
0.0554271212909244,16.3492325005879
0.0351049088957269,16.3495774324932
0.0139413839888866,16.349991356646
0.0027129627481598,16.3502443619025
-0.00470749775164496,16.3504292997388
-0.0114920194209657,16.350614237575
-0.017401943455821,16.3507907545767
-0.0234556091471075,16.3509903535225
-0.0293687538694535,16.3512089325407
-0.0349521823005659,16.3514437427149
-0.04009972246215,16.3516936468796
-0.0447548686079448,16.3519585609123
-0.048890836912734,16.3522391310533
-0.0524952471494673,16.3525365733525
-0.0556859425671979,16.352867334579
-0.0581785026660044,16.3532024090431
-0.0601624537346973,16.3535607358034
-0.0616540937610715,16.3539459447825
-0.0626677402425973,16.3543622587132
-0.0632159710343137,16.354814929042
-0.0633080168919189,16.3553105793242
-0.0629477883687996,16.3558577297399
-0.062129397226139,16.3564687102779
-0.060832610596395,16.3571600001587
-0.0590150627551526,16.3579555091375
-0.0565900827122917,16.358894737286
-0.0533536067016808,16.3600587371652
-0.0492663152553553,16.3614752856586
-0.0452900555372826,16.3628424750715
-0.0414829445394924,16.3641677760627
-0.0378746762127885,16.3654541550539
-0.0344805928027622,16.3667027800359
-0.0313080277943341,16.3679139097911
-0.0283590522870062,16.3690873592201
-0.0256318849405453,16.3702227444213
-0.0231217720381368,16.3713196102916
-0.0208216427612808,16.3723774929972
-0.0187226569258171,16.3733959443434
-0.0168146881901942,16.374374532448
-0.0150867560284163,16.3753128266178
-0.0135057342633292,16.3762232350089
-0.0119823377004598,16.3771567793018
-0.0105215084578818,16.3781147321995
-0.00912725342024791,16.3790990929626
-0.00780340683780337,16.3801121981117
-0.00655357580334816,16.3811568076269
-0.0053810899423119,16.3822362129267
-0.00428894902863878,16.3833543812432
-0.0032797686754371,16.3845161528908
-0.00235572394769833,16.3857275178137
-0.0015184902942762,16.3869960152014
-0.000769180418455868,16.3883313323209
-0.000108274316350615,16.3897462426629
0.000464462958162334,16.3912581599178
0.000945872119969774,16.3928756830587
0.00132156067236596,16.3945341605586
0.0016086098681906,16.3962519686857
0.00182181454122281,16.3980486667561
0.00197494355331249,16.3999500269353
0.00208109264087163,16.4019918365288
0.00215318479139763,16.4042276316852
0.00220482183268447,16.4067465112658
0.00225233945588151,16.4097252639605
0.0023189832154479,16.4134622815763
0.00241086140626267,16.4173284043859
0.00253882311669592,16.421506370196
0.00267953769636103,16.4253957476848
0.00282924357560117,16.4291549876221
0.00298594563130572,16.4328759809276
0.00314890990485326,16.4366157998907
0.00331848708194478,16.4404162043279
0.00349589276506837,16.4443116464186
0.00368301685897652,16.4483331678651
0.00388228321492302,16.4525107977683
0.00409655769955584,16.4568751049781
0.00432913604225294,16.4614585009524
0.00458386487553456,16.466296645509
0.00486546213475456,16.4714298779345
0.00518011831851932,16.4769044842526
0.00550596617281536,16.4822787651512
0.00584685756035656,16.4875833718143
0.00620360431129465,16.4927886950593
0.00657990400185299,16.4979060127861
0.0069795816943621,16.5029426150196
0.00740701135720099,16.5079078242667
0.00786682199776211,16.5128081777094
0.00836400504488476,16.5176480066331
0.00890397824245084,16.5224293221323
0.00949270454937232,16.5271522821209
0.0101368184996497,16.5318156997361
0.0108487380883979,16.5364484582643
0.0116508133970585,16.5411157892206
0.0125590490974778,16.5458144592982
0.0135977064223628,16.5505650945206
0.0148022566461089,16.5554102297404
0.0162347859226629,16.5604529748502
0.0180416523274538,16.5659914921064
0.020457976181234,16.5724449265094
0.0220253357894734,16.5762892054877
0.0236319400677681,16.5801334844659
0.0250349057676087,16.5835704373798
0.0262185080841641,16.5867117413661
0.0271971252911008,16.5897312165015
0.027924921383542,16.5926209684514
0.0283867282161126,16.5954318421899
0.0285718192495289,16.5982921611953
0.0284293059573805,16.6013962785516
0.0277521948802679,16.6053249173247
0.0269127151497629,16.6082971153162
0.0258441171747706,16.6112693133078
0.0247652825187855,16.6138664298375
0.0236913918899972,16.6162439802075
0.022616847123829,16.6185074796277
0.0215426553337355,16.620708271004
0.0204721033280944,16.6228758428658
0.0194088928075127,16.6250298041235
0.0183566243593831,16.6271845211065
0.0173186565160143,16.6293512817078
0.0162980706051118,16.6315394659014
0.0152976700116756,16.6337572445961
0.0143199907527944,16.6360120305506
0.0133673105209146,16.638310801189
0.0124416626459852,16.6406603307113
0.0115448452362381,16.6430673853391
0.0106784279155166,16.6455388992893
0.00984376879053094,16.6480821098454
0.00904201544162653,16.6507047361622
0.00826978891488986,16.6534310380925
0.00751113156328537,16.6563413555001
0.00676992394512017,16.6594567163018
0.00605000248255386,16.6628024032786
0.00535540546896753,16.6664076517607
0.00469033239419599,16.6703063887936
0.00405906360976152,16.6745382567702
0.00346583183822393,16.6791501394827
0.00291462844881359,16.6841987330375
0.00240892342884088,16.6897554475503
0.00195144608536207,16.6959142321061
0.00154586325625614,16.7027699971252
0.00129837590222888,16.7079527501184
0.00110183162626565,16.7131355031117
0.000903148862724132,16.7200565348402
0.000728260871269207,16.7282762471882
0.000590661532468976,16.7372515901646
0.000485838732822575,16.7472515901646
0.000419150349287198,16.7572515901646
0.000380465232043336,16.7672515901646
0.0003625484634557,16.7772515901646
0.000360441395869915,16.7872515901646
0.000371030671653195,16.7972515901646
0.000392671006475951,16.8072515901646
0.000424907649984395,16.8172515901646
0.00046834656827096,16.8272515901646
0.000524696851028956,16.8372515901646
0.000593575111533861,16.8468195872774
0.000673686541017422,16.8556350742676
0.000765897750929853,16.8637476992219
0.000871562000718752,16.8712164522779
0.000992364209471594,16.8780958865008
0.00113028896032758,16.8844361486334
0.00128762816559908,16.8902834505891
0.00146700871905131,16.8956804746015
0.0016714338220762,16.9006667163592
0.00190433538741469,16.9052787952207
0.00216964211682227,16.9095507462248
0.00247186526877295,16.9135143032735
0.00281621170214865,16.9171991818704
0.00320873298706507,16.9206333840749
0.00365653193605998,16.9238435513862
0.00416805723382062,16.9268553996343
0.00475354283988586,16.9296943018966
0.00542570354979539,16.9323861510765
0.00618333877534849,16.9349054317909
0.00703375153817132,16.9372726095095
0.00800069268022276,16.9395448669378
0.00912958519504766,16.9418009823669
0.0105364006525872,16.9442038757773
0.0120435691000377,16.946447575985
0.013319883824445,16.9481800482821
0.0146619456749772,16.9499125205792
0.0158551709496316,16.9514354164269
0.0169101357635569,16.9528235756973
0.0178438673089536,16.954148068945
0.0186523503090806,16.9554559262469
0.0193175850861683,16.9567901048302
0.0198055713755802,16.9582058010387
0.0200496534382923,16.9598045592441
0.019852335780557,16.9619175471316
0.0192328804065691,16.9637488074543
0.0182688101287152,16.9655800677769
0.0172146095040652,16.9671768479735
0.0160677537803608,16.9687171350779
0.0148312884425803,16.9702712095481
0.0135140865561187,16.9718777626344
0.0124352944355969,16.9732130635331
0.0114188177147943,16.9745483644317
0.00959491252606792,16.9771902038669
0.00802459647131337,16.979797185462
0.00670091413164444,16.9823235170521
0.00553405340205131,16.9848906874873
0.00449965057564008,16.987527916042
0.0035801280844874,16.990259105286
0.00276093390325856,16.9931082769738
0.00207975826127225,16.995878948975
0.00152298483850735,16.9985005132555
0.00105812782128049,17.0010035272546
0.00066073019988201,17.003423949703
0.000312079588148866,17.0058035021619
-3.59573227909422e-06,17.0081993667553
-0.000303519778779962,17.0107178017685
-0.000623836443293839,17.0136970112421
-0.000832554639795681,17.0158108631709
-0.00102865587393607,17.0179247150997
-0.00119315437856641,17.0197933944937
-0.00133759739375691,17.0215046620106
-0.00147472189708149,17.0231881768327
-0.00161341163708859,17.0249469336352
-0.00176445510251463,17.0269234776645
-0.00195347894602426,17.0294826855635
-0.00226902193684244,17.0339639288376
-0.00252334368658734,17.0378034150585
-0.00273121644822205,17.0411656116013
-0.00293868282854074,17.0448729970475
-0.00314392720708925,17.0493046113717
-0.00327068784524245,17.0532506542296
-0.00332448028967923,17.0568840878341
-0.00330388143526123,17.060433741863
-0.00319014922906609,17.064139051495
-0.00294548537894193,17.0681228876747
-0.00260356259773011,17.0716773601363
-0.0021744533569218,17.0749190941643
-0.00166378757253994,17.0779085459952
-0.00106925802016225,17.0807076868684
-0.000378840860935124,17.0833845318574
0.000438222736520255,17.0860355923784
0.00144571472115739,17.0888025748673
0.00274249644415445,17.0918495131423
0.00424535130329951,17.0949371974049
0.00595740791220265,17.0980880286437
0.00722497645882792,17.1002240700728
0.00860112397365825,17.102360111502
0.00998666370388361,17.1043134004602
0.0114235798881445,17.1061323332833
0.0129071441235326,17.107801449221
0.0145280863047071,17.1094087866025
0.0162952524370189,17.1109409351205
0.0182577617566626,17.1124202577786
0.0204356068143471,17.1138414031096
0.0228668162553017,17.1152111391781
0.0255821398794422,17.116529667096
0.0286148284745189,17.1177978768403
0.0320087693845673,17.1190197922855
0.0358101592158974,17.120198073548
0.0400708755651466,17.1213353213397
0.0448552109817425,17.1224353548695
0.0502371931563302,17.1235016958712
0.0563043935132558,17.1245379768434
0.0631616289339522,17.1255480183438
0.0709369241186926,17.1265360371221
0.0797874479910602,17.1275065854899
0.0899100798954844,17.1284648024586
0.101557636612206,17.1294167671285
0.115063635600309,17.1303699514752
0.130885208999703,17.131334093415
0.149683059865838,17.1323228606808
0.171685905356293,17.1333234585498
0.197232538132584,17.1343330379987
0.227064432763097,17.135365055175
0.262232206606115,17.1364399553897
0.304008029454756,17.1375835725427
0.338298730334274,17.1384538304798
0.373903789779596,17.1393240884168
0.405638019268829,17.1400980484693
0.433436952705253,17.1408020490692
0.457669015871488,17.141468284369
0.478288218701423,17.1421204401738
0.494873236415191,17.1427798926935
0.506525818864824,17.1434713931519
0.511461640618119,17.144232177573
0.506667258014882,17.1450525874632
0.490476114194175,17.1458929113586
0.461531696477775,17.1467675680319
0.418169499067987,17.1476868705274
0.37186443500943,17.1484612563812
0.329151679488974,17.149078268395
0.282148148318252,17.1496952804088
0.24049285414628,17.15021156729
0.204496598164545,17.1506480944819
0.172670713071815,17.1510354708586
0.144048374307231,17.1513920577091
0.118031907233867,17.1517294220305
0.0942000535994165,17.1520561313052
0.0722004784987583,17.1523799675215
0.0516553113168791,17.1527102493607
0.0319550383965123,17.1530635224298
0.0110383767381741,17.1534977689311
0.00146119663131782,17.153726447237
-0.00716788763105717,17.1539551255429
-0.0136176442079921,17.1541441455363
-0.0195398631479533,17.1543351276681
-0.0254637594953745,17.1545474475509
-0.0311570691600915,17.1547776722318
-0.0364726230022032,17.1550237532353
-0.0413295183638244,17.1552850204171
-0.0456863181377868,17.1555617191612
-0.0495183814065449,17.1558547555617
-0.0528209542609227,17.1561662668629
-0.0555643212106026,17.1564939314921
-0.0577987347515382,17.1568435129318
-0.0595379482387006,17.1572180768733
-0.0607960902752197,17.1576213439997
-0.061586512850222,17.1580579099693
-0.0619202909878793,17.1585335069603
-0.0618045605456632,17.1590553954666
-0.0612400768121402,17.1596332248381
-0.060215785548093,17.1602809528458
-0.0587053352136595,17.1610169673363
-0.0566554658781131,17.1618692400499
-0.0539550759821051,17.1628865188784
-0.0503149913775279,17.1641816176214
-0.0463237239891849,17.1655688955698
-0.0424741844394647,17.1669103661026
-0.0388113752642974,17.1682104507274
-0.0353567747049158,17.1694714474636
-0.0321209541294997,17.1706942348757
-0.0291079456555615,17.1718789691586
-0.026317280299023,17.1730254561259
-0.0237451378192948,17.1741333466694
-0.0213851270973999,17.1752022367884
-0.0192288976754896,17.1762317136493
-0.0172666600035195,17.1772213693677
-0.0154876427558577,17.1781707942203
-0.0138804959331619,17.179079555687
-0.0123372188338793,17.1800068950647
-0.0108552567807416,17.1809581737343
-0.00943871802189068,17.1819352765534
-0.00809148685672422,17.1829404424405
-0.00681723186914797,17.1839763086661
-0.00561935556810375,17.1850460113442
-0.00450094222050985,17.1861533186476
-0.00346470354576765,17.187302811664
-0.00251292213641823,17.188500136051
-0.00164739201438224,17.1897523624917
-0.00086935496664186,17.1910685211488
-0.000179429927818818,17.192460428105
0.000422469931053116,17.1939440318853
0.000937243316197823,17.1955417595667
0.0013455381252167,17.197187506507
0.00166102838881173,17.1988877050048
0.00189901348024631,17.2006609964008
0.00207360823685804,17.2025312052539
0.00219818132428401,17.2045308752911
0.00228583370542145,17.2067076077119
0.00235017208489807,17.2091380206581
0.00240701557090249,17.2119655087071
0.00248043250225609,17.2155504778474
0.00257682402911768,17.2193041755663
0.00269722995748519,17.2230275815188
0.00284028715138735,17.2267718190804
0.00300246910316407,17.2305781639904
0.00318043467136676,17.234480849681
0.00337204425511543,17.2385108688006
0.00357664556664386,17.2426981775006
0.00379502553256864,17.2470733735641
0.0040292407221764,17.2516689505567
0.00428248846328436,17.256520689699
0.00455914465544631,17.2616690441471
0.00486510280255961,17.2671604831295
0.00518423537429839,17.272637026079
0.00551401716544197,17.2780102567054
0.00585755265387003,17.2832877894464
0.00621766183812388,17.2884683111138
0.0065982558315446,17.293563981421
0.00700338598036684,17.2985844156517
0.00743735690472586,17.3035375585568
0.00790472537127044,17.3084287006133
0.00841040355689085,17.3132608195262
0.00895977423354799,17.3180349621369
0.00955881545563364,17.3227506777466
0.0102142267347999,17.3274064652384
0.0109409092278986,17.3320449311555
0.0117596718684951,17.336716237546
0.0126876845142016,17.3414212427857
0.0137504080815208,17.3461825331435
0.0149859895989119,17.3510486046767
0.0164634532403064,17.3561385383215
0.0183567659433659,17.3618152207648
0.0207752428073919,17.3681636175323
0.02231508985126,17.3719089965777
0.0238800356274428,17.3756543756232
0.0252416034454802,17.3790219030853
0.0263896608443337,17.3821312058344
0.0273321179192746,17.3851437495817
0.0280130236812155,17.3880116542279
0.0284276537020673,17.3908212739615
0.0285605004150556,17.3937069776145
0.0283482393739351,17.3968899846007
0.0274960654712527,17.401181805625
0.0266288867594604,17.4040029635792
0.0255683758647134,17.4068241215335
0.0244936176444621,17.409348886822
0.0234198751245012,17.4116919136089
0.0223451382795933,17.413936862382
0.0212714143678987,17.4161276078081
0.0202021896946662,17.4182905633768
0.0191411670104259,17.4204437858071
0.0180918947872245,17.4226007571643
0.0170576650150716,17.4247722285783
0.0160414907508708,17.4269672444017
0.0150461083088295,17.4291937694328
0.0140739897548556,17.4314590978425
0.0131273515229234,17.4337701544196
0.0122081674765963,17.4361337156183
0.0113181804220384,17.438556591335
0.0104589057264229,17.441045805569
0.00963165006466528,17.4436087264433
0.00883751262821707,17.4462532466326
0.0080680459220728,17.4490229951413
0.00731306090452607,17.4519816068577
0.00657641332965557,17.4551511184086
0.00586198787546284,17.4585576988614
0.00517386008984764,17.4622316337527
0.0045162505247648,17.4662080962182
0.00389343233787137,17.4705282548042
0.0033095856992629,17.4752409796748
0.00276859030825592,17.4804057223951
0.00227372217698978,17.4860981753352
0.00182748001276506,17.4924186084958
0.0014370685852451,17.4993927417946
0.00111698078624255,17.5069169598807
0.000919111706352378,17.5133757713009
0.000730589455072677,17.5215974888899
0.000582469644656063,17.5304851044432
0.00046601317382001,17.5404851044432
0.000388952006548924,17.5504851044432
0.000340448201960888,17.5604851044432
0.000312664712415408,17.5704851044432
0.000300048825786161,17.5804851044432
0.00029886986634839,17.5904851044432
0.00030680007843799,17.6004851044432
0.000322564441063283,17.6104851044432
0.000345701026111656,17.6204851044432
0.000376439774510538,17.6304851044432
0.000415691552043444,17.6404851044432
0.00046514810000055,17.6504851044432
0.000525443042545217,17.6601817954262
0.000595158209354544,17.6691304534107
0.000675154868061458,17.6773739913128
0.000766684610355489,17.6849696947116
0.000871257949420752,17.6919708699585
0.000990626215067704,17.698426626284
0.00112679279351858,17.7043822854334
0.00128203866287156,17.7098797442078
0.0014589569093318,17.7149577831488
0.00166049466367802,17.719652340822
0.00189000445834102,17.7239967669557
0.00215130717656614,17.728022061958
0.00244877104224185,17.7317571066764
0.0027874113671164,17.7352288931659
0.00317302157054572,17.7384627690408
0.00361234821516298,17.7414827080454
0.00411333360571016,17.7443116270624
0.00468546556441391,17.74697178844
0.00534030530666684,17.7494853548282
0.00607786380442186,17.7518332203634
0.00689848775097933,17.7540162232786
0.00781767595339671,17.7560770667611
0.00886101216472192,17.7580638625757
0.0100768769438483,17.7600434822558
0.0115874611632067,17.7621551695997
0.0132871973103816,17.7642265026499
0.0147179074257398,17.7658123581968
0.0162250333615022,17.7673982137436
0.0175688930276125,17.7687933733455
0.0187618589873742,17.7700669832057
0.0198240616414881,17.7712850984175
0.0207518978917157,17.7724918590581
0.0215261595887769,17.7737284541634
0.0221097576187921,17.7750493958502
0.0224281952389895,17.7765591520218
0.022242313454141,17.7786334786242
0.0216049731021149,17.7803119477505
0.0206146144519379,17.7819904168768
0.0195043312106215,17.7834919850851
0.0182775160307123,17.7849622762324
0.0169405104056361,17.7864621477934
0.0155027879920638,17.7880292497431
0.0150358558939183,17.788536146521
0.0145722656563551,17.7890430432988
0.013928201675481,17.7897660987196
0.011770529597667,17.7923881366902
0.00974885992054747,17.7952087228453
0.00812102509184012,17.797840596985
0.0067788981006486,17.800348544056
0.00560203914019795,17.8028928796689
0.00456332095316134,17.8055043906264
0.00364402983224506,17.8082068124729
0.00282894589471045,17.8110237834527
0.0021050531915358,17.8139805801732
0.0015085541261602,17.8168544662898
0.00102259485411029,17.8195842716915
0.000616020743704783,17.8222127243384
0.000268674900029309,17.8247670738388
-3.11822404095996e-05,17.8272468934153
-0.000291344912857566,17.8296375337271
-0.000519600609194005,17.8319396624576
-0.000724381369337142,17.834180832104
-0.000914588003675476,17.8364178513904
-0.00110131394735787,17.8387604798322
-0.00131107366902404,17.8415591838753
-0.00144837536108647,17.8434799935317
-0.00158139443303995,17.845400803188
-0.00169700852029341,17.8471126209323
-0.00180173241618938,17.8486927625808
-0.0019037802682358,17.8502558834543
-0.00200961246201836,17.8518978709724
-0.00212811218451026,17.8537579720658
-0.00228279169436178,17.856215625008
-0.00253618922725437,17.8603117433478
-0.00274899454071102,17.863845966293
-0.00293248671637493,17.8670156504969
-0.00312416687226094,17.8705555538195
-0.00334089574755956,17.8751854705985
-0.00348298213733023,17.8793014966588
-0.00355220368690899,17.8830120927938
-0.00354980007828432,17.8865691286018
-0.00346175859554999,17.8902019899529
-0.00324618173741561,17.8942007111175
-0.00292838975348602,17.8978010277686
-0.00251746213999921,17.9011097632598
-0.00202486028229485,17.9041443555334
-0.00145624448699147,17.906940492897
-0.00080657732044831,17.9095587291391
-5.64022195292576e-05,17.9120803991042
0.000842688237649166,17.9146322268584
0.00202522428973548,17.917486137783
0.0034980398407267,17.9205568286386
0.00517777276297009,17.9236796240577
0.00706648199047008,17.9268788199894
0.00833045485131326,17.9288508951341
0.00970100636503807,17.9308229702787
0.0111053962779291,17.9326546069513
0.0125416064558508,17.9343307213126
0.0140984084726106,17.935939584517
0.0157975139118251,17.9374794559792
0.017681929976585,17.9389665133244
0.0197767334655959,17.9403984069985
0.0221177382503581,17.9417798704317
0.0247290024667933,17.9431075534101
0.0276512787498876,17.9443865288123
0.0309225979537501,17.9456184247168
0.0345853674064918,17.9468052249513
0.0386893322008087,17.9479497117055
0.0432952864895893,17.949055664516
0.0484724786666034,17.9501264520838
0.054302112070362,17.9511654964482
0.0608823151128199,17.9521766199508
0.0683307252015596,17.9531637533229
0.0767907740494508,17.9541311251112
0.086439968438133,17.9550834010544
0.0975028271973214,17.9560259604612
0.110269211358806,17.9569651695378
0.125125012777681,17.9579089597132
0.14260520579365,17.9588678301598
0.163444849029977,17.9598546039542
0.187573414357199,17.9608436199461
0.21562075070841,17.9618451589755
0.248430841074917,17.9628737965053
0.28724491042097,17.9639531983401
0.332472146889829,17.9650886116465
0.373519320949248,17.966054697893
0.407655981462474,17.9668447723627
0.437182838244806,17.9675457852731
0.462990738390122,17.9682017691189
0.485208079096813,17.9688392258924
0.503530257343364,17.9694801837018
0.517193204145584,17.9701490124799
0.52463598133194,17.9708815140275
0.522812338119727,17.9716880222728
0.509655157343678,17.9725133975571
0.483851275633246,17.97337389776
0.443682178054821,17.9742814629484
0.3872306344372,17.9752446936046
0.34281971811924,17.9758806624905
0.293637788939816,17.9765166313763
0.249822628776402,17.9770488447807
0.212275153794708,17.9774935704252
0.179291937471773,17.9778847800896
0.14974774879215,17.9782428046357
0.122964965325707,17.9785800853657
0.098480440862923,17.9789055534562
0.0759200506632419,17.9792270443795
0.0549011319852185,17.9795535453179
0.0348475969500374,17.979900124264
0.0140407176242184,17.9803139308337
0.00256357915391248,17.9805770288925
-0.00481559367148447,17.9807644854514
-0.0115596141739709,17.9809519420103
-0.0174323683597603,17.9811308862159
-0.0234379099049768,17.9813329845761
-0.0292970803245156,17.9815541379372
-0.0348244222224059,17.9817916052873
-0.0399161622062631,17.9820442642969
-0.0445172673403567,17.9823120483402
-0.048601819912236,17.982595622679
-0.0522669415077988,17.9829071084481
-0.0552385542825815,17.9832244272212
-0.0576917848308876,17.9835624235031
-0.0596413516085818,17.983924063943
-0.0611015399575097,17.9843127874766
-0.062086407815904,17.9847328348641
-0.062608278602528,17.9851894789369
-0.0626761384882016,17.9856893645175
-0.0622936895011637,17.9862410307761
-0.0614547494425702,17.9868569072808
-0.0601390710329375,17.9875534336161
-0.0583045399699177,17.9883545004199
-0.0558653496013684,17.9892994972387
-0.0526203369330016,17.9904689468118
-0.0485600687716296,17.9918808920365
-0.044615141045499,17.9932433218206
-0.040842264598556,17.9945634471465
-0.0372699601276138,17.9958442916925
-0.0339127871215207,17.9970870739818
-0.0307774552610333,17.9982920975715
-0.027865501783173,17.9994592170594
-0.0251746843350863,18.0005880832911
-0.0226998597053659,18.001678270841
-0.0204336406474006,18.002729340164
-0.0183669437763062,18.0037408615024
-0.0164894705714171,18.0047124149969
-0.0147901347078768,18.0056435749194
-0.0132169302249137,18.0065581557371
-0.0117022603983561,18.0074960566197
-0.0102508554776418,18.0084587013486
-0.00886669363957283,18.0094481458906
-0.00755356918446569,18.0104667976409
-0.00631503910623537,18.0115175047718
-0.00515437226315946,18.0126036699122
-0.00407449641699057,18.0137294026909
-0.00307794323520085,18.0148997290668
-0.00216679098621202,18.016120886281
-0.00134260412234293,18.017400751667
-0.000606368015550496,18.0187494899879
4.15845591397435e-05,18.0201805768897
0.000601661964513989,18.021712514091
0.0010662481909015,18.0233362597521
0.00142839692959382,18.0250041796888
0.00170470962294689,18.0267345766383
0.0019098169567287,18.0285479386956
0.00205738998474164,18.0304714737946
0.00216052263472269,18.0325434086832
0.00223228708457122,18.0348218549708
0.002286740903519,18.037405935868
0.00234157299704294,18.0405014440111
0.00241794928256077,18.0442348287969
0.00252316277517815,18.0481689231625
0.00266301291281364,18.0523415665492
0.00281374180992397,18.0562268004024
0.00297232379754082,18.0599835876712
0.00313734488434296,18.0637030307907
0.00330852714306301,18.0674418310847
0.0034865853424687,18.0712415514539
0.0036730354579724,18.0751365085851
0.0038700299860166,18.0791576343762
0.00408024315674557,18.0833348549766
0.00430680504948339,18.0876986246536
0.00455331806107319,18.0922812110663
0.0048240122766394,18.097118081548
0.00512411016203083,18.1022493034355
0.00545933626627007,18.1077022637678
0.00580200894757986,18.1129704465059
0.00616339905598984,18.1182005602766
0.00654226621262329,18.1233294963874
0.00694338461850234,18.1283789586844
0.00737069509222484,18.1333520396064
0.00782906428727988,18.1382576019106
0.0083235983278947,18.143100655138
0.00885986243945725,18.1478843097702
0.00944392286361553,18.1526094673631
0.0100824731844887,18.1572754021071
0.0107867269572316,18.1619039045965
0.0115798368550169,18.166568075883
0.012477208311117,18.171262489312
0.0135024652731831,18.1760066781871
0.0146896524498589,18.1808399266941
0.0160972381119008,18.1858569230035
0.0178577984542509,18.1913242454611
0.020271506398823,18.197840278236
0.0218554543524506,18.201746938767
0.0234870998950501,18.205653599298
0.0249139770574934,18.2091332035981
0.0261173775037814,18.2122943042277
0.0271157001651554,18.2153192119607
0.0278691405118685,18.2182222636546
0.0283564616013177,18.2210352244213
0.0285693326420662,18.2238838790887
0.0284625817332488,18.2269509286797
0.0278612335193884,18.2307337684217
0.0270354227162535,18.2337906251493
0.0259602097252438,18.236847481877
0.0248784536367261,18.2394815111387
0.0238043614105073,18.241875298649
0.0227299884305768,18.244147092908
0.0216557433080955,18.2463521442888
0.0205847969155113,18.2485214337235
0.0195208454077411,18.2506752898196
0.0184675123693845,18.2528284726398
0.0174281873545858,18.2549924960608
0.0164059838512453,18.2571768687407
0.0154037373939905,18.2593898250444
0.0144240144315015,18.2616387959312
0.0134691220958961,18.263930739014
0.0125411224060388,18.2662723741127
0.0116418393938514,18.2686703845494
0.0107728684006189,18.2711315851875
0.00993559090682419,18.2736630595393
0.00913117601856114,18.2762723315611
0.00835754090601331,18.2789786203843
0.00759706164209461,18.2818666201534
0.00685361540455438,18.2849569286832
0.00613101525765635,18.2882743941977
0.00543328012941722,18.2918477286554
0.0047645958526729,18.2957102264787
0.00412923925140415,18.2999007437755
0.00353145594179548,18.3044651373924
0.00297527239622893,18.3094586786271
0.00246422632518255,18.3149505777586
0.00200112869537209,18.3210314385256
0.00158802807229204,18.3278234552075
0.00124099307075373,18.3351404940789
0.000965998420669068,18.3430762381967
0.000777832842572061,18.3508255369665
0.000628437038800004,18.3592857988653
0.000511440441332908,18.3685972382724
0.000427002927277503,18.3785972382724
0.000374283272659577,18.3885972382724
0.000344940713282731,18.3985972382724
0.00033302574141745,18.4085972382724
0.000334510777172494,18.4185972382724
0.000346923641071066,18.4285972382724
0.000369024277728416,18.4385972382724
0.000400575730149762,18.4485972382724
0.000442246202400636,18.4585972382724
0.00049565813136101,18.4685972382724
0.000562253622017948,18.478416125079
0.000639739929253377,18.4874702815258
0.000728926137594082,18.495800916395
0.000831137062879229,18.5034685625707
0.000948022700500914,18.5105294919493
0.00108152315445947,18.5170353921235
0.00123387482010473,18.523033855659
0.00140763753586879,18.528568811026
0.0016057349309197,18.533680885158
0.00183150591631541,18.5384077248975
0.00208876959687407,18.5427842973752
0.00238190807360934,18.546843180723
0.00271597372212688,18.5506148521531
0.00309683049108285,18.5541279928356
0.00353134866529786,18.557409836592
0.0040276800115887,18.5604865960486
0.00459566630668872,18.5633840246511
0.00524747897071891,18.5661282351206
0.00598730867336813,18.5687107689855
0.00681713673439452,18.5711308177312
0.00775879694164862,18.573445063609
0.00885325775009841,18.5757291241011
0.0101997994628653,18.5781285955284
0.0121344123850875,18.5810735723478
0.0133590940454182,18.5827540810304
0.014637494217903,18.584434589713
0.0157937802711616,18.5859464012014
0.0168188909267791,18.5873359805824
0.0177242910840312,18.5886678411351
0.0185038972537586,18.5899877719122
0.0191381572889519,18.591339468
0.0195907439483377,18.5927813094418
0.0197887792911399,18.5944259095181
0.0194932724012005,18.5966841881504
0.0188357219087259,18.5984583779286
0.0178734058219913,18.6002325677067
0.0168157396646389,18.6018223214668
0.0156654831687973,18.6033689253722
0.0144284575550863,18.6049336724022
0.013113670471677,18.6065536542594
0.0117724443369941,18.6082634183569
0.00960322721223277,18.6113668645606
0.00799946084781667,18.6140286646183
0.00667445815264648,18.6165589639088
0.00550669589964839,18.619128161282
0.00447084277802356,18.6217674472646
0.00354936811073949,18.6245008187704
0.00273344631181718,18.6273309585178
0.00207385932523733,18.6299948890829
0.00153188303042578,18.6325121028253
0.00107740135450925,18.6349112487224
0.000687922154266634,18.63722362523
0.000346234547425272,18.6394844031585
3.7939009842415e-05,18.6417404061318
-0.000251734050716627,18.6440718552845
-0.000547625604937019,18.6466878623049
-0.000778747077281052,18.6489084375805
-0.000994683283284713,18.6511290128561
-0.00116534310453095,18.6529845271236
-0.00131055632764903,18.6546323068662
-0.0014462260867381,18.6562275304366
-0.00158148728185933,18.6578696538492
-0.00172583871786906,18.6596766923148
-0.00189804491250333,18.6619027396463
-0.00221699474216069,18.6662194704238
-0.00250475021770083,18.6703536443748
-0.00273602715565637,18.6739059199052
-0.00295949445617855,18.6776669837929
-0.00318731669579095,18.6822045886697
-0.00333412720288602,18.6862205550158
-0.00340700308419609,18.6898886756039
-0.00340716118199769,18.693442148165
-0.00331982409571852,18.69711751502
-0.00310197797710383,18.7011882497401
-0.00278599588101251,18.7047944075482
-0.00238378101083268,18.7080654893126
-0.00190332721682778,18.7110596448549
-0.00134394437409656,18.7138423577746
-0.000695822642648101,18.7164820934722
6.67646439227778e-05,18.7190691590037
0.00100272011297523,18.7217466291998
0.00221064573012942,18.7246939757334
0.00365712152616034,18.7277766164135
0.00524386109834586,18.7308327088348
0.00657803855567476,18.7332191749021
0.0080127247169738,18.7356056409694
0.00938395147732074,18.7376954834408
0.0106841916143827,18.7394904308135
0.0120671104462732,18.7412011185684
0.0135537561502407,18.742828991325
0.0151828261258751,18.7443930511811
0.0169906530314913,18.7459037048929
0.01900006599568,18.7473575171262
0.0212463761523529,18.7487600788396
0.0237523302183431,18.7501077755673
0.0265558675793066,18.7514052675924
0.0296932908914142,18.75265434082
0.0332047409145861,18.7538569962812
0.0371373581041922,18.755016068566
0.0415482393511183,18.756135268963
0.0465024796824811,18.7572179558985
0.0520761758722785,18.7582675212657
0.0583610512917406,18.7592877447154
0.0654664333184719,18.760282455404
0.0735248662219643,18.7612557297427
0.0826995447411549,18.7622120392966
0.0931949456843242,18.7631564375082
0.10527239416723,18.7640948104634
0.119275038644783,18.7650343337722
0.135670071118563,18.7659842671325
0.155125001440146,18.7669573897744
0.17791466519295,18.7679429297531
0.20435524382027,18.7689363348423
0.235190672866965,18.7699500199325
0.271461566562448,18.7710027653729
0.314878372338725,18.7721298438507
0.349972326312965,18.7729736766982
0.386409022200999,18.7738175095457
0.41879736750567,18.774566369849
0.447125243588866,18.7752472009585
0.471834009220425,18.7758929141733
0.492895230483448,18.7765275599281
0.509870107319303,18.7771732790777
0.521791446391341,18.7778569741433
0.52664144913784,18.7786225993334
0.521234679288596,18.7794322785985
0.504093531029093,18.7802668516239
0.473749956378545,18.7811413999538
0.42837944467511,18.7820664895795
0.380445571191144,18.782841473916
0.324384671611305,18.7836164582525
0.285305660449913,18.7841089191705
0.244389629660302,18.7846013800885
0.20768580959078,18.7850345408261
0.175196407710283,18.7854197461845
0.146029401452344,18.7857739863826
0.119556168268415,18.7861088880143
0.0953306532702076,18.7864331030114
0.0729821750987139,18.7867544807388
0.0521149143517511,18.7870824484879
0.0320877566759045,18.7874339201394
0.010668819719342,18.7878700936255
0.00131907031762176,18.7880891855609
-0.00713064393142781,18.7883082774962
-0.0136136153825975,18.7884937932177
-0.0195890693757449,18.7886818369782
-0.0255756312568692,18.7888911199866
-0.0313356029606067,18.7891181967886
-0.0367183642779077,18.789361012908
-0.0416408458362717,18.7896188839995
-0.0460603062927512,18.7898920370797
-0.0499568987220256,18.7901813573389
-0.0535672240672268,18.7905143079378
-0.0563285690771439,18.7908398805165
-0.0585745462554182,18.7911870081924
-0.0603224012602795,18.7915591024369
-0.0615865644833117,18.7919599148838
-0.062380586469634,18.7923940809094
-0.0627156392810155,18.7928673928203
-0.0625988066386152,18.793387204526
-0.0620305494528906,18.7939633196703
-0.0609991352196514,18.7946099304186
-0.0594767827929061,18.7953458842032
-0.0574071428256668,18.7962000994682
-0.0546712480440125,18.7972237621616
-0.0509491389303493,18.7985396904065
-0.0469275896705788,18.7999292745561
-0.0430473609366912,18.8012739842238
-0.0393531503971452,18.802578009078
-0.0358666395593314,18.8038434523676
-0.0325987138401072,18.805071067558
-0.0295537579216807,18.8062609254341
-0.0267316524413573,18.8074127701574
-0.024128897658099,18.8085262064356
-0.0217393779931659,18.8096007952118
-0.0195549649970025,18.8106360975025
-0.0175660345879699,18.8116316871244
-0.0157619251804589,18.8125871435218
-0.0141313443596516,18.8135020308503
-0.0125815217197577,18.8144257601324
-0.0110922982579883,18.8153732565897
-0.00966794884392901,18.8163462771009
-0.0083123863336577,18.8173470074113
-0.00702931766810951,18.8183780182679
-0.00582219282523385,18.8194423625524
-0.00469415315512255,18.8205437027337
-0.00364797768594701,18.8216864833416
-0.00268602736324528,18.8228761700243
-0.0018101867847503,18.8241195903806
-0.00102180233722952,18.8254254365051
-0.000321614512527596,18.826805036779
0.00029031997475691,18.8282736025459
0.000814725107617085,18.8298523759685
0.00123528819489482,18.8314914759481
0.00156037995454696,18.8331821187326
0.00180558815391837,18.834942758925
0.0019851164412338,18.8367962109959
0.00211234438786374,18.8387733777747
0.0022002649431402,18.8409189278039
0.00226216044282704,18.8433035338908
0.00231299966941357,18.84605570682
0.00237391675797782,18.8494786557954
0.00245804257767798,18.8532414360869
0.00257245139233105,18.8571737480508
0.00270567833950981,18.8609559125294
0.00285362005146155,18.8646815049641
0.0030130453028252,18.8684135203037
0.0031820419775561,18.8721965635152
0.00336004665923655,18.876066422044
0.00354767300404668,18.8800547458134
0.00374650085416518,18.8841916314428
0.00395888815004141,18.8885073906665
0.00418783565650655,18.8930338342704
0.00443697270181802,18.8978056297221
0.00471073892553092,18.9028617854023
0.00501483815678525,18.9082469270064
0.00533819835619248,18.9136988559221
0.00567239594487921,18.9190308110975
0.00602219832350505,18.9242813489313
0.00638951012628255,18.9294348988042
0.00677847428171702,18.9345057400624
0.0071931812781061,18.9395017985077
0.00763814808592483,18.9444310555847
0.00811815789912184,18.9492985415601
0.0086383935862528,18.9541070997852
0.00920452813834405,18.9588575273759
0.00982285297702254,18.9635490978646
0.0105004164752801,18.9681801510822
0.011259794946348,18.9728339215738
0.012116749476362,18.9775160232762
0.0130919316140544,18.982239249012
0.0142144721159676,18.9870327000796
0.015531049592083,18.9919641582031
0.017134967032532,18.9972089688649
0.0193225157022793,19.0034148569957
0.0210449312478215,19.0078024413678
0.0228624410177994,19.0121900257398
0.024401268368409,19.0158928995447
0.0256854775563828,19.0191506832111
0.0267604778086628,19.0222092779271
0.027614962617945,19.0251771754038
0.028200794487165,19.0280106504544
0.0285180182296264,19.0308299799662
0.0285389520589859,19.0337868195407
0.0281631609407656,19.0371898075128
0.0273818054516907,19.0406222952845
0.0262597036687278,19.0440547830563
0.0251613018517129,19.0468223173236
0.0240852112222911,19.0492677530989
0.0230109280108748,19.0515657943622
0.021936256011119,19.0537855822335
0.0208639051793573,19.0559627751974
0.0197975173759298,19.0581198842564
0.0187407577329271,19.0602728804661
0.0176970818033084,19.0624340176536
0.0166696742967957,19.0646132828175
0.0156614413506987,19.0668192301381
0.0146750158507107,19.0690595121817
0.0137127698911948,19.0713412362967
0.0127768267999135,19.0736712257562
0.0118690684228568,19.0760562349083
0.0109911504809403,19.0785031103035
0.0101445060483614,19.0810189653644
0.00933036095799639,19.0836113177586
0.00854973800971747,19.0862882639372
0.0077855124430351,19.0891281981086
0.00703730469162846,19.0921648913981
0.00630892601585809,19.0954221141411
0.00560434337372256,19.0989275445711
0.00492770158246056,19.1027132555171
0.00428325945980171,19.1068166106879
0.00367528290230246,19.1112815445601
0.0031078763998884,19.1161606398377
0.00258472968635483,19.1215189908092
0.00210885274523716,19.1274408837653
0.00168247003841711,19.1340394402493
0.00131850990560637,19.1412135790712
0.00102969639685398,19.1489774572031
0.000835345691958073,19.1563574723123
0.000673615395080773,19.1646881906711
0.000546807042023025,19.173766637778
0.000451620562681112,19.183766637778
0.000391198939076213,19.1937666377781
0.000356263561081896,19.2037666377781
0.000340164973317866,19.2137666377781
0.000338357606416246,19.2237666377781
0.000347989259757574,19.2337666377781
0.000367534358834301,19.2437666377781
0.000396525509063838,19.2537666377781
0.000435421951284476,19.2637666377781
0.000485628073775738,19.2737666377781
0.000548599072027229,19.283613153061
0.000622013635025978,19.2926974496118
0.00070657372607386,19.301058914999
0.000803500042513981,19.3087573466844
0.000914336373747247,19.3158484108416
0.00104090771701511,19.3223832627427
0.00118532139753532,19.328409018166
0.00134998996219744,19.3339691697728
0.00153766684388612,19.3391039368074
0.00175149216551105,19.343850572669
0.00199504997880244,19.348243649018
0.00227244064733386,19.3523153265836
0.00258837308000988,19.3560956180743
0.00294828418593025,19.3596126577807
0.00335849977038304,19.3628929976704
0.00382645576888099,19.3659619520673
0.00436101627564662,19.3688440263077
0.00497295155068808,19.3715635011735
0.00567518091550627,19.3741435738937
0.00645818658288709,19.3765369988889
0.0073368237050792,19.3787914887408
0.00833633328619817,19.3809619791571
0.00950515998150752,19.3831252164958
0.0109696983493023,19.3854455819083
0.0124994312777835,19.3875640571615
0.0138222813717384,19.3892384807509
0.0152118990163379,19.3909129043402
0.0164471348867126,19.3923857886484
0.0175412903520779,19.3937318405931
0.0185112740884979,19.3950190376909
0.0193525518938138,19.3962929951612
0.0200461814932369,19.3975962398716
0.020556311588173,19.3989846661382
0.0208115561475164,19.4005641465179
0.0205876677724878,19.402704344424
0.0199500335543802,19.4044599876561
0.0189778568708155,19.4062156308883
0.0179027500673825,19.4077748584103
0.0167265038453256,19.4092910681761
0.0154544083655326,19.4108280853238
0.0140956867967924,19.4124236743872
0.0130506339811307,19.4136646308613
0.0120605802339156,19.4149055873355
0.0101085959310062,19.417599132539
0.00843200727112689,19.4202575401417
0.00705417675837483,19.4227730990985
0.00584455138026924,19.4253187525619
0.00477486061020915,19.4279269963457
0.00382599185785238,19.4306220130202
0.00298245684794913,19.4334274864566
0.00223521024236299,19.4363506264357
0.00163440356940563,19.4391013434126
0.00114178928943471,19.4417048565495
0.000728361517720811,19.4441953597156
0.00037345485427015,19.4466048383452
6.21042399536071e-05,19.4489630664147
-0.000217407111464647,19.4513037114071
-0.00047644226515538,19.4536835533713
-0.000731528564581295,19.4562415588822
-0.00104050757134031,19.4596382884786
-0.00119858066733234,19.461503330188
-0.00135004915715844,19.4633683718975
-0.00148411997783839,19.4650797848055
-0.00160875182937593,19.4667186533346
-0.00173234904348958,19.4683864501966
-0.0018632261546289,19.4701953189957
-0.00201611611610908,19.4723602082429
-0.00225829444049055,19.4758972326586
-0.00249070537046244,19.4794262063743
-0.00268024322426125,19.4824335817889
-0.0028652701921469,19.485542415743
-0.00306385685742253,19.4892155006871
-0.00325838903302635,19.493573125471
-0.00337823777717037,19.4974810607109
-0.00342704674301588,19.5011029671885
-0.0034017693752026,19.50466158796
-0.00328159106843351,19.5084029245527
-0.00303308294073477,19.5123568867893
-0.00268907698744314,19.5158892832253
-0.00225827402956,19.5191193984533
-0.00174664534611959,19.522099346845
-0.00115311877982384,19.5248837900715
-0.0004676777227505,19.5275344302841
0.00033376230621973,19.5301308525533
0.00131581978678507,19.5328268932264
0.00259222277580971,19.5358237555802
0.00410012797352603,19.5389150583511
0.00581661570664215,19.5420710806183
0.00714056922326754,19.544306506854
0.00857564418512642,19.5465419330898
0.00998091221464154,19.5485328499963
0.0113788429764315,19.5503152180804
0.0128522021414935,19.5519893270219
0.0144477281513815,19.5535888596954
0.0161955811899824,19.5551221846202
0.0181360498366672,19.5566024826444
0.0202914286676093,19.5580258732236
0.0226979112241097,19.559397756681
0.0253870904753362,19.5607187903682
0.0283903040301363,19.5619889957226
0.0317515095024525,19.5632126649809
0.0355161933462549,19.5643923934143
0.0397354833605064,19.5655307616925
0.0444723737667317,19.5666314956275
0.0497996516547396,19.5676981108696
0.0558032085825324,19.5687342033339
0.0625855774496609,19.5697435298582
0.0702717673576996,19.5707302310926
0.0790147310144697,19.5716987444374
0.0890052811988954,19.5726540402532
0.100487090199909,19.5736019396839
0.113779266567411,19.574549512246
0.129314667902018,19.5755058256137
0.14770942223251,19.5764833385161
0.169375241994218,19.577478228894
0.194504606249279,19.5784797038253
0.22379924568705,19.5795000064102
0.258231907995098,19.5805572486282
0.299347212380151,19.5816836556804
0.334688645583742,19.5825752674371
0.371679631292107,19.5834668791939
0.404541632293489,19.5842512515384
0.433250061664429,19.5849575026169
0.458327684959276,19.5856214794403
0.47981639542544,19.5862682311409
0.497365155990661,19.5869193818372
0.510165925392683,19.5875991427762
0.516601082839031,19.5883429820596
0.513660412059248,19.5891573723123
0.499420127812696,19.5899902455272
0.472563820481828,19.5908569770802
0.431419174399619,19.5917686982461
0.374148653271721,19.5927343467915
0.331335976824582,19.5933450263884
0.284311501797546,19.5939557059853
0.24223919078451,19.5944719700343
0.205896026010276,19.5949084053258
0.173800963328352,19.5952953147855
0.144961129947768,19.5956512247151
0.118762457183977,19.5959877977747
0.0947738191358067,19.5963136467233
0.0726361425871796,19.5966365759122
0.05196583471125,19.5969659181648
0.0321456550601159,19.5973182471776
0.0110842565010643,19.5977518433335
0.00150023255145279,19.5979787995666
-0.00713802883984498,19.5982057557997
-0.0136058811479972,19.5983936231104
-0.0195471983793258,19.5985834797912
-0.0254942023919855,19.5987946463508
-0.0312125225275093,19.5990236846659
-0.0365535305809184,19.5992685397938
-0.0414354154145337,19.5995285336198
-0.0458161957864773,19.5998039029753
-0.0496729165843716,19.6000955449169
-0.0530829657346335,19.6004143521502
-0.0558348169386113,19.6007411661895
-0.0580754183387236,19.6010897634149
-0.0598196946645371,19.6014633240728
-0.0610818826822188,19.6018655768573
-0.0618754118738903,19.6023011278413
-0.0622114040814465,19.6027757257036
-0.0620969953097173,19.6032966574839
-0.0615328715217136,19.6038736121585
-0.0605077842122082,19.6045206192914
-0.0589949458947228,19.6052562036683
-0.0569401412834012,19.6061086211765
-0.0542298438972757,19.6071273516378
-0.0505656012248091,19.6084281718226
-0.0465626343755672,19.6098165079123
-0.0427009845374565,19.6111593453795
-0.0390256892305638,19.6124610376031
-0.0355583666516851,19.6137238202308
-0.0323097384086691,19.614948530585
-0.0292839876841103,19.6161352958631
-0.0264807886080933,19.6172839003873
-0.0238964492393558,19.6183939786082
-0.0215246873116899,19.6194651138619
-0.0193572392832954,19.6204968837989
-0.0173843798422816,19.6214888738894
-0.0155953798195519,19.6224406705665
-0.0139789108464002,19.6233518403356
-0.0124329120956588,19.6242777651641
-0.010947947637613,19.625227561058
-0.00952819067735156,19.6262030627378
-0.0081775367910069,19.6272064881484
-0.00689966964925593,19.6282404483021
-0.00569801038771594,19.6293080464318
-0.00457566563885646,19.6304130089149
-0.00353537346609713,19.6315598627936
-0.00257944710242031,19.6327541824072
-0.00170971596652255,19.6340029420104
-0.000927462707533288,19.6353150374564
-0.000233353743557064,19.6367020907074
0.00037264165952409,19.638179756161
0.000891353839320688,19.639769986605
0.00130459547114952,19.6414130851145
0.0016239866608804,19.6431094877265
0.0018649373702202,19.6448777544659
0.00204159626917186,19.6467413055318
0.00216733453193485,19.6487320251164
0.00225520755791257,19.6508963302276
0.00231868804390149,19.6533084209932
0.00237324255671782,19.6561055611978
0.00244169246687493,19.659623901241
0.00253394411093697,19.6634018044494
0.00265136762926636,19.6671781223376
0.00278929677758812,19.6709034708029
0.00294401539698672,19.6746371701094
0.0031122794364144,19.678423311765
0.00329209201350199,19.6822974780466
0.00348285382633878,19.6862911745119
0.00368525139573868,19.6904344565349
0.00390106321613106,19.6947576280349
0.00413297553034046,19.6992925491533
0.00438449429781673,19.704073963536
0.00466005070337497,19.70914096905
0.00496539077638429,19.7145383042015
0.00528916803672846,19.7199982732761
0.00562331307189202,19.7253386003585
0.00597255782506782,19.7305961540871
0.00633889267344684,19.7357563021462
0.00672645755277639,19.7408333403063
0.00713933340827137,19.7458353773327
0.00758200495621863,19.7507704669566
0.00805921212919251,19.755643716067
0.00857608313411109,19.7604580329816
0.00913822808077021,19.7652142907901
0.00975186667029895,19.7699118317689
0.0104239640094071,19.7745490258234
0.0111751085549002,19.7791988375969
0.0120223529399535,19.7838779875032
0.0129854348050644,19.7885962265528
0.0140924594050742,19.793380730683
0.0153876682068301,19.7982937225794
0.0169570809495,19.8034936223063
0.0190556224766845,19.809532056153
0.0208288280397248,19.8140974192428
0.0227133193356635,19.8186627823327
0.0242825543452269,19.8224317814945
0.0255852759726472,19.8257153002712
0.0266768441349167,19.8287837892135
0.0275533048666329,19.8317680383158
0.0281601625590486,19.8346080234526
0.0284991288873637,19.8374236545079
0.0285455759648017,19.8403621368637
0.0282091549144272,19.8437076170063
0.0272000474784382,19.8480560094905
0.0263031856552838,19.8507449772946
0.0252445912321634,19.8534339450987
0.0241718261970828,19.8558877131197
0.0230978951066908,19.8581940985581
0.022023212573651,19.8604187297462
0.0209505450867498,19.8625984324481
0.0198835220544587,19.8647564547439
0.0188258212643803,19.8669091773887
0.0177809200650942,19.8690690969826
0.0167520273483295,19.8712463501927
0.0157420731522252,19.8734495846148
0.0147537132707067,19.8756865090908
0.0137893421810867,19.8779642593188
0.0128511037058623,19.8802896682842
0.0119408999986982,19.8826694808936
0.0110604063595017,19.8851105179372
0.0102110737126971,19.8876198539346
0.00939414577251105,19.8902049489923
0.00861066151308077,19.892873826637
0.00784516650785199,19.8956979051636
0.00709534459255138,19.8987169299346
0.00636501357227611,19.9019542808869
0.00565812209185742,19.9054372811247
0.00497879976320752,19.9091975773234
0.00433129653354663,19.9132720073225
0.00371987997970888,19.9177038272287
0.00314866699351226,19.9225447302365
0.0026213977540666,19.9278582996749
0.00214113044057243,19.9337266784789
0.00171013885519349,19.9402596911814
0.00134001572994437,19.9473875391361
0.00104239077895273,19.955096048054
0.000806065500250782,19.9639267612983
0.000658763021186548,19.9716276851774
0.000528024264452805,19.9809801938291
0.000436502796330637,19.9904900969146
0.00037604795803982,20
