ecg,time
0.0111831460059328,15.0010944070205
0.0120450935696377,15.0057412867075
0.0130246199097047,15.0104199864408
0.0141500312432658,15.0151561445662
0.0154658728242318,15.0200098774101
0.017058571236112,15.0251347237318
0.019182148079381,15.0310607499759
0.0209948715343741,15.0355785270812
0.0229258407697051,15.0400963041864
0.0245324056701929,15.0438137829229
0.0258669447551716,15.0470456789872
0.0269880423736677,15.0500625139701
0.0278915033843936,15.0529891606334
0.0285241002582653,15.0557716441583
0.028888630204427,15.0585269906779
0.0289621118692713,15.0613967534946
0.0286593170530135,15.0646479779762
0.0276717680370455,15.0689571076422
0.0267859347081107,15.0715992732673
0.0257338983069003,15.0742414388923
0.0246660191884953,15.0766467060197
0.023595901907907,15.0789033432903
0.0225239640425683,15.0810771318783
0.0214529923530549,15.0832046957403
0.0203866459565887,15.0853089800843
0.0193286211208985,15.0874060488395
0.0182824020835077,15.0895080802612
0.0172511948472632,15.0916248908842
0.016237919392398,15.0937648017358
0.0152452183700663,15.0959351791896
0.0142754690052868,15.098142801187
0.0133307989619381,15.1003941136341
0.012413094452586,15.1026954429609
0.0115240132749028,15.1050531613346
0.010664996352015,15.1074738346282
0.00983727384803975,15.1099643781009
0.00904034379797718,15.1125373360875
0.0082536004578905,15.1152797975614
0.00748084106671326,15.1182108685932
0.00672581359597898,15.1213536655598
0.00599251542679136,15.1247349193399
0.00528516993289666,15.1283856532563
0.00460817803463703,15.132342038085
0.00396603865440277,15.1366464974992
0.00336320811205961,15.1413493892275
0.00280384688517301,15.1465122195838
0.00229152364136745,15.1522132564471
0.00182893469735515,15.1585572770618
0.00143070236469635,15.1654381398129
0.00110237032398926,15.172854434286
0.000889347606885271,15.1794549065515
0.00068669743630364,15.1878087947594
0.000526779151214003,15.1968176331739
0.000400562468491828,15.2068176331739
0.000313694357889029,15.2168176331739
0.000254820525611944,15.2268176331739
0.000215679542787064,15.2368176331739
0.000190325287521572,15.2468176331739
0.000174603015844977,15.2568176331739
0.000165680999780101,15.2668176331739
0.000161654390895619,15.2768176331739
0.000161249376056924,15.2868176331739
0.000163622203257642,15.2968176331739
0.00016822891199621,15.3068176331739
0.00017474141960224,15.3168176331739
0.000182992989947947,15.3268176331739
0.000192943243914549,15.3368176331739
0.000204657417656995,15.3468176331739
0.000218297055183761,15.3568176331739
0.000234120801744757,15.3668176331739
0.000252495189122576,15.3768176331739
0.000273916671879385,15.3868176331739
0.000299047969660232,15.3968176331739
0.000328774389867392,15.4068176331739
0.000364289962779312,15.4168176331739
0.000407230271529554,15.4268176331739
0.000459881450075992,15.4368176331739
0.000520270122637376,15.4460881906656
0.000589137080843457,15.4546409883003
0.000667602471595562,15.46253065455
0.000756978264043504,15.4698095063562
0.000858761519223997,15.4765260997925
0.000974648981969216,15.4827254777002
0.00110656134754666,15.4884494442375
0.00125667284795798,15.4937368074567
0.00142744576519421,15.4986235972599
0.00162166940759864,15.5031432742159
0.00184250753457603,15.5073269310057
0.00209355397171514,15.5112034845653
0.00237890123867168,15.5147998606733
0.00270322578320113,15.5181411818491
0.0030718962642968,15.521250964132
0.00349111551140512,15.5241513253549
0.0039681098909903,15.5268632180968
0.00451139242449937,15.5294067087698
0.00513114209223492,15.531801332526
0.00583655030134575,15.5340571818945
0.00661660630909545,15.536134559996
0.00748131638309384,15.5380688599929
0.00844604808354938,15.5398960871147
0.00953504644319589,15.5416551833319
0.010792130779211,15.5433978941072
0.0123489834551737,15.5452556939631
0.0146973719415343,15.5476504629268
0.0162593980628917,15.5490760382545
0.0179040467383013,15.5505016135821
0.0194017024429248,15.5517810414446
0.0207385755276646,15.5529530617932
0.0219356311173566,15.5540769833544
0.0229896778545477,15.555194171057
0.0238804598194576,15.5563442070603
0.0245680216876749,15.5575810824116
0.024970140551158,15.559012681869
0.024797137876643,15.561072925578
0.0241360752158378,15.5626246578835
0.0231144362191455,15.5641763901889
0.0219468360886715,15.5655955958839
0.0206386369189184,15.5670059586717
0.019198078402531,15.5684614246996
0.0176343687200005,15.5699994414942
0.0166579334572264,15.5709592170687
0.0157050888208027,15.5719189926433
0.0138580281687017,15.5739112847882
0.0114204662537197,15.5768885430003
0.00945606775450382,15.5796918846408
0.00790192176614729,15.5822765116035
0.00660893667427479,15.5847727601695
0.00547786397070085,15.5873123630012
0.00448331406313795,15.5899238372529
0.00360727178171776,15.5926304487909
0.00285172404431162,15.5953896052288
0.00224711492286331,15.5979885169564
0.00175395480024125,15.600456762477
0.00134206962822519,15.6028347734483
0.000989357452440306,15.6051667788674
0.000679268654633111,15.6075026146313
0.000397753658388421,15.6099124909424
0.000126185720701664,15.6125603274538
-9.85283430854092e-05,15.6150436623573
-0.000260040771909967,15.6170214439155
-0.000408360782476064,15.6189992254737
-0.00053061828169735,15.6207576189251
-0.000638725370016623,15.6224166222523
-0.000741254407487631,15.6240857423527
-0.000844848878630683,15.6258712352776
-0.000958845788543431,15.6279551123608
-0.00111362509069342,15.630988903336
-0.00128589511262029,15.634644647684
-0.00142090328381538,15.6377152512888
-0.0015470105032514,15.6407465298687
-0.0016839809877568,15.6442233619281
-0.00184662675918156,15.6486372265422
-0.00203560815869994,15.6543800161104
-0.00216277034889692,15.6592982842207
-0.00222890141509979,15.6637464220253
-0.00222248765329445,15.6677287031305
-0.00213523893054089,15.6713065231903
-0.00196060643236273,15.6745496120224
-0.00169200610900483,15.6775309895256
-0.00132158592509366,15.6803139994915
-0.000838378368673265,15.6829573466022
-0.000222486986546893,15.6855321405399
0.000570073488931923,15.6881508694323
0.00165374782073489,15.6910430038793
0.00306990307332468,15.6941690524304
0.00484465471875375,15.6975038121457
0.00617760445788489,15.6997227600439
0.0076525893650865,15.7019417079421
0.00910349178445299,15.7038975661242
0.0105775409546223,15.7056687487962
0.0121286235779342,15.7073190022906
0.0138120815404889,15.7088934082442
0.0156551885039334,15.7103987063388
0.0177000792243878,15.7118497786586
0.0199700777246365,15.7132440613688
0.0225033221821936,15.7145876393639
0.0253321046292301,15.7158811368976
0.0284916769131846,15.717125777192
0.0320278078602899,15.7183254854492
0.0359887979751209,15.7194828621809
0.040428246461078,15.7206002747973
0.0454142026782271,15.7216816692595
0.0510244029360942,15.7227305110715
0.0573507947622305,15.7237503654439
0.0645037660870132,15.7247450243824
0.0726170191667312,15.725718525791
0.0818554442915912,15.7266753446416
0.092426957666463,15.7276206564136
0.104597235993604,15.7285604446571
0.118716319685952,15.7295020527836
0.135262488819946,15.7304549999532
0.154923122377181,15.7314325350804
0.177887208189289,15.7324199698283
0.204540001096671,15.733416268744
0.235642675864757,15.7344343097836
0.272269675789109,15.735493802729
0.316060870053685,15.7366285674022
0.350770630177844,15.737463988422
0.386689676009282,15.7382994094417
0.418646763739148,15.7390438708565
0.446620522117919,15.7397234690706
0.470993886171344,15.7403698247117
0.491702675581713,15.7410065441667
0.508275722204904,15.7416557976977
0.519697945350031,15.7423449817349
0.523846525880066,15.7431195965748
0.517579792285268,15.7439319381819
0.499512557009125,15.7447700167494
0.468154033782895,15.7456484753864
0.421679632359065,15.7465775025304
0.374346672294882,15.7473333803417
0.31938477853357,15.7480892581531
0.280714638711065,15.7485760245285
0.240316410449582,15.749062790904
0.204052685018416,15.7494920052466
0.171898909124309,15.7498748655897
0.142999747171838,15.7502277543707
0.116749121023385,15.7505619787281
0.0927122012534081,15.7508860624669
0.0705222650805175,15.7512078690263
0.0497787159321464,15.7515370603433
0.0298082651779039,15.7518915529941
0.00806879138182016,15.7523413400373
-0.000552855155739553,15.7525468678809
-0.00838945578550809,15.7527523957246
-0.0147890652798453,15.7529370126794
-0.0207602675071819,15.7531264958984
-0.0267279786480599,15.7533370458475
-0.0324591384189368,15.7535652622955
-0.0378077349402765,15.7538091733849
-0.0426934364608905,15.7540681494261
-0.0470751105661418,15.7543424556426
-0.0509352424468245,15.7546330072022
-0.0544966985302245,15.7549661780175
-0.057225995842147,15.7552930699672
-0.059440913343259,15.7556416766853
-0.0611584998605867,15.7560154239485
-0.0623931063463885,15.7564181002197
-0.063158128071631,15.7568543876708
-0.0634645013661745,15.7573301397169
-0.0633189792108013,15.757852793013
-0.0627214564882651,15.758432340624
-0.0616594593724016,15.7590831129981
-0.0601041289651842,15.7598242734596
-0.0579971452632245,15.7606853518009
-0.0552148914973378,15.7617190482694
-0.0514190635411651,15.7630543778412
-0.0473925880556363,15.764440928687
-0.0435116793231049,15.765782847197
-0.0398191757619647,15.7670841785245
-0.0363358876348593,15.7683469431194
-0.0330721862179878,15.7695718550719
-0.030032099504599,15.7707589684949
-0.0272152353863855,15.7719080225175
-0.0246178765113713,15.7730186225359
-0.0222337330179278,15.7740903325916
-0.0200545398448066,15.7751227172367
-0.0180705705018869,15.7761153529978
-0.0162710922011792,15.7770678203273
-0.0146447695105498,15.7779796820128
-0.0130909551515964,15.7789051283857
-0.0115980176988818,15.7798544276922
-0.0101701436790806,15.7808293986015
-0.00881122381957743,15.7818322520607
-0.00752493677909631,15.7828655905122
-0.00631469801036351,15.7839325066179
-0.00518360730347965,15.7850367134635
-0.0041343940855308,15.7861827210377
-0.00316936030157276,15.7873760813067
-0.00229032022119535,15.7886237384102
-0.00149853571467794,15.7899345464116
-0.000794644102766602,15.791320067074
-0.000178572900406073,15.792795863887
0.00035057012299816,15.7943837435965
0.000774588690227696,15.7960259813523
0.00110442703977073,15.7977211674887
0.00135559976844112,15.7994878363633
0.00154234534070966,15.801349282194
0.00167813560471167,15.8033371850072
0.00177614839981553,15.8054975973617
0.00185002370755619,15.8079039807181
0.00191549657139439,15.8106917486224
0.00199593506750641,15.8141899302029
0.00209979394876502,15.8179643962067
0.00223262247618019,15.8218798015135
0.00238332084862015,15.8256832636415
0.00254809943354685,15.8294545235543
0.00272387141457757,15.8332497122516
0.00290883292817518,15.8371105041621
0.00310253526785191,15.841071556357
0.00330572437725609,15.8451643849154
0.00352012480048714,15.849419611473
0.00374824446895302,15.8538685653683
0.00399325429696527,15.8585446220874
0.00425902345480506,15.8634846762319
0.00455037957436927,15.8687304436223
0.00487369883162349,15.8743298312969
0.0052015729470919,15.8797462183255
0.00554368769074406,15.8851072026322
0.00589932384106255,15.8903546843229
0.00627297543539677,15.8955116697269
0.00666828489138876,15.9005832486035
0.00708961866958186,15.9055800829352
0.00754144396655496,15.9105086136966
0.00802856053928773,15.915373242673
0.00855614256058443,15.920175911181
0.00912986963052616,15.9249166989434
0.00975603630455527,15.9295941891775
0.0104416719998192,15.9342059916222
0.011208986655935,15.9388313727465
0.0120743226637387,15.9434789919866
0.013058004487548,15.948159030564
0.0141886701474992,15.9528977366027
0.0155116445102799,15.9577569489224
0.0171156432412614,15.9628953398099
0.0192669564609591,15.9688705806663
0.0210621283120555,15.973329031241
0.022970026846287,15.9777874818158
0.0245669164589709,15.9814842338545
0.0258958873276439,15.9847083517724
0.0270120969443051,15.9877221576822
0.027909067510032,15.9906439424411
0.028535492662089,15.9934244081734
0.0288936874793253,15.9961806281873
0.0289598227678969,15.9990552910827
0.0286460478416438,16.0023216219161
0.0276484472302868,16.0066238715453
0.026760283900951,16.0092576299717
0.0257080304671006,16.0118913883981
0.0246401894888428,16.0142917500229
0.0235700194179835,16.0165457718906
0.0224980660126633,16.0187180995303
0.0214271610456234,16.0208448779171
0.0203609710261077,16.0229488292568
0.0193031888269897,16.0250458975557
0.0182572923498299,16.0271481902532
0.0172264806759815,16.0292654797484
0.0162136668621252,16.0314060592298
0.015221487053482,16.0335772774897
0.0142523121848063,16.0357859025223
0.013308263904986,16.0380383759735
0.0123912228968247,16.0403410240917
0.0115028412454292,16.0427002239963
0.0106445550038471,16.0451225487561
0.0098175891789058,16.0476149260854
0.00902087062553519,16.0501918269899
0.0082344287816452,16.0529386695815
0.00746205956821658,16.0558746513027
0.00670751727698278,16.0590229700159
0.00597480502861871,16.0624104541372
0.00526815117742176,16.0660682429814
0.00459196007323515,16.0700326473641
0.0039507316831631,16.0743462625801
0.0033489183875924,16.0790596757058
0.00279066996652241,16.0842347249208
0.00227953614632533,16.0899502009462
0.00181819069736582,16.0963116886866
0.00142163536979434,16.1032047712636
0.0010953725349794,16.1106356625986
0.000877127004963204,16.1174809900038
0.000679631663202795,16.1257480900228
0.000520650935132123,16.13482747873
0.000396389563108609,16.14482747873
0.000310918375351376,16.15482747873
0.00025303902244794,16.16482747873
0.000214600063108678,16.17482747873
0.000189740941781548,16.18482747873
0.000174371859751124,16.19482747873
0.000165707658240254,16.20482747873
0.000161875551011516,16.21482747873
0.000161623592629568,16.22482747873
0.000164123230357818,16.23482747873
0.000168841456760107,16.24482747873
0.000175458444333288,16.25482747873
0.000183814027359588,16.26482747873
0.000193873439087688,16.27482747873
0.000205707154016408,16.28482747873
0.000219482105085311,16.29482747873
0.00023546300639648,16.30482747873
0.000254023742394632,16.31482747873
0.000275670174723421,16.32482747873
0.000301077556441257,16.33482747873
0.000331148439696833,16.34482747873
0.000367101262827271,16.35482747873
0.000410607120087438,16.36482747873
0.000463811598284173,16.3747942461838
0.000524726529198429,16.3840163839787
0.000594183624585317,16.3925238764852
0.000673318593608175,16.4003717967468
0.000763455340253672,16.4076122235762
0.000866103336992721,16.414293469942
0.000982973121228661,16.4204603546018
0.00111600094592401,16.4261544750572
0.00126737870186734,16.4314144479816
0.00143958867734561,16.4362761262736
0.00163544301784433,16.4407728072378
0.00185813160265862,16.4449354334896
0.00211127847612907,16.4487927843221
0.00239901125204773,16.4523716601648
0.00272604778103761,16.4556970708935
0.00309780616238188,16.4587924332126
0.0035205492674647,16.4616797799278
0.00400157803521992,16.4643799951606
0.00454950048617312,16.4669130972433
0.00517462068549819,16.4692986000409
0.00588456763693976,16.4715417307851
0.00666969582898203,16.4736087218405
0.00754029063144298,16.4755349584994
0.00851212577768696,16.4773564651326
0.0096102584526185,16.4791126027546
0.0108804888521848,16.480856573439
0.012466600853641,16.4827309527656
0.0148754866881086,16.4851633795611
0.0164268690261846,16.4865689176029
0.0180537838437092,16.4879744556447
0.0195341261353422,16.4892398306602
0.0208575711853699,16.490405166872
0.0220418083481368,16.4915267857601
0.0230818195424802,16.4926452210092
0.0239558063156223,16.4938006193023
0.0246213382593696,16.4950495712051
0.0249891239779829,16.4965100793287
0.0247108264608613,16.4987018513109
0.0239956184527974,16.5002211838253
0.0229496221482423,16.5017405163397
0.0217602772221752,16.5031531530064
0.0204311973637922,16.5045676404147
0.0189712664626756,16.506033292951
0.0173892499387599,16.507587118373
0.0163409173880932,16.5086199997186
0.015331423279645,16.5096528810642
0.012955377732209,16.5123069351872
0.010667947179971,16.5152575801127
0.00886542438804403,16.5179752280558
0.00742522047677098,16.520500432227
0.0061930995895584,16.5230079493747
0.00511255860140055,16.5255702012999
0.00416168705424482,16.528212628821
0.00332384600980396,16.5309583898939
0.00262513004923304,16.533663211612
0.00206278612491967,16.5362161553779
0.0016005582089329,16.5386515096653
0.00121125430231483,16.5410114313717
0.000874996708074976,16.5433412601463
0.000576569997295026,16.5456943216407
0.000301739463350433,16.548156772941
2.59982316998676e-05,16.5509795707538
-0.000164598494152188,16.5531797792561
-0.000337363003440145,16.5553799877584
-0.000473507987950737,16.5572688798133
-0.000587599716189364,16.5589669866084
-0.000692033825823785,16.560619768598
-0.000794006485810881,16.5623291031978
-0.000900670639869403,16.5642221069238
-0.00102605275758659,16.5665886027975
-0.00124332638815942,16.571054903535
-0.001423734978121,16.5751177069623
-0.00156744980063829,16.5785846944397
-0.00171275396750314,16.5823059991033
-0.0018854978246852,16.5870649189734
-0.00206359996076082,16.5926351983003
-0.00218172950460601,16.5974774938321
-0.00223660346002035,16.601845220737
-0.00221728336635165,16.6057565529033
-0.00211578700205543,16.6092755855376
-0.0019257632605251,16.6124712405773
-0.00164041770408326,16.6154172052239
-0.00125139154960918,16.6181759869856
-0.000746718725026196,16.6208062520804
-0.000102867371809971,16.6233867291183
0.000728706907166972,16.6260321528178
0.00188708851569526,16.6290155999089
0.0033656958200536,16.6321774777392
0.00520180613728907,16.6355340367591
0.00648068131126084,16.6376114922793
0.00789107262860251,16.6396889477994
0.00934347981015144,16.6416085522305
0.0108464577601848,16.6433767879493
0.012415926054595,16.6450087203046
0.0141359361429813,16.6465789856813
0.0160107698577915,16.6480720981373
0.0180943076413665,16.6495130528694
0.0204084958088917,16.6508978352265
0.0229908756429231,16.6522318410384
0.0258765955885397,16.6535168831573
0.0290989470161307,16.6547530086608
0.0327061367288222,16.655944792076
0.0367478063663835,16.6570948769888
0.0412815690672669,16.6582062360177
0.0463726833483911,16.659281646128
0.0521032771196182,16.660325132743
0.0585683815869355,16.6613403108603
0.0658822287655897,16.6623310174635
0.0741839426164627,16.6633014039817
0.0836447612476664,16.6642559923123
0.0944816168470905,16.6652000816021
0.106973388285589,16.6661398819467
0.121489590394384,16.6670830707229
0.138539347193704,16.6680397229761
0.158863311128906,16.6690240950849
0.182454036686267,16.6700127357476
0.209857313465859,16.6710123448428
0.24187958021132,16.6720367554537
0.279684347610263,16.6731078110075
0.324231770680434,16.6742432572472
0.366530588517673,16.6752474335518
0.401472726257436,16.6760577048082
0.431564071795665,16.6767692942403
0.457871651957405,16.6774309567728
0.480600215970872,16.6780706166635
0.499503542947118,16.6787104723814
0.513896930304571,16.6793740814103
0.522381508201944,16.6800945212467
0.522071068137148,16.6809004866754
0.510585499365037,16.6817226408586
0.486679461631718,16.6825776817071
0.448687364584986,16.6834781470826
0.39471391769006,16.6844328236354
0.349616538222358,16.6850951725041
0.299157099409882,16.6857575213728
0.254267361017816,16.6863070041338
0.216012011931855,16.6867615385342
0.182529370735558,16.6871586679833
0.152598641468238,16.6875204652976
0.125499750894127,16.6878601196279
0.100750862341468,16.6881868684717
0.0779723023050716,16.6885085771087
0.0567903089248432,16.6888338999317
0.0366772793305395,16.6891764998385
0.0162440818613461,16.6895744555404
0.00815517444728786,16.6897516527897
0.000671368225694426,16.689928850039
-0.00719041021439496,16.6901320686796
-0.0137497240409272,16.6903184017782
-0.0196852252188638,16.6905036302623
-0.0256709596366361,16.69071073708
-0.0314560643459296,16.6909360599774
-0.0368788379533515,16.6911773170807
-0.0418496000477719,16.6914336786039
-0.046321649600534,16.6917052734525
-0.0502740868611064,16.6919929126477
-0.0537676791670866,16.6923054595446
-0.0566158751304754,16.6926273872942
-0.0589489099971271,16.6929706256927
-0.06078137665281,16.6933382307776
-0.0621275959921726,16.6937338069879
-0.063001310670042,16.6941618050181
-0.0634141733317539,16.6946277724411
-0.063374091157448,16.6951387266704
-0.0628831484789903,16.6957037338465
-0.0619319132745811,16.6963363936713
-0.0604961638895471,16.6970542472444
-0.0585264397321875,16.6978836983879
-0.0559205081148237,16.698869854391
-0.0524227673755794,16.7001123621606
-0.0483707276214557,16.701511609288
-0.0444487724908914,16.7028641924362
-0.0407074790544893,16.7041753237689
-0.0371714313203416,16.7054475253233
-0.0338530801602425,16.7066817657879
-0.0307578007423624,16.7078782256152
-0.0278861749609879,16.7090367027264
-0.0252352298803344,16.7101568259584
-0.0227992517956691,16.7112381651975
-0.0205704131853521,16.7122802835593
-0.0185393039907413,16.7132827552095
-0.0166954003263586,16.7142451615065
-0.015027480744559,16.7151670724211
-0.0134597299207073,16.7160868769645
-0.0119516117112125,16.7170302519647
-0.0105075881246016,16.7179988116357
-0.00913159238184257,16.7189946851007
-0.00782735932091204,16.7200203717523
-0.00659837290898896,16.7210788348965
-0.00544781435056172,16.7221736230909
-0.00437850793562135,16.7233090337431
-0.00339286453931075,16.7244903388811
-0.00249282226395128,16.7257241053958
-0.00167978300020797,16.7270186643338
-0.000954542443485187,16.7283848262307
-0.000317208748918039,16.7298370257787
0.000232899861458635,16.7313952700856
0.000682741084054889,16.7330274926279
0.00103418034017671,16.7347080562261
0.00130330949713797,16.7364552949784
0.00150460967607466,16.7382909756291
0.00165170393647953,16.740244320903
0.00175778908374358,16.7423570414863
0.00183629450549796,16.7446939566633
0.00190218988969444,16.7473695383771
0.00197586461766671,16.7506380394966
0.00207339487792501,16.7543816149383
0.00220139361560949,16.7583385502749
0.00234808166479627,16.7621592869359
0.00250981751261735,16.7659321274124
0.00268327305226851,16.7697181696522
0.00286629797290408,16.7735614359427
0.00305811455519215,16.7774977179894
0.00325919202549528,16.7815589934596
0.00347103562739308,16.7857759248033
0.00369598212087724,16.790179572538
0.00393705414868038,16.7948027395178
0.00419795286643055,16.799681424533
0.00448325880606177,16.8048561691151
0.00479894089278052,16.8103734232376
0.00512617093487428,16.8158400301503
0.00546483042880084,16.8212134482903
0.00581718729360995,16.8264866272264
0.0061864446479688,16.8316631850622
0.00657651031697159,16.8367532086682
0.00699158818869241,16.8417662624279
0.00743612139306128,16.8467097764512
0.00791482768788075,16.8515886139901
0.00843278675673301,16.8564052343567
0.00899555393626586,16.8611601034588
0.00960927488435303,16.8658521046942
0.010280800885321,16.8704790077931
0.0110278105884633,16.8750968187196
0.0118695817092259,16.8797394832263
0.0128244304847464,16.8844105674539
0.0139188045665915,16.8891324295547
0.0151929574802525,16.8939557539276
0.016721204740709,16.8990069468973
0.0186987393772332,16.9046837856176
0.0206307851656278,16.9095999044353
0.0222485724491921,16.9134314322346
0.0239091814618497,16.9172629600338
0.0253389393585381,16.9206378513062
0.0265459825447377,16.9237211827177
0.0275464507075419,16.9266864942009
0.0282910872847673,16.9295144137054
0.0287690427252782,16.9322660439893
0.0289699913560957,16.9350667696091
0.0288436399600039,16.9381058972588
0.0281859903322677,16.941947233765
0.0273575669415443,16.9448599753643
0.0262970864818155,16.9477727169636
0.0252238665966916,16.9503152330841
0.0241543194338922,16.9526400127776
0.0230830428003817,16.9548512466688
0.0220111146511229,16.956999484846
0.0209418718904403,16.9591136196528
0.0198790424105879,16.9612127811825
0.0188262356778114,16.9633109216054
0.0177868054642672,16.9654189522564
0.0167638203047599,16.9675458916518
0.0157600658802631,16.9696995505576
0.0147780556170907,16.9718869776397
0.013820046360461,16.9741147628644
0.0128880478332701,16.97638927507
0.0119838357914383,16.9787168434204
0.0111089637009445,16.9811039137136
0.0102647687526332,16.9835572067258
0.00945238742242001,16.9860838480675
0.008659941098847,16.9887361031931
0.00787948529941779,16.9915667031134
0.00711478662722486,16.9945966262733
0.00636971424488302,16.9978506548877
0.00564837911622286,17.0013574891394
0.00495509609629571,17.0051505190311
0.00429432650459806,17.0092687621765
0.00367057222083349,17.0137581883155
0.00308818133140215,17.0186740188202
0.00255107505426276,17.024084851146
0.00206242049835927,17.0300802854185
0.00162812865623778,17.0367195384838
0.00126178274688242,17.0438473557929
0.000963570036676939,17.0517933694837
0.000773901127305506,17.0587709989153
0.000592401584996426,17.0676530671979
0.00045620206978797,17.0768650203773
0.000351927180021644,17.0868650203773
0.000280659078783743,17.0968650203773
0.000232809254129317,17.1068650203773
0.000201387669901345,17.1168650203773
0.000181427680818113,17.1268650203773
0.000169506049068469,17.1368650203773
0.000163309601113884,17.1468650203773
0.00016128867162088,17.1568650203773
0.000162411316943255,17.1668650203773
0.00016600145994452,17.1768650203773
0.000171634985156615,17.1868650203773
0.000179072637707559,17.1968650203773
0.000188216525132482,17.2068650203773
0.000199082996035505,17.2168650203773
0.000211788077649792,17.2268650203773
0.000226543511223938,17.2368650203773
0.000243662701460197,17.2468650203773
0.000263577155183858,17.2568650203773
0.000286865539700601,17.2668650203773
0.000314299660199609,17.2768650203773
0.00034691497172751,17.2868650203773
0.000386118703389702,17.2968650203773
0.000433858202573864,17.3068650203773
0.000490440299222853,17.3164857742325
0.000555094590013499,17.3253752440176
0.000628786494589685,17.3335756728332
0.000712736143614587,17.3411407542278
0.000808349492816041,17.3481208077581
0.000917224151200913,17.3545625152087
0.00104116957417432,17.3605091935616
0.00118223398437877,17.3660010524756
0.00134273656407291,17.371075421362
0.00152530384004354,17.3757669620706
0.00173291307671402,17.3801078733778
0.0019689432076544,17.384128088079
0.00223723741975815,17.3878554598397
0.00254217891230333,17.3913159483846
0.00288878774385684,17.3945338114981
0.00328284486414287,17.3975318070031
0.00373105596148279,17.4003314112561
0.0042412755088464,17.4029530729289
0.00482282284344399,17.4054165264062
0.0054869480694042,17.4077412060033
0.00622983280976967,17.4098998720749
0.00705202726446273,17.4118984786001
0.00796602349514742,17.4137725716576
0.00899100056454149,17.4155588972822
0.010159140549711,17.417301061854
0.0115350062608802,17.4190667224577
0.0133844606092475,17.4211067743342
0.0150536227457505,17.4227312442197
0.0168676671365413,17.4243557141052
0.0185106147151188,17.4257648978429
0.0199440742026306,17.4269954176082
0.021225927311602,17.4281428812674
0.0223689733702046,17.4292594772084
0.0233630140048098,17.4303841986364
0.024181110323725,17.4315598986097
0.0247715949722732,17.4328537514592
0.0250147177208,17.4344290158096
0.0246545506568261,17.436266401838
0.0236998045915582,17.4381037878664
0.0225928458660327,17.4395929555255
0.0213563941642033,17.4410010951081
0.0199842844640717,17.4424277211325
0.0184845810248816,17.4439173659688
0.0168646224411103,17.4455073520518
0.0151575800779024,17.4472436760301
0.0136956793356366,17.4488494571148
0.0113409098405553,17.4517472850301
0.0094003846642729,17.454531244787
0.00785777227239531,17.4571089105717
0.00657045703631703,17.459605910747
0.00544404800369329,17.46214736628
0.00445352306196111,17.4647614424507
0.00358099999395599,17.467471383261
0.00282961336108977,17.4702300144873
0.00222825982948443,17.472828558209
0.00173761815052944,17.4752969355088
0.00132766204786389,17.4776759144615
0.000976454004470928,17.4800097315398
0.000667601771827433,17.4823479254684
0.000387200359717837,17.4847601363513
0.000116710161298873,17.4874101393056
-0.000107073310354188,17.489894525755
-0.000267950303655363,17.4918730540118
-0.000415724066564974,17.4938515822687
-0.000537563705034197,17.4956106520508
-0.000645329450534121,17.4972703098552
-0.000747560398721185,17.4989400786222
-0.000850889595350013,17.5007263954708
-0.000964636764630522,17.5028113544716
-0.00111918622301715,17.505847625855
-0.0012911609567964,17.5095034741051
-0.00142601761297981,17.5125742550706
-0.00155206499821596,17.515606291661
-0.00168903229671265,17.5190841400239
-0.00185172473385951,17.5234991171014
-0.00204067375260674,17.5292401016884
-0.00216773412031893,17.5341569620936
-0.0022335925722209,17.5386033013762
-0.00222671577609976,17.5425838433631
-0.00213882212669235,17.5461601482739
-0.00196336367700021,17.5494024948682
-0.00169374334092713,17.5523839381494
-0.00132212783642268,17.5551674609277
-0.000837614282506486,17.5578113462491
-0.000220387129717052,17.5603864282403
0.00057352602642995,17.5630052120556
0.001658420060277,17.5658966584297
0.00307620464272943,17.5690226857586
0.00485220179131243,17.5723561650597
0.00618575429681755,17.5745737073539
0.00766141954688355,17.576791249648
0.00911381139843166,17.5787469437887
0.010589138334841,17.5805176618044
0.0121419161454808,17.5821678488636
0.0138269341554156,17.5837419310414
0.0156717825042747,17.5852469681908
0.0177184754443738,17.5866977209252
0.0199904705356201,17.5880917202145
0.0225258521092869,17.589434999856
0.0253570754864385,17.5907282546997
0.0285192809494652,17.5919726405827
0.0320583642122639,17.5931721199378
0.0360226901084648,17.5943292959129
0.0404659683381807,17.5954465464514
0.0454562704079948,17.5965278005278
0.0510714760494836,17.5975765335868
0.0574036777346488,17.5985963135474
0.0645634503995897,17.5995909359656
0.0726847731145853,17.6005644470845
0.0819328304450572,17.6015213235118
0.0925160437052152,17.6024667542658
0.104700805144788,17.603406739516
0.118838262198196,17.6043486486066
0.135408527454348,17.6053020440257
0.155102259755249,17.6062802516867
0.178095341042406,17.6072679836926
0.20478354668631,17.608264733586
0.235930893227186,17.609283454918
0.272617467233846,17.6103440118043
0.316428320588121,17.6114789187151
0.351079968120288,17.6123130577807
0.386921043406821,17.6131471968463
0.418812331960349,17.61389096524
0.446731387806739,17.6145703441915
0.471052625607659,17.6152167680167
0.491706455057746,17.6158537791036
0.508216633535146,17.6165035552424
0.519560399943775,17.61719357454
0.523597783889535,17.6179695934054
0.517195438252852,17.6187823239857
0.498981584936448,17.6196209264189
0.467461871371336,17.620499976267
0.420811606478125,17.6214296067011
0.373562963649751,17.6221826350758
0.318758802555491,17.6229356634504
0.270209939063058,17.623542801501
0.229608631584555,17.6240286655076
0.194521020780216,17.6244439335092
0.163370294814747,17.6248169895535
0.135281832816116,17.6251636439007
0.109705339958845,17.6254942303663
0.0862346522574146,17.6258168870934
0.0645058501598559,17.626139674743
0.044079407959161,17.6264735511643
0.0240791180053588,17.6268422296734
0.00857326268247336,17.6271698829067
-4.90981878306601e-05,17.627374394116
-0.00789260982039535,17.6275789053254
-0.0143571388102309,17.6277642367663
-0.0203148786528235,17.627952017371
-0.0262905651043764,17.6281611879704
-0.0320440342492269,17.6283882438029
-0.0374230143142104,17.6286310885337
-0.0423434438793395,17.6288890119888
-0.0467619664841191,17.6291622243312
-0.0506597135977316,17.6294515984255
-0.0541940890330577,17.6297762388672
-0.0569719155493347,17.6301010991918
-0.0592350346927474,17.6304475065979
-0.0609995138347689,17.6308187331561
-0.0622797003832479,17.6312184905991
-0.0630891405179581,17.6316513642879
-0.0634390744110743,17.6321230793612
-0.0633367424117701,17.6326408960785
-0.0627829737027791,17.6332144175092
-0.0617665688784617,17.6338576623048
-0.0602606549332606,17.6345890989804
-0.0582107512278115,17.6354369033052
-0.0555027053532576,17.636450417574
-0.0518364982103594,17.6377450716851
-0.0477991221621211,17.6391367907005
-0.0439008072787466,17.6404831621658
-0.0401877751337328,17.6417885957075
-0.0366823597329504,17.6430553145891
-0.0333957794120179,17.644284136699
-0.0303326150696202,17.6454751677313
-0.0274928758585042,17.6466281708499
-0.0248731513009844,17.647742761063
-0.0224673887345281,17.6488185048632
-0.0202675026576296,17.6498549663255
-0.0182638957692546,17.6508517211895
-0.0164459197798441,17.651808350543
-0.0148022843685159,17.6527244204826
-0.0132426398921876,17.653647508261
-0.0117433562213468,17.6545943293754
-0.0103087337462427,17.6555666171786
-0.00894268124616244,17.6565665480502
-0.007648901124348,17.6575966808791
-0.00643083772379915,17.6586600536063
-0.0052916251048009,17.6597603096451
-0.00423403257183069,17.6609018688517
-0.0032604078170981,17.6620901643256
-0.00237261708316301,17.663331979733
-0.00157198098981566,17.6646359461666
-0.000859203319199684,17.6660133042442
-0.000234287454925635,17.6674791331847
0.000303570271330317,17.6690544640066
0.000738254849609296,17.6706924043368
0.00107701183411444,17.6723813520328
0.00133558865008765,17.6741397364857
0.00152832295219048,17.6759901934207
0.00166874673102335,17.6779633371266
0.00177004113227498,17.6801033246196
0.00184574884613736,17.6824798057911
0.00191125804001653,17.6852187938731
0.00198854825068388,17.6886144456732
0.00208956740757888,17.6923733483276
0.002220314443344,17.6963051621833
0.0023693190952464,17.7001153323177
0.00253283130057084,17.7038869121762
0.00270765253107402,17.7076780076788
0.00289182777111864,17.7115312327718
0.00308476706155405,17.7154816974266
0.00328709874554077,17.7195610972375
0.00350045519603247,17.7238000613064
0.00372727323301672,17.728229798304
0.0039706624127408,17.7328834341016
0.00423442185272402,17.7377974789339
0.00452327464386558,17.7430131445472
0.00484342396265887,17.7485777201452
0.00517108050925629,17.7540148176624
0.00551180506104801,17.7593808028023
0.0058661203619701,17.7646386574296
0.00623799162673356,17.7698035006313
0.00663117222256812,17.7748824771495
0.0070499631634378,17.7798858115729
0.00749882271451068,17.784820350132
0.00798251788849737,17.7896906838857
0.00850618489428897,17.7944989640533
0.00907545311112442,17.7992454251998
0.00969655679477766,17.8039287695038
0.0103764529183642,17.808546666567
0.0111354960945891,17.8131689904666
0.0119912212508744,17.8178145488468
0.0129631271581426,17.8224908446047
0.0140789259970162,17.8272224445596
0.015381778033611,17.8320664138058
0.0169541121291344,17.8371673317597
0.0190294375779259,17.8430091267281
0.0208759695898647,17.8476407552467
0.0228512331444524,17.8522723837653
0.0244748791472622,17.8560268946316
0.0258187304492725,17.8592720950816
0.0269478926012979,17.862294117508
0.027862074354283,17.8652289650223
0.0285048383876624,17.8680149278668
0.0288797725727896,17.8707690039763
0.0289652629065168,17.8736309830723
0.0286801936022004,17.8768582926018
0.0277090840133379,17.8811791315185
0.0268270356885654,17.8838353607176
0.025775272474929,17.8864915899167
0.0247073109170704,17.8889049517347
0.0236372778735877,17.8911658872014
0.022565368390757,17.8933420830666
0.0214942926966952,17.8954709559838
0.020427696983672,17.8975758177244
0.0193692826666677,17.8996729288255
0.0183225439965651,17.9017745838035
0.0172906979904721,17.9038906719656
0.0162766756613139,17.9060295607168
0.0152831299780455,17.9081986464252
0.0143124482029337,17.9104047247568
0.0133667674772097,17.9126542507216
0.0124479827910005,17.9149535534868
0.0115577611086059,17.9173089999348
0.010697550946573,17.9197271482351
0.00986859082119375,17.9222148974705
0.00907133154198467,17.9247815991077
0.00828411504262947,17.9275171115408
0.00751074101225141,17.9304403950307
0.00675494717817907,17.9335744376589
0.00602072165691913,17.9369458165391
0.00531227960426087,17.9405853730408
0.00463401629955562,17.9445290578959
0.00399042864975152,17.9488190265166
0.00338597883815463,17.9535052791966
0.00282484399377889,17.9586488057316
0.00231062260287065,17.9643270611405
0.00184604687342327,17.9706435656633
0.00144513599322463,17.977505147118
0.00111371609773101,17.984898402743
0.000905942522646892,17.9912280372378
0.000699549168307968,17.9995515807543
0.000536255465647104,18.00855019895
0.000407162523246957,18.01855019895
0.000318252305920443,18.02855019895
0.000257936490604138,18.03855019895
0.000217788986740921,18.04855019895
0.000191736555426474,18.05855019895
0.000175528558784273,18.06855019895
0.000166264789455757,18.07855019895
0.000161993444952101,18.08855019895
0.000161408914467001,18.09855019895
0.000163645647109623,18.10855019895
0.000168144357230112,18.11855019895
0.000174565874732152,18.12855019895
0.000182735179905331,18.13855019895
0.000192605427785167,18.14855019895
0.000204236468358473,18.15855019895
0.00021778494177553,18.16855019895
0.00023350454394893,18.17855019895
0.000251756288029939,18.18855019895
0.000273029945145887,18.19855019895
0.000297979619681167,18.20855019895
0.000327478986392558,18.21855019895
0.00036270578439518,18.22855019895
0.000405272041716321,18.23855019895
0.000457428761151516,18.24855019895
0.000517439320499288,18.2578539620477
0.000585887554834357,18.2664386874041
0.000663877986965059,18.2743578287447
0.000752713563163429,18.2816638315706
0.000853882320053418,18.2884054174813
0.000969071133827902,18.2946277834271
0.00110018961928818,18.3003728760872
0.00124939944324579,18.3056796358075
0.0014191486307901,18.3105842151697
0.00161221022392234,18.3151201881521
0.00183172935445948,18.3193187518451
0.00208127830578063,18.3232089190614
0.00236492458012119,18.326817702994
0.00268731511160806,18.3301703047754
0.0030537833397358,18.3332903097576
0.0034704893323924,18.3361998950439
0.0039446063905601,18.3389200608175
0.00448458000945747,18.3414709066854
0.00510050037201463,18.3438719820206
0.00580267088963925,18.3461369123944
0.0065791109606578,18.3482216954416
0.00743962912357878,18.3501617291097
0.00839930790038984,18.3519930097334
0.00948182680604764,18.3537541911702
0.0107296436369189,18.3554960198232
0.012266211988134,18.3573423451604
0.0145737406674515,18.3597119067552
0.0161427988424393,18.3611513920619
0.0177995209816652,18.3625908773686
0.0193098596976594,18.3638806716806
0.0206564037012439,18.3650576115445
0.0218625522202086,18.3661832782678
0.0229264544301431,18.367299715822
0.023828923441109,18.3684461855523
0.0245316401031793,18.3696750253365
0.0249568216591129,18.3710878592708
0.024849094313122,18.3730629759303
0.0242238170685076,18.3746426633728
0.0232146404413101,18.3762223508153
0.0220594004815266,18.3776474661584
0.0207636343909588,18.3790559402891
0.0193346493856028,18.3805056900203
0.0177818070470903,18.3820346707471
0.0168074733193518,18.3829914527872
0.01585225015218,18.3839482348272
0.0147662139278343,18.3850879834291
0.0123635199546687,18.3878614428814
0.0102049219956879,18.3907511996784
0.00850039132575491,18.393415059321
0.00712819068409502,18.3959055363121
0.00593342150066342,18.3984223431384
0.00488419598228831,18.4010008342579
0.00396050332853164,18.4036648142123
0.00314648704299969,18.4064374930868
0.00248353773742884,18.40910341453
0.00194756132603422,18.4116244381568
0.00150456249505494,18.4140372438693
0.00112925276526669,18.4163849373213
0.000803071328892145,18.4187141312677
0.000511446337714483,18.421082367749
0.000239314675383587,18.4235945475163
-4.67641539854415e-05,18.4266252336572
-0.000216856227954371,18.4286551891854
-0.000372475629367058,18.4306851447136
-0.000501034800192177,18.4325002887557
-0.000612000106022668,18.4341761450013
-0.00071531101695339,18.4358331305405
-0.000817741701222731,18.4375726242269
-0.000927171563138832,18.4395412866211
-0.00106253383989743,18.4421383151885
-0.00127255730603371,18.4465247459862
-0.00143643439518347,18.4502505738565
-0.00157322264778661,18.4535644352612
-0.00171701702430742,18.4572566796546
-0.00188979157542798,18.4620305744036
-0.00206634979464979,18.4675809355683
-0.00218294333691329,18.4724107597703
-0.00223598094643581,18.4767660758018
-0.00221463113272426,18.4806648425986
-0.00211096437098857,18.4841745735053
-0.00191866049663155,18.4873624120069
-0.00163098183727785,18.4903014342751
-0.001239334896941,18.4930556793205
-0.00073128003304779,18.4956847537314
-8.31682089752273e-05,18.4982659733412
0.000752865017521793,18.5009109374611
0.00192342209441706,18.5039104430303
0.00341172640483759,18.5070785766801
0.00525720898624359,18.5104390755728
0.00654227646097841,18.512518204133
0.00795986701559057,18.5145973326931
0.00939559094867305,18.5164863531046
0.0109074870080289,18.5182572771747
0.0124765775081154,18.519881144393
0.0141963527158297,18.5214438689687
0.0160785638508959,18.5229357547196
0.0181690716232066,18.5243743712996
0.0204926932420578,18.5257577320091
0.0230849971348863,18.5270899193449
0.0259818761083297,18.5283731850587
0.029216973085254,18.5296076872262
0.0328384331255011,18.5307978988729
0.0368962417908646,18.5319465148467
0.0414483219700837,18.5330565191376
0.0465603511363605,18.5341307064382
0.0523148512428892,18.535173087503
0.058807459965818,18.5361872880009
0.0661531592980518,18.5371771532644
0.0744920455235486,18.5381468461417
0.0839967855094239,18.539100918417
0.094885870623583,18.5400446712458
0.107440779951141,18.5409843614675
0.122034759076873,18.5419277256583
0.139182807847242,18.5428849372356
0.15963577677921,18.5438704359904
0.183349153366252,18.5448591704648
0.210899029492538,18.5458592496034
0.243100438373047,18.546884678314
0.281134240255245,18.5479577061925
0.325842984636642,18.5490933761955
0.367841533526794,18.5500885285831
0.402595273809646,18.5508941476629
0.4325575613124,18.5516033757927
0.458752095287365,18.5522638041345
0.481365716717241,18.5529030106397
0.500139177370941,18.5535431425357
0.514370633499264,18.5542079208628
0.52262712614341,18.5549309822006
0.521983120155271,18.5557370908793
0.510130611026394,18.5565599762599
0.485809427508474,18.5574162376049
0.447342397746913,18.5583182770163
0.392829715990071,18.5592748283136
0.347890531660533,18.559931189921
0.297725481006505,18.5605875515283
0.253082808182965,18.5611331427746
0.214989594140242,18.5615854912101
0.18162094601866,18.5619813157982
0.151778313432514,18.5623422892036
0.12475147723746,18.5626814299437
0.100062971510138,18.5630079052296
0.0773345474077965,18.5633295709417
0.0561908043909871,18.5636551483158
0.0360945475369571,18.5639985832361
0.015594410230139,18.5643996784234
0.00130500192359648,18.5647246878486
-0.0060104739786201,18.5649116630612
-0.0126964795783026,18.5650986382739
-0.0185797958801401,18.5652790745664
-0.0245764748286804,18.5654823777445
-0.0304139314308075,18.5657045429536
-0.0359124199084269,18.565942935953
-0.0409715355390358,18.5661965022232
-0.0455382112711966,18.5664652199524
-0.0495876925554265,18.5667497874267
-0.0531059266161759,18.5670514689422
-0.0561057141766305,18.5673742310091
-0.0585387179664859,18.5677131142346
-0.0604679148477461,18.5680756841494
-0.0619080440854561,18.5684654602797
-0.0628730841973147,18.5688867119974
-0.0633752195400157,18.5693447483255
-0.0634232338767126,18.5698462626213
-0.0630205447212329,18.5703998618757
-0.0621604457036627,18.5710181288923
-0.0608220536172291,18.5717176377302
-0.0589621677369137,18.5725225874476
-0.0564927334185776,18.5734730476629
-0.0532058956679957,18.5746516843522
-0.0491358159759301,18.5760617251882
-0.0451837750992414,18.5774226708095
-0.0414056052604811,18.5787414087815
-0.0378292012134978,18.5800208978282
-0.0344687819695362,18.5812623251591
-0.0313308375722362,18.5824659797693
-0.0284167441563871,18.5836317103748
-0.0257241328876152,18.584759166366
-0.0232477587633562,18.5858479229654
-0.0209801530774189,18.5868975420396
-0.0189121690047269,18.587907595181
-0.0170334609564914,18.5888776632722
-0.0153329104801595,18.5898073203225
-0.0137544117632466,18.590722757398
-0.0122345587305303,18.5916615544826
-0.0107780342542656,18.5926251665699
-0.00938880286668336,18.5936156614492
-0.0080706414577702,18.5946354613588
-0.00682708565581536,18.5956874330125
-0.00566137839069118,18.5967750024963
-0.00457641616404899,18.5979023095648
-0.00357469302008009,18.5990744195687
-0.00265824179996598,18.6002976223884
-0.0018285716239267,18.6015798675915
-0.00108659943411309,18.6029314223731
-0.00043257136262691,18.6043659137915
0.000134034518502799,18.6059020797694
0.000604595203705852,18.6075271625359
0.000973382217463904,18.6091970945384
0.00125698508471829,18.6109301738098
0.00147008528261138,18.6127470893541
0.00162643995698429,18.6146753629119
0.00173928555267626,18.6167537592797
0.00182193661665783,18.6190414127531
0.00188890399773504,18.6216397363401
0.00195892432869341,18.6247614342164
0.00205258772095322,18.628495336245
0.00217563127764375,18.6324447782628
0.00231914457284815,18.6362832014427
0.00247838362144512,18.6400596638231
0.00264985644662141,18.6438394418221
0.00283116863556897,18.6476689011303
0.00302129844960499,18.651584974054
0.00322050321506387,18.655620129147
0.00343011504823139,18.6598051308778
0.00365233106051364,18.6641708566133
0.00389005161572274,18.6687496711025
0.00414684132282421,18.6735768505495
0.00442708574091508,18.6786919843487
0.00473643346708609,18.6841402997501
0.00506309206893921,18.6896485911872
0.00539886177564259,18.6950317734138
0.0057485476441331,18.7003271225148
0.00611420814217727,18.705520619488
0.00649997706023906,18.7106266976267
0.00690991120136746,18.715653793255
0.00734843709314288,18.7206102047024
0.00782020551945361,18.7255011810458
0.00833022065208767,18.7303296407687
0.00888393698769129,18.7350963938132
0.00948737842575368,18.7398005965714
0.0101472510381606,18.744440185055
0.0108775852985705,18.7490516069238
0.0117000756512869,18.7536904477531
0.0126314365552021,18.7583547353842
0.0136965140801726,18.763064210467
0.0149319598582458,18.7678617131507
0.0164025532270829,18.772852323731
0.018263583774846,18.7783441554066
0.0207326785219987,18.7846904549671
0.0223214857120496,18.7884440271547
0.0239485507020234,18.7921975993423
0.0253703302648323,18.7955579370508
0.0265722207957694,18.7986364130787
0.0275675942745355,18.8016005530869
0.0283056277816888,18.8044252898355
0.0287769940607244,18.8071765293755
0.0289707342049414,18.8099803691662
0.0288349995878089,18.8130293151223
0.0281563643148207,18.8169114453844
0.0273241724838572,18.8198032230073
0.0262650280549505,18.8226950006302
0.0251924566854074,18.8252278833492
0.0241229392616476,18.8275482178989
0.0230516230047402,18.8297570719437
0.0219797334504842,18.8319039876178
0.0209106358572223,18.8340174603512
0.0198480591140833,18.8361164231074
0.0187956062686476,18.8382147168574
0.0177566228884438,18.8403231851713
0.0167341695352845,18.8424508027611
0.0157310232851918,18.8446053539935
0.0147496904545297,18.8467938692575
0.0137924201285891,18.8490229300511
0.0128612144331749,18.8512989032749
0.0119578445420531,18.8536281143048
0.0110838557129338,18.8560170193139
0.0102405791203114,18.8584723491581
0.00942914632966157,18.8610012411943
0.00863700420095283,18.8636584139242
0.00785696341825009,18.8664944821777
0.00709278812606678,18.8695305438983
0.00634835518628489,18.8727914838763
0.00562778221758524,18.8763061253933
0.00493538796048253,18.880108013696
0.00427563746902487,18.8842363428541
0.00365303151574942,18.8887373103334
0.00307190956446223,18.8936664578967
0.00253617563393613,18.8990928627893
0.00204897085526457,18.9051068919826
0.00161673148746145,18.9117589237104
0.00125222866695339,18.9189019888881
0.00096353227153593,18.9266457762673
0.000770678009631624,18.9337554557371
0.000589665912659311,18.9426576478992
0.000453474103030648,18.9519282430943
0.000350045302024484,18.9619282430943
0.000279388875271214,18.9719282430943
0.000231973208563602,18.9819282430943
0.000200855095262852,18.9919282430943
0.000181106925101261,19.0019282430943
0.000169335122506627,19.0119282430943
0.000163247262386925,19.0219282430943
0.00016130760694836,19.0319282430943
0.000162493586764685,19.0419282430943
0.000166135642255878,19.0519282430943
0.000171814386670063,19.0619282430943
0.000179294148634923,19.0719282430943
0.000188479890997943,19.0819282430943
0.000199390397181123,19.0919282430943
0.000212143963917164,19.1019282430943
0.000226954669846674,19.1119282430943
0.000244138562296343,19.1219282430943
0.000264130369183749,19.1319282430943
0.000287512910278154,19.1419282430943
0.000315063572196964,19.1519282430943
0.00034782556655334,19.1619282430943
0.000387217225512778,19.1719282430943
0.00043520225817251,19.1819282430943
0.000491978656597854,19.1915305461699
0.000556848046238745,19.200402271267
0.000630783523117204,19.2085863156619
0.000715009948555703,19.2161363011389
0.000810937941707888,19.2231024549579
0.000920170163470168,19.2295313731213
0.0010445217384235,19.2354662934659
0.00118604730771043,19.2409473523666
0.00134707335034317,19.2460118112272
0.00153023467374912,19.2506942689758
0.0017385180339288,19.255026866395
0.00197531326299772,19.2590394830003
0.00224447619254684,19.2627599237027
0.00255040483975835,19.2662141041161
0.00289813682555702,19.2694262428074
0.00329347428585607,19.2724190635667
0.00374314891103723,19.2752140145598
0.00425504787644668,19.2778315233105
0.00483853289183145,19.2802913120473
0.00550491098887904,19.2826128153901
0.00624969851173425,19.2847670603709
0.00707405010572037,19.2867621326229
0.00799059706322905,19.2886336021464
0.00901874489786297,19.2904182931505
0.0101911696164354,19.2921601374726
0.0115738294542919,19.2939279050513
0.0134424167832265,19.2959810624603
0.0150957663124848,19.2975854314654
0.0168894225236445,19.2991898004705
0.0185269989138888,19.3005941454598
0.0199583386880912,19.3018232455101
0.0212385660432715,19.3029701610604
0.022379980900266,19.3040866774001
0.0233721882649622,19.305211746786
0.0241880466669266,19.306388353504
0.024775493877946,19.3076841520701
0.0250133203134384,19.3092646259517
0.0246469646758398,19.3110987565818
0.0236894525081081,19.3129328872118
0.0225813241686721,19.3144207122872
0.021343664207519,19.315828779507
0.0199704154830062,19.3172558227654
0.0184696662999863,19.3187462107538
0.0168487160334512,19.3203372855496
0.0151412291273701,19.3220751838882
0.0136446473643906,19.3237221125442
0.0112977865609385,19.3266189885042
0.00936666047371081,19.3293979807203
0.00783067074761461,19.3319721607212
0.0065468439181322,19.3344697147205
0.00542331562592768,19.3370123794679
0.0044352746298243,19.3396281324325
0.00356492070265197,19.3423402065235
0.00281687206282428,19.3450954690276
0.00221798305821271,19.3476911554177
0.00172913171710135,19.3501574440124
0.00132047219421832,19.3525351937078
0.000970197412754024,19.3548687183955
0.000661991927803518,19.3572077793007
0.00038194257993455,19.3596229090039
0.000111220850768037,19.3622821886976
-0.000110140829781017,19.3647451488434
-0.000308034449159674,19.3672081089891
-0.000452305769670447,19.3691814383481
-0.000569188079314553,19.3709015885811
-0.000674685064203388,19.3725543491995
-0.000776558285239217,19.3742454668622
-0.000881657737375152,19.3760922050407
-0.00100168520747279,19.3783319583012
-0.00119863914683458,19.3823138471704
-0.00136794005399086,19.3860431200521
-0.00150200991075765,19.3891967009071
-0.00163518733706586,19.3925069387308
-0.00178705707514619,19.3965164021238
-0.00198002065998094,19.4021003538105
-0.00212802105793979,19.407247234162
-0.00221745526141688,19.4118652232727
-0.00223790719400818,19.4160058401195
-0.0021800995472046,19.4197203370212
-0.0020369424044469,19.4230755759515
-0.00180224549539371,19.4261421100169
-0.0014685160689318,19.4289904530408
-0.00102589761183725,19.4316805124384
-0.000458318371476361,19.434276429748
0.000266229780458831,19.4368674219615
0.00122809845417583,19.4396278457263
0.00252890465861508,19.4426884226249
0.00417535924103503,19.4459528750412
0.00560331930944535,19.4484403785247
0.00719725177385058,19.4509278820082
0.00867207953135354,19.4529829025564
0.0101444488356239,19.4548132206802
0.0116676580824033,19.4564926786698
0.0133167830579768,19.4580942207101
0.0151113561260864,19.4596185800912
0.0170970789475446,19.4610860736009
0.0192997306373543,19.4624963969757
0.0217566299794482,19.463855554378
0.0244948047993977,19.4651619916029
0.0275563417897115,19.4664206789959
0.0309816045333616,19.4676335495403
0.0348134536977663,19.4688021024845
0.0391096225411949,19.4699306459007
0.0439329224832653,19.4710223003667
0.049357072818723,19.4720803807371
0.0554695380150433,19.4731084085312
0.0623733236135528,19.4741098794465
0.0701967013598963,19.4750890605437
0.0790952356133086,19.4760503219071
0.089262943810295,19.4769985664337
0.100946882687849,19.4779394931442
0.11446942766056,19.4788799776642
0.130267017334862,19.4798288502615
0.148956830118135,19.4807981122255
0.170979935851876,19.4817851026589
0.196512354594928,19.4827780804591
0.226254987419408,19.4837887335148
0.261171982843399,19.4848342765158
0.302780275646958,19.4859452812528
0.338662183228333,19.4868268387512
0.37625069683568,19.4877083962496
0.409570283308141,19.4884818041202
0.43863731065529,19.4891770230085
0.464036860398534,19.489830753533
0.485832621467507,19.4904683568423
0.503675518705803,19.4911117805784
0.516740195422342,19.4917860245295
0.523338619923549,19.4925289418259
0.520355716219121,19.4933371919536
0.505932519436247,19.4941660395664
0.478710251884735,19.4950313115692
0.436943388474776,19.4959444401727
0.378711928190162,19.4969140490625
0.335018906860693,19.497529482157
0.287005184715596,19.4981449152516
0.24416200536863,19.4986636617567
0.207271800860994,19.4991007665011
0.174764338511303,19.499487449426
0.145594182043338,19.4998426872613
0.11912019179033,19.5001783354784
0.0948958281521935,19.5005030920607
0.0725520762698472,19.5008247951609
0.051697955755709,19.5011527739675
0.0317092897614894,19.5015035328773
0.0104856344601704,19.5019348712276
0.000788659083382422,19.5021616088205
-0.00794724503672634,19.5023883464135
-0.0144424177509125,19.5025747501512
-0.0204041974297845,19.5027629334086
-0.0263781357597296,19.5029724004851
-0.0321268469323535,19.5031997067546
-0.0374994008054531,19.5034427827251
-0.0424125142617679,19.5037009348346
-0.0468232941867988,19.5039743845927
-0.0507131536806387,19.5042640135796
-0.0542553886200759,19.5045906572556
-0.057022707075493,19.5049159672949
-0.0592753782233573,19.5052628580707
-0.0610297046716988,19.5056346367275
-0.0623000347800338,19.506035031288
-0.063099882482043,19.5064686475737
-0.0634404233851361,19.5069412377608
-0.0633287948533341,19.5074600991783
-0.062765630446474,19.5080349171387
-0.0617394626599662,19.5086797748663
-0.0602230069832785,19.5094132850923
-0.0581609942158639,19.5102639023928
-0.0554373544161544,19.5112816513177
-0.0517445327110488,19.5125846410737
-0.0477095772621647,19.5139752347603
-0.0438150644817246,19.5153206453318
-0.0401065147781673,19.516625191216
-0.0366059310775142,19.5178910524213
-0.0333243476748938,19.5191190249134
-0.0302662252217707,19.5203092035915
-0.0274314853263265,19.5214613466777
-0.0248166504243379,19.522575067291
-0.0224156158241194,19.5236499315395
-0.0202202565493429,19.5246855037167
-0.0182209467622869,19.5256813598259
-0.0164070194244354,19.5266370808941
-0.0147671740728059,19.5275522323652
-0.0132087998970975,19.5284758360867
-0.0117108997162883,19.5294231990737
-0.0102777488738277,19.530396073352
-0.00891325224142976,19.5313966428177
-0.00762110706021644,19.5324274758261
-0.00640475137729455,19.5334916222042
-0.00526731177632599,19.5345927404886
-0.00421154885488191,19.5357352700846
-0.00323980030723319,19.5369246698504
-0.00235392100749219,19.5381677581904
-0.00155521871806132,19.5394732144018
-0.000844382668815313,19.5408523484198
-0.000221399625718783,19.5423203437727
0.000314553473243964,19.5438983981026
0.000746897641166939,19.5455372646096
0.00108369858470926,19.5472275608648
0.00134065193561976,19.548987736606
0.00153207353036268,19.5508405689935
0.00167148202673625,19.552816900415
0.00177205755225052,19.5549612919792
0.00184736333921905,19.5573442010957
0.00191286068561287,19.5600936107437
0.00199081494382714,19.5635108033737
0.00209245148103273,19.5672727736172
0.00222363002843533,19.5711998066215
0.00237300460065937,19.5750080198107
0.00253681485046403,19.5787794724685
0.00271188340422292,19.5825716980563
0.0028962852516083,19.5864270394047
0.0030894591592073,19.5903804757347
0.00329205820217658,19.5944636499491
0.0035057351250677,19.5987071878162
0.00373294360002461,19.6031423311098
0.00397680905240619,19.6078022749939
0.00424114996854945,19.612723637021
0.0045307188571097,19.6179477695402
0.00485176748634007,19.6235221353951
0.00517949304750988,19.6289534304171
0.00552061347719809,19.6343180393963
0.00587530159647858,19.6395729789795
0.00624767284165502,19.6447356154497
0.00664144952155481,19.6498125141083
0.00706095122738848,19.6548140256865
0.00751063868678286,19.6597468821961
0.0079952880227963,19.6646156214617
0.00852004596833817,19.6694223353934
0.00909055584444757,19.674167214775
0.0097130686613019,19.6788489280677
0.010394561496014,19.6834651273868
0.0111559021969989,19.6880883023568
0.01201429465693,19.6927344262384
0.012989465561218,19.6974117466088
0.0141093791780127,19.7021452831442
0.0154177820401668,19.7069933921472
0.0169987849532935,19.7121044224874
0.0190943897024146,19.7179814034879
0.0209261591696817,19.7225634037727
0.0228821043150948,19.7271454040576
0.0244985373422988,19.7308842159446
0.0258385417463848,19.7341238774641
0.0269643907303863,19.7371437413492
0.0278741682053742,19.7400751978644
0.0285127595516645,19.7428597128093
0.0288834286222604,19.7456142882225
0.0289640046074489,19.7484794219139
0.0286717143536785,19.7517164066795
0.027693878958408,19.7560323878902
0.0268103220118562,19.7586827249663
0.0257585058980435,19.7613330620424
0.024690586144123,19.7637431114901
0.0236205198107923,19.7660022981093
0.0225485982719359,19.7681775166934
0.0214775636521132,19.7703058592867
0.0204110675512642,19.7724104882597
0.0193528093376888,19.7745075842173
0.0183062792162938,19.7766093944996
0.0172746897376132,19.7787257789666
0.0162609674316556,19.7808650863432
0.0152677610805914,19.7830347009884
0.0142974538570098,19.7852414116133
0.0133521790623846,19.7874916697669
0.0124338281165804,19.7897918038268
0.0115440642395739,19.7921481832546
0.0106843328874614,19.7945673697514
0.00985586916140304,19.7970562696051
0.00905874330977623,19.7996255081024
0.00827171845916337,19.8023638385323
0.00749859337164122,19.8052902800395
0.00674310992017194,19.8084278727606
0.00600925995528931,19.8118032562859
0.00530126196679312,19.8154473458372
0.00462351350256982,19.8193961816253
0.00398051230043409,19.8236920280282
0.00337671819445129,19.8283850304263
0.0028163016095092,19.8335363879885
0.00230284898142563,19.8392238849728
0.00183907795398566,19.8455515510026
0.00143925461524317,19.8524209421244
0.00110912211200573,19.8598235275762
0.00089904446725673,19.8662687347498
0.000693888255581118,19.8746203490175
0.000532283116858598,19.8836117241986
0.00040441521051702,19.8936117241986
0.000316376862106799,19.9036117241986
0.000256678752055609,19.9136117241986
0.000216964101701267,19.9236117241986
0.000191213420331882,19.9336117241986
0.000175216850815295,19.9436117241987
0.000166103419924772,19.9536117241987
0.000161941408769938,19.9636117241987
0.000161438825336961,19.9736117241987
0.000163739479548248,19.9836117241987
0.000167436934142586,19.9918058620993
0.000172377606415012,20
