ecg,time
7.65207912374994e-05,15.0077033691713
8.02435820527165e-05,15.0177033691713
8.4358945188765e-05,15.0277033691713
8.8881828759661e-05,15.0377033691713
9.38382821550973e-05,15.0477033691713
9.92644948966153e-05,15.0577033691713
0.000105206611500607,15.0677033691713
0.000111721199651074,15.0777033691713
0.000118876320748711,15.0877033691713
0.000126753211921196,15.0977033691713
0.000135448645480265,15.1077033691713
0.000145078093324446,15.1177033691713
0.000155779898004327,15.1277033691713
0.000167720749207805,15.1377033691713
0.000181102898535982,15.1477033691713
0.000196173738075162,15.1577033691713
0.000213238653059565,15.1677033691713
0.000232678490245499,15.1777033691713
0.000254973651817442,15.1877033691713
0.000280737883770684,15.1977033691713
0.000310766547706759,15.2077033691713
0.000346107032881758,15.2177033691713
0.000388163888493738,15.2277033691713
0.000438859985883098,15.2377033691713
0.000497854961555451,15.2472523154779
0.000564549425427267,15.2560832478642
0.000639808696967884,15.2642393438691
0.000724719612929111,15.2717721086083
0.000820534171210746,15.2787297945373
0.000928674184405619,15.2851572288762
0.00105074984114477,15.2910960927108
0.00118858360675073,15.2965851678978
0.00134424054047771,15.3016604870369
0.00152005742903485,15.3063555053219
0.00171868339265702,15.3107013050036
0.00194312206021618,15.3147268157495
0.00219678794824874,15.3184589623784
0.00248356302941317,15.3219227966787
0.00280787693284732,15.3251416793904
0.00317480579600837,15.328137475621
0.00359019112344379,15.3309306973364
0.00406080346276197,15.3335406920761
0.00459456371062683,15.3359858845519
0.00520084553672998,15.3382840197643
0.00589092246998633,15.3404525071396
0.00665612651861979,15.3424550854842
0.00749911819709698,15.3443065464528
0.00843125748953449,15.3460382204346
0.00946924993728436,15.3476811508625
0.0106395715800737,15.3492697487705
0.0119978498300548,15.3508592027348
0.0137279282938495,15.3526049258493
0.0161354310378086,15.3546938325066
0.0178437728387053,15.3560268241645
0.0196435047949188,15.3573598158225
0.0212803487617803,15.3585537386684
0.0227463669251188,15.3596496592262
0.0240653345089625,15.360703319797
0.0252346297869899,15.361753956932
0.0262334008187944,15.3628400007856
0.0270197306763283,15.3640153905509
0.0275054596773102,15.3653922834291
0.0273479964530511,15.3674756434196
0.0265035015198394,15.3692001196163
0.0254275392645306,15.3706345325191
0.0241912927629767,15.3719913435622
0.0227971484775733,15.3733678335637
0.0212544602901626,15.3748098617297
0.0195711475660734,15.3763555959173
0.0184741215869891,15.3773699157579
0.0174113919112686,15.3783842355986
0.0150348654985871,15.3808505200229
0.0129369480276026,15.3833273477882
0.011128882462685,15.385779624503
0.00946472780159419,15.3884061263318
0.00811896216239133,15.3909009017707
0.00697535770325791,15.3933981533002
0.00599102680872391,15.3959528426044
0.00514719272278741,15.3985893931245
0.00443087099245407,15.4013307438788
0.00383340123257078,15.4042009272805
0.00335031233308331,15.4072264978659
0.00298206396041119,15.4104379955676
0.00273608497259224,15.4138717166976
0.0026312421060242,15.4175720783608
0.00268119826917242,15.4209337818439
0.00285464185160298,15.4239621213827
0.00313280843136513,15.4267071352654
0.00350630393973953,15.4292139928932
0.003974103184128,15.4315333467008
0.00454301981419956,15.4337160451504
0.00523032488763651,15.4358185897305
0.00607021527919396,15.4379104342626
0.00713431466045227,15.4400991227004
0.00857847825482491,15.4425693768305
0.0104817840362968,15.4452940448585
0.0121071282145686,15.4473025233746
0.0139515840354179,15.4493110018908
0.0157795420288177,15.45105961063
0.0176602213833609,15.4526401151835
0.0196496530104021,15.4541040338575
0.0218127810855315,15.4554914322745
0.0241997068464246,15.4568194749304
0.0268472169286118,15.4580924095076
0.0298064639504406,15.4593186090528
0.0331173856718826,15.4604987779554
0.0368329540253728,15.4616369682464
0.0410060912400938,15.4627351243798
0.0457003432932976,15.4637962974267
0.0509870228886511,15.4648232223999
0.0569492496468175,15.4658188403237
0.0636854993345591,15.4667863647369
0.0713115600247512,15.467729014384
0.0799673698767958,15.4686503395528
0.0898220241833052,15.469554073031
0.101082808549058,15.4704442671384
0.114008093837906,15.4713254677086
0.128924207759365,15.4722028349897
0.146251694417509,15.4730824419426
0.166547346782375,15.473971787595
0.190579173015334,15.4748808278831
0.218636381802803,15.4757986342529
0.251132551666038,15.4767225192423
0.288936600215837,15.4776636156954
0.333344733754196,15.47864217005
0.373161342176861,15.4794421576851
0.415250071292972,15.4802421453201
0.451918590996875,15.4809276825845
0.483713957436819,15.4815377578142
0.511678368304445,15.4821130487481
0.536016931876049,15.4826796119363
0.556405074672657,15.483260771974
0.57193470263685,15.4838868640911
0.580439081557947,15.484616893178
0.577789163038957,15.4853737989693
0.562756727419039,15.4861664477787
0.533658588710209,15.4870153486871
0.49146063582352,15.4878772143146
0.43432813402976,15.488784055883
0.381205643441676,15.4894939751021
0.321685768431123,15.4902038943212
0.270379946996668,15.4907745206496
0.227962427777944,15.4912332810067
0.191517385824141,15.4916276202144
0.159284049112142,15.4919837770947
0.130296351381345,15.4923164783717
0.103942898878875,15.492635594904
0.0797623782973199,15.4929493048758
0.0573164772451503,15.4932664931891
0.0359985814680326,15.4936012625817
0.0141756746744329,15.4939944604512
0.000115169897538748,15.4942881605201
-0.0074955491299076,15.4944657966991
-0.0144638917453233,15.4946434328781
-0.0205422778096326,15.4948129535915
-0.0267550959758592,15.4950038535827
-0.0328595304623929,15.4952136355519
-0.0386507398431307,15.4954394899847
-0.044011419242592,15.4956801750848
-0.0488781798343797,15.4959355111368
-0.0532201168028791,15.4962060544258
-0.0570262245433034,15.4964929312193
-0.0602978072595195,15.4967977696131
-0.0630426145734442,15.4971226956692
-0.0654031033263002,15.4974967414228
-0.0670597518555657,15.4978692457005
-0.0682286960427016,15.4982714751743
-0.0689255244402069,15.4987088586862
-0.0691608348027992,15.4991878310056
-0.0689400156969381,15.499716674268
-0.0682594788539495,15.5003070414236
-0.0671009481880256,15.5009751530324
-0.0654243247289658,15.5017441590305
-0.0631464534637823,15.502652100789
-0.0600724207754577,15.5037760386624
-0.0559598655056411,15.5052109369601
-0.0519283954994669,15.5065955561736
-0.0480433065437119,15.5079393631086
-0.044340488233829,15.5092452858205
-0.040839352164651,15.5105144104601
-0.0375504790812627,15.5117468947143
-0.0344787699917503,15.5129424473034
-0.0316249651932589,15.5141005817098
-0.0289865401533708,15.5152207491853
-0.0265583525484143,15.5163024051648
-0.0243331833641579,15.5173450369483
-0.0223022223177251,15.5183481673884
-0.0204555125577729,15.5193113426557
-0.0187823550893458,15.5202341085831
-0.0172102608156788,15.5211529421495
-0.0156951876576019,15.5220953323928
-0.0142415789164358,15.5230628650869
-0.012853317813723,15.5240576557612
-0.0115340849029033,15.5250821880675
-0.010287301928185,15.52613940669
-0.00911607562715673,15.5272328375127
-0.00802313799821596,15.5283667495725
-0.00701078236639629,15.5295463784193
-0.00608079377633189,15.530778242677
-0.00523437089286377,15.5320706074576
-0.00447203411497443,15.5334341898077
-0.00379350973753349,15.5348832856848
-0.00319756961278779,15.5364376839844
-0.0026974330965348,15.5380683895378
-0.00229340337636289,15.5397468695883
-0.00196901154734285,15.5414914273932
-0.00170932899535217,15.5433236345693
-0.00150008143640695,15.5452724078853
-0.00132710401771526,15.547378928937
-0.00117543693375153,15.5497069902807
-0.00102740493078802,15.5523686714533
-0.000856699175663924,15.5556103557796
-0.000651145529181821,15.5593507719856
-0.000410833579484563,15.5633704595619
-0.0001377147176285,15.5676165159207
0.00016328570278206,15.572103854696
0.000485567997123883,15.5768570513063
0.000797407941721706,15.5815069776819
0.0010851755985719,15.5858898970653
0.0013637828427039,15.590235125441
0.00165219704737418,15.5948361060644
0.00196295445114872,15.5998895522231
0.00226269070773854,15.6048202469228
0.00256934964358106,15.609888780991
0.00283015445173322,15.614181462025
0.00307305128615968,15.6181491790409
0.00331079773577194,15.6219878892139
0.0035499986444665,15.6257905605203
0.00379525633923788,15.6296147158206
0.00405047614979634,15.6335027969459
0.00431940957851678,15.6374899272022
0.00460594659191181,15.6416074304663
0.00491438903762174,15.6458856010969
0.00524968549073104,15.6503551404023
0.00561774952635709,15.6550484546641
0.00602594880105383,15.6600008731032
0.00646991772481499,15.6650945987299
0.00693245810435005,15.6700863003158
0.00742222277366229,15.6750349959861
0.00794070746657407,15.6799106739151
0.00849337440564179,15.6847173512987
0.00908619754779739,15.6894555851094
0.0097262969578343,15.6941281344083
0.0104218314872976,15.6987380100644
0.0111990968859934,15.7033851119872
0.0120719838793531,15.7080588734127
0.0130625163191631,15.7127766175468
0.0142007852810713,15.7175685457533
0.0155352008344245,15.7225054968554
0.0171635139124069,15.7277720601134
0.0194073272750961,15.7340739947992
0.0211081096268514,15.7383764336985
0.0228948495887811,15.7426788725978
0.0244177063728983,15.7463473665095
0.0256910602828131,15.7495919250416
0.0267555963266277,15.7526467070803
0.0275952935492096,15.7556051909243
0.0281666655286733,15.7584357539247
0.0284686575562103,15.7612592663459
0.0284713650008026,15.7642310246967
0.0280663650682901,15.7676795185584
0.0272809057689915,15.7710439950313
0.0261712740415345,15.7744084715042
0.0250763037478893,15.7771584859551
0.0240008512456731,15.7795985253064
0.0229269513594844,15.7818938402971
0.0218528258225358,15.7841118010924
0.020781261159763,15.7862875299857
0.0197159242010591,15.7884432626345
0.0186604971186542,15.7905947722594
0.0176184500147986,15.7927541427233
0.0165929829324623,15.7949311912298
0.0155870183883277,15.7971342872483
0.0146032050501372,15.7993708751583
0.0136439329110543,15.8016478125708
0.0127113394604895,15.8039716320982
0.011807321968933,15.8063487299126
0.0109335490442863,15.8087855178931
0.01009146213035,15.8112885825087
0.00928229095769406,15.8138647962113
0.00850597176310569,15.8165253264113
0.00774183940685977,15.8193621452716
0.00699373907182554,15.8223948703486
0.00626541113714676,15.825647316677
0.00556080772391019,15.8291469393943
0.00488405288635218,15.8329255208344
0.00423947541227153,15.8370200505649
0.0036313172118569,15.8414739960858
0.00306360295098671,15.846339376887
0.00253992535288761,15.8516805315718
0.00206317388608973,15.8575806908096
0.0016354276330681,15.8641512460198
0.00126831001637968,15.8713158564008
0.000962262331284512,15.8790700621099
0.000710661026789576,15.8875413188895
0.000509676945340926,15.8968986076993
0.000382884245422602,15.9055926320466
0.000280215327525424,15.9155926320466
0.00020887778450714,15.9255926320466
0.000159175742845117,15.9355926320466
0.000124899163251987,15.9455926320466
0.00010163129569054,15.9555926320466
8.61232970583012e-05,15.9655926320466
7.60291932187018e-05,15.9755926320466
6.97075226466978e-05,15.9855926320466
6.6035117201529e-05,15.9955926320466
6.42493445626358e-05,16.0055926320466
6.38313262688465e-05,16.0155926320466
6.442697537155e-05,16.0255926320466
6.57954675090179e-05,16.0355926320466
6.77752824722339e-05,16.0455926320466
7.02611521118749e-05,16.0555926320466
7.31880589651484e-05,16.0655926320466
7.65200949201726e-05,16.0755926320466
8.02428104708068e-05,16.0855926320466
8.43580965338145e-05,16.0955926320466
8.88808989306649e-05,16.1055926320466
9.38372650266808e-05,16.1155926320466
9.92633824208342e-05,16.1255926320466
0.000105205393673544,16.1355926320466
0.000111719864360163,16.1455926320466
0.000118874853504395,16.1555926320466
0.000126751595465466,16.1655926320466
0.000135446859253378,16.1755926320466
0.000145076112758225,16.1855926320466
0.000155777693594166,16.1955926320467
0.000167718285293585,16.2055926320467
0.000181100131691162,16.2155926320467
0.000196170614958173,16.2255926320467
0.000213235107514155,16.2355926320467
0.000232674439333316,16.2455926320467
0.000254968990304401,16.2555926320467
0.000280732476329412,16.2655926320467
0.000310760217671473,16.2755926320467
0.00034609954567257,16.2855926320467
0.000388154926574848,16.2955926320467
0.00043884910986325,16.3055926320467
0.000497842638047492,16.3151417215084
0.000564535515535023,16.3239727917252
0.000639793004551284,16.3321290151935
0.000724701908351582,16.3396618975591
0.000820514192475595,16.3466196919762
0.000928651634540229,16.3530472263114
0.00105072438401315,16.3589861822432
0.00118855486180014,16.3644753421809
0.00134420807648405,16.3695507392493
0.00152002075811544,16.37424582913
0.0017186419612522,16.3785916945184
0.00194307523999579,16.3826172654867
0.00219673502527019,16.3863494672367
0.00248350319002953,16.3898133519091
0.00280780924769673,16.393032280555
0.00317472919737857,16.3960281185621
0.00359010437895484,16.3988213781456
0.00406070513869679,16.401431407051
0.00459445212036116,16.4038766301488
0.00520071867052371,16.406174792544
0.00589077788810224,16.4083433036851
0.00665596730440854,16.4103459150099
0.00749894256583562,16.4121974028398
0.00843106273817358,16.41392909755
0.00946903200421483,16.4155720423975
0.0106393236752918,16.417160647106
0.0119975464977479,16.418750083115
0.0137275216774581,16.4204957549947
0.0161349744272428,16.4225846740062
0.0178433417424772,16.4239177090508
0.0196431175843876,16.4252507440954
0.021280006396902,16.4264446984221
0.022746058685867,16.4275406336743
0.0240650583605496,16.4285942989797
0.0252343884556962,16.4296449327599
0.026233200905123,16.4307309637919
0.027019584878986,16.431906325071
0.0275053982015444,16.4332831492977
0.0273481629569742,16.43536632432
0.0265037939490488,16.4370908749572
0.0254278857440217,16.4385253309073
0.0241916887776135,16.4398821451829
0.0227975912455492,16.4412586211915
0.0212549467912897,16.4427006237975
0.0195716762203137,16.4442463202709
0.0184746626613278,16.4452606221512
0.0174119266603509,16.4462749240316
0.0150351506069206,16.4487414160805
0.0129370964539602,16.451218371228
0.0111289923787987,16.4536706753391
0.00946481335051277,16.4562971909164
0.00811903087216309,16.4587919747983
0.00697541681120911,16.4612892241012
0.00599107768774776,16.4638439095021
0.00514723624027262,16.4664804548395
0.0044309077561755,16.4692217991205
0.00383343162474106,16.4720919746566
0.00335033649717878,16.4751175358051
0.00298208173552417,16.4783290222321
0.00273609573474704,16.481762729871
0.00263124442545881,16.4854630752939
0.00268119259487795,16.488824799924
0.00285462965561657,16.4918531566889
0.00313279051816617,16.4945981852429
0.00350628067922376,16.4971050551414
0.00397407441669287,16.4994244181421
0.00454298491468773,16.5016071227959
0.00523028253956127,16.5037096702173
0.00607016237325479,16.5058015119499
0.00713424316617388,16.5079901858782
0.00857837652949008,16.5104604152427
0.010481659347834,16.513185078917
0.0121070124545328,16.5151935870762
0.013951480934849,16.5172020952355
0.0157794357714753,16.5189507138452
0.0176601128116528,16.5205312283092
0.0196495375356145,16.5219951530779
0.0218126534870449,16.5233825546868
0.024199565753823,16.5247106006971
0.0268470593249194,16.5259835379836
0.0298062877199217,16.527209740229
0.0331171878124501,16.5283899115377
0.0368327318151217,16.5295281041694
0.0410058412071983,16.5306262624454
0.0457000617915903,16.5316874375137
0.0509867054320244,16.53271436432
0.0569488912183528,16.5337099839219
0.0636850938958908,16.5346775098305
0.0713111003416814,16.5356201607761
0.0799668472723127,16.5365414870399
0.0898214280453642,16.5374452213902
0.101082125782039,16.5383354161258
0.114007308018336,16.5392166170491
0.128923297934052,16.5400939843649
0.146250633254052,16.5409735909696
0.166546097490271,16.5418629357873
0.190577683347741,16.5427719745606
0.218634658586551,16.5436897807916
0.251130552209176,16.5446136651351
0.288934265891409,16.545554760122
0.333341968068858,16.5465333113431
0.373159047101571,16.5473333120297
0.415248386601155,16.5481333127163
0.451917188360483,16.5488188550649
0.48371273147008,16.5494289324509
0.511677294017224,16.5500042242157
0.536016012659625,16.5505707872738
0.5564043344535,16.5511519461451
0.571934196772192,16.5517780354939
0.580438954061737,16.5525080579637
0.577789576190869,16.5532649626069
0.562757740961461,16.554057609275
0.533660296968667,16.5549065071762
0.491462979600819,16.5557683717148
0.434331209471336,16.5566752110418
0.38120835762749,16.5573851401809
0.321687883564346,16.55809506932
0.270381614751136,16.5586657015865
0.227963826012829,16.5591244650429
0.191518607476804,16.5595188059896
0.159285140066841,16.5598749639264
0.130297338244881,16.5602076658454
0.103943800038213,16.5605267827114
0.0797632091175197,16.5608404927281
0.057317254694198,16.5611576807185
0.0359993352556445,16.561492449066
0.0141765232930208,16.5618856428999
0.000114899852588346,16.5621793656108
-0.00749578391621728,16.5623570014717
-0.014464094462134,16.5625346373326
-0.0205424558740936,16.5627041578307
-0.0267552741795007,16.5628950583972
-0.0328597021199166,16.5631048408576
-0.0386509005239181,16.5633306957265
-0.0440115664772039,16.5635713812442
-0.0488783123410203,16.5638267177201
-0.0532202340218763,16.5640972614577
-0.0570263263608579,16.5643841387395
-0.0602978938373915,16.5646889776753
-0.0630426860299092,16.5650139043422
-0.0654031593552132,16.5653879509567
-0.0670597934365547,16.5657604560511
-0.068228723616987,16.5661626864729
-0.0689255383732173,16.5666000710997
-0.0691608353398489,16.5670790447467
-0.0689400028959979,16.5676078896137
-0.0682594524113988,16.56819825879
-0.0671009073102576,16.568866372968
-0.0654242677677855,16.5696353823776
-0.0631463769207666,16.5705433290336
-0.0600723154699614,16.57166727528
-0.0559597614541352,16.5731021719409
-0.0519282945556097,16.5744867900605
-0.0480432099472777,16.5758305960089
-0.0443403966322113,16.5771365177788
-0.0408392659147042,16.5784056414888
-0.0375503983666565,16.5796381248097
-0.0344786948753142,16.5808336764547
-0.0316248956452028,16.5819918099032
-0.0289864760698808,16.5831119764065
-0.0265582937664622,16.5841936314002
-0.0243331296744568,16.5852362621855
-0.0223021734765491,16.5862393916154
-0.0204554682977591,16.5872025658611
-0.018782315129269,16.5881253307551
-0.0172102222550568,16.589044164905
-0.0156951506248784,16.58998655576
-0.0142415435108396,16.5909540891154
-0.0128532841300898,16.5919488805089
-0.0115340530301695,16.5929734136025
-0.0102872719480147,16.5940306330936
-0.00911604761247691,16.5951240648827
-0.00802311201166295,16.5962579780278
-0.00701075845863236,16.5974376081071
-0.00608077198419353,16.5986694737819
-0.00523435123723907,16.5999618402159
-0.00447201659822838,16.6013254245297
-0.00379349434012576,16.6027745227912
-0.0031975562883406,16.6043289240695
-0.00269742244741744,16.6059596305999
-0.00229339494766411,16.6076381120956
-0.00196900494749427,16.6093826718235
-0.00170932385453872,16.611214881548
-0.00150007739548952,16.6131636582722
-0.00132710071103775,16.6152701839994
-0.00117543395797729,16.6175982520796
-0.0010274017692056,16.6202599438976
-0.00085669491452444,16.6235016488233
-0.000651140773011895,16.6272420668499
-0.000410827561503034,16.6312617666305
-0.000137707920207276,16.6355078283873
0.000163293115435006,16.6399951731461
0.000485575852983819,16.6447483763539
0.000797415080411154,16.6493982939678
0.00108518232676808,16.6537812096036
0.00136378954316377,16.6581264400664
0.00165220427820707,16.6627274315976
0.00196296117111748,16.6677808712618
0.00226269734824277,16.6727115656434
0.00256935665099583,16.6777801059531
0.00283016079813456,16.682072775408
0.00307305739008589,16.6860404874638
0.00331080380786324,16.6898791957876
0.00355000481665022,16.6936818669963
0.00379526271494764,16.6975060233993
0.00405048282363635,16.7013941065747
0.00431941664557097,16.705381239699
0.00460595415447114,16.7094987465937
0.00491439721120191,16.7137769216112
0.00524969441068344,16.7182464660857
0.00561775935757171,16.7229397863568
0.00602595975344662,16.7278922117327
0.00646992902894842,16.7329859337892
0.00693247009708496,16.7379776348737
0.00742223542942317,16.7429263286526
0.00794072091990853,16.7478020048757
0.00849338878727754,16.7526086804858
0.00908621302807477,16.75734691262
0.00972631372566968,16.7620194602947
0.0104218501480342,16.7666293368527
0.0111991177464342,16.7712764393246
0.0120720074272101,16.7759502016443
0.0130625431845458,16.7806679471677
0.0142008163990002,16.785459877902
0.0155352378344072,16.790396834245
0.0171635605936393,16.7956634104904
0.0194074011290667,16.801965397851
0.0211081709720494,16.8062677932323
0.0228948943721074,16.8105701886136
0.0244177424460444,16.814238664262
0.025691090567913,16.8174832152249
0.0267556212933295,16.8205379944364
0.0275953114850762,16.8234964733482
0.0281666766863343,16.8263270345372
0.0284686616359503,16.8291505484917
0.0284713606384525,16.8321223134182
0.0280663470446833,16.8355708284382
0.0272808856871965,16.838935274467
0.0261712592225945,16.8422997204959
0.0250762903713516,16.8450497266
0.0240008380367645,16.8474897632755
0.0229269381474056,16.849785076998
0.0218528126216962,16.8520030370995
0.0207812480127112,16.8541787656314
0.0197159111538318,16.8563344981436
0.0186604842153919,16.858486007799
0.0176184372966553,16.8606453784254
0.016592970437035,16.8628224272046
0.0155870061499179,16.8650255235918
0.0146031930997062,16.8672621119575
0.013643921276353,16.8695390499076
0.0127113281664228,16.8718628700511
0.0118073110374384,16.8742399685597
0.0109335384943804,16.876676757314
0.0100914519785015,16.8791798227855
0.00928228121771577,16.8817560374306
0.00850596215491031,16.8844165697074
0.00774182997704551,16.8872533908716
0.00699372986551632,16.8902861185288
0.00626540220238348,16.8935385677545
0.00556079911093799,16.8970381937364
0.00488404464797215,16.9008167788671
0.00423946760206906,16.9049113127851
0.00363130988160513,16.909365263081
0.00306359614860855,16.914230649371
0.00253991911908018,16.9195718104464
0.00206316825160664,16.9254719772651
0.0016354226192073,16.9320425416597
0.00126830581028774,16.9392071587945
0.000962258849001717,16.9469613726155
0.00071065818749634,16.9554326393498
0.000509674798761539,16.9647899405475
0.000382881650907201,16.9734840484367
0.000280213542289506,16.9834840484367
0.000208876549222479,16.9934840484367
0.000159174890866586,17.0034840484367
0.000124898581032482,17.0134840484367
0.000101630902986937,17.0234840484367
8.61230368948768e-05,17.0334840484367
7.60290256429023e-05,17.0434840484367
6.97074200371195e-05,17.0534840484368
6.60350606199405e-05,17.0634840484368
6.42493210538907e-05,17.0734840484368
6.3831326972845e-05,17.0834840484368
6.44269942469369e-05,17.0934840484368
6.5795500475996e-05,17.1034840484368
6.77753268305168e-05,17.1134840484368
7.02612061401596e-05,17.1234840484368
7.31881216440709e-05,17.1334840484368
7.65201657418027e-05,17.1434840484368
8.02428893097716e-05,17.1534840484368
8.43581835625754e-05,17.1634840484368
8.88809945666529e-05,17.1734840484368
9.38373699028485e-05,17.1834840484368
9.92634973740718e-05,17.1934840484368
0.000105205519747564,17.2034840484368
0.000111720002821099,17.2134840484368
0.000118875005868669,17.2234840484368
0.000126751763540675,17.2334840484368
0.000135447045194128,17.2434840484368
0.000145076319140205,17.2534840484368
0.000155777923511478,17.2634840484368
0.000167718542486638,17.2734840484368
0.000181100420715692,17.2834840484368
0.000196170941410685,17.2934840484368
0.000213235478336169,17.3034840484368
0.000232674863227622,17.3134840484368
0.000254969478313518,17.3234840484368
0.000280733042653598,17.3334840484368
0.000310760880848333,17.3434840484368
0.000346100330315688,17.3534840484368
0.000388155866000246,17.3634840484368
0.000438850250168949,17.3734840484368
0.000497843930427996,17.3830331229023
0.000564536974603643,17.3918641786796
0.000639794650923377,17.4000203887936
0.000724703766158456,17.4075532588348
0.000820516289246163,17.4145110418843
0.000928654001475623,17.4209385657413
0.00105072705642612,17.4268775120222
0.00118855787966628,17.4323666630785
0.00134421148509842,17.4374420519802
0.00152002460872071,17.4421371343577
0.00171864631198519,17.4464829928599
0.0019430801568421,17.4505085575166
0.00219674058320322,17.4542407534897
0.00248350947448965,17.457704632883
0.00280781635627284,17.4609235567148
0.0031747372421856,17.4639193903438
0.00359011348939765,17.4667126459589
0.00406071546532178,17.469322671284
0.00459446384027311,17.4717678911732
0.00520073199476187,17.4740660507206
0.00589079307286594,17.4762345593723
0.00665598402601152,17.47823716724
0.00749896101176836,17.4800886522549
0.00843108319242869,17.481820344794
0.00946905489357289,17.4834632881331
0.0106393497133068,17.4850518921337
0.0119975783584672,17.4866413300353
0.0137275643900972,17.4883870073062
0.0161350221938072,17.4904759248683
0.0178433868377995,17.4918089553786
0.0196431580850761,17.4931419858888
0.0212800421961799,17.4943359369225
0.0227460909064356,17.495431870639
0.0240650872158755,17.4964855354516
0.0252344136606422,17.4975361695859
0.0262332217688956,17.4986222019633
0.0270196000723553,17.4997975662282
0.0275054045625683,17.5011743976461
0.0273481454467455,17.5032575920377
0.0265037636857882,17.5049821342075
0.0254278500272783,17.5064165855703
0.0241916479878349,17.5077733994964
0.022797545655802,17.5091498769433
0.0212548967117557,17.5105918821781
0.0195716218147464,17.5121375825294
0.0184746069855249,17.5131518862552
0.0174118716414915,17.5141661899809
0.015035122718883,17.5166326590787
0.0129370832235098,17.5191096001497
0.0111289830142509,17.5215619012029
0.00946480612346346,17.5241884155252
0.00811902508723627,17.5266831986812
0.00697541184881271,17.5291804481736
0.0059910734320017,17.5317351339068
0.00514723261892567,17.5343716796852
0.0044309047197973,17.5371130245167
0.00383342914415925,17.5399832007219
0.00335033456507005,17.5430087626728
0.00298208037277481,17.5462202500584
0.00273609500549852,17.5496539588445
0.00263124446930333,17.5533543056481
0.00268119337726993,17.5567160281706
0.00285463104477791,17.5597443832079
0.00313279244374498,17.5624894102879
0.00350628310940428,17.5649962789419
0.00397407737287584,17.567315641014
0.00454298846374237,17.5694983450439
0.00523028681702974,17.5716008921837
0.00607016771208831,17.5736927342468
0.00713425042545547,17.5758814097706
0.00857838694147958,17.5783516418291
0.0104816721036096,17.581076306001
0.0121070242727002,17.5830848111514
0.0139514914231055,17.5850933163017
0.0157794465669706,17.5868419339433
0.0176601237623733,17.5884224473772
0.0196495491149448,17.5898863715163
0.0218126662456105,17.591273772808
0.0241995798211304,17.5926018184807
0.026847075008215,17.5938747554977
0.0298063052285501,17.5951009574741
0.0331172074481184,17.5962811285441
0.036832753845599,17.5974193209428
0.0410058659782394,17.5985174790059
0.0457000896612882,17.5995786538726
0.0509867368441399,17.600605580496
0.0569489266656324,17.6016011999299
0.0636851339722174,17.6025687256883
0.0713111457582694,17.603511376503
0.079966898880906,17.6044327026557
0.0898214868869226,17.6053364369166
0.10108219313968,17.6062266315864
0.114007385499211,17.6071078324705
0.128923387585471,17.6079851997778
0.146250737741727,17.6088648064108
0.166546220394506,17.6097541513033
0.190577829740238,17.6106631902163
0.218634827880986,17.611580996455
0.251130748573343,17.6125048808547
0.288934495038156,17.6134459759765
0.333342239385562,17.6144245274931
0.373159272911797,17.6152245269038
0.415248553344543,17.6160245263145
0.451917327885514,17.6167100681619
0.483712853997414,17.6173201453322
0.511677401972807,17.6178954370109
0.53601610571507,17.6184620000767
0.556404410284038,17.6190431590572
0.571934249991342,17.6196692486719
0.580438970625634,17.6203992717846
0.577789540188847,17.6211561765359
0.562757646520419,17.6219488234096
0.533660134827012,17.6227977216022
0.491462756109872,17.6236595862346
0.434330915235914,17.6245664257726
0.381208097705593,17.6252763539569
0.321687680856473,17.6259862821413
0.270381454825901,17.6265569138356
0.227963691861573,17.6270156769929
0.191518490205041,17.6274100177713
0.159285035284521,17.6277661756057
0.130297243407419,17.6280988774622
0.103943713386516,17.6284179942955
0.0797631291791039,17.6287317043074
0.0573171798371391,17.6290488923286
0.0359992626109402,17.6293836607767
0.0141764413912961,17.6297768550005
0.000114926192832329,17.6300705755191
-0.00749576100560215,17.6302482114102
-0.0144640746717866,17.6304258473014
-0.0205424384848807,17.6305953678198
-0.0267552567890438,17.6307862683298
-0.0328596853783397,17.630996050742
-0.0386508848618833,17.6312219055679
-0.0440115521344898,17.6314625910444
-0.0488782994417313,17.6317179274785
-0.0532202226198883,17.6319884711719
-0.0570263164666516,17.6322753484055
-0.0602978854346863,17.632580187288
-0.0630426791083018,17.6329051138947
-0.0654031539417478,17.6332791604238
-0.067059789440103,17.6336516654379
-0.0682287209942811,17.6340538957664
-0.0689255370884588,17.6344912802838
-0.0691608353690646,17.6349702538005
-0.0689400042336017,17.6354990985102
-0.0682594550872047,17.6360894674887
-0.0671009114019776,17.6367575814153
-0.0654242734365231,17.6375265904915
-0.0631463845079481,17.6384345366694
-0.0600723258702558,17.6395584820994
-0.055959771740466,17.6409933789207
-0.0519283045459203,17.6423779971479
-0.0480432195195277,17.6437218031936
-0.0443404057222373,17.6450277250566
-0.0408392744867524,17.6462968488584
-0.0375504064019227,17.6475293322716
-0.0344787023668657,17.64872488401
-0.0316249025952325,17.6498830175534
-0.0289864824878963,17.651003184153
-0.0265582996678457,17.6520848392443
-0.0243331350792022,17.6531274701284
-0.0223021784080889,17.6541305996584
-0.0204554727819179,17.6550937740053
-0.0187823191932777,17.6560165390016
-0.0172102261858947,17.6569353730937
-0.015695154409616,17.6578777638881
-0.0142415471394246,17.658845297178
-0.0128532875928961,17.6598400885002
-0.0115340563181481,17.6608646215158
-0.0102872750528311,17.6619218409208
-0.00911605052665568,17.6630152726142
-0.00802311472873879,17.6641491856518
-0.00701076097332214,17.6653288156089
-0.00608077429257908,17.6665606811433
-0.00523435333697495,17.6678530474135
-0.00447201848879631,17.6692166315328
-0.00379349602316694,17.670665729558
-0.00319755776814343,17.6722201305412
-0.00269742366392567,17.6738508369748
-0.00229339594553544,17.6755293183273
-0.00196900576513672,17.6772738778647
-0.00170932452821988,17.6791060873367
-0.0015000779604213,17.6810548637232
-0.00132710120306555,17.6831613889872
-0.00117543441664548,17.6854894564
-0.00102740224521441,17.6881511471632
-0.000856695497726,17.6913928500481
-0.000651141402829842,17.6951332678943
-0.000410828313437953,17.6991529664656
-0.000137708754402304,17.7033990275631
0.000163292214191407,17.7078863715925
0.000485574901073873,17.7126395739962
0.00079741421907959,17.7172894927227
0.0010851815154353,17.7216724088331
0.00136378873293435,17.7260176390307
0.00165220339842616,17.7306186291789
0.00196296035400075,17.7356720696645
0.00226269653973187,17.7406027640848
0.00256935579497532,17.7456713036018
0.00283016002532859,17.7499639745224
0.00307305664771441,17.7539316872053
0.00331080306941245,17.757770395762
0.00355000406555371,17.7615730669817
0.00379526193824347,17.7653972232434
0.00405048200948753,17.7692853061575
0.00431941578209485,17.7732724389167
0.00460595322889534,17.7773899453495
0.00491439620911151,17.7816681198091
0.0052496933151937,17.7861376636265
0.0056177581481128,17.7908309831337
0.00602595840382034,17.7957834076279
0.0064699276367144,17.8008771301298
0.00693246862003242,17.8058688312722
0.0074222338711569,17.8108175252849
0.00794071926383037,17.8156932017185
0.00849338701729862,17.8204998775476
0.00908621112314184,17.8252381098885
0.00972631166244086,17.8299106577632
0.0104218478519358,17.8345205342102
0.0111991151796277,17.8391676366142
0.0120720045296074,17.8438413988235
0.0130625398785404,17.8485591441756
0.0142008125694636,17.8533510745984
0.0155352332807267,17.8582880302961
0.0171635548481117,17.8635546049424
0.0194073920384034,17.8698565858184
0.0211081634211684,17.8741589865567
0.0228948888599353,17.878461387295
0.0244177380060544,17.8821298651916
0.025691086840392,17.8853744170862
0.0267556182204608,17.8884291966458
0.0275953092776442,17.8913876761647
0.0281666753132421,17.8942182375767
0.0284686611340922,17.8970417513424
0.0284713611757519,17.9000135154594
0.028066349263602,17.9034620278749
0.0272808881594508,17.9068264776511
0.0261712610470145,17.9101909274274
0.0250762920182061,17.912940934559
0.0240008396629737,17.9153809715638
0.022926939773997,17.9176762854424
0.0218528142468982,17.9198942456293
0.0207812496312897,17.9220699742056
0.0197159127601231,17.9242257067347
0.0186604858039654,17.9263772163862
0.0176184388624477,17.9285365869926
0.0165929719754208,17.9307136357382
0.0155870076566794,17.9329167320799
0.014603194571036,17.9351533203894
0.0136439227088385,17.9374302582732
0.0127113295570026,17.9397540783407
0.0118073123834155,17.9421311767638
0.0109335397934186,17.9445679654227
0.0100914532285789,17.9470710307886
0.00928228241713691,17.9496472453174
0.0085059633381053,17.9523077773385
0.00774183113827747,17.955144598219
0.00699373099922999,17.9581773255584
0.00626540330266369,17.9614297744273
0.00556080017159871,17.9649294000073
0.00488404566249675,17.9687079846834
0.00423946856384751,17.9728025180858
0.0036313107842707,17.9772564677937
0.00306359698626702,17.9821218534078
0.00253991988672579,17.9874630136963
0.00206316894545689,17.9933631795815
0.00163542323664314,17.9999337428453
0.00126830632827832,18.0070983591485
0.00096225927788768,18.0148525719705
0.000710658537230272,18.023323837479
0.000509675062880971,18.0326811371514
0.000382881972236435,18.0413752345811
0.000280213763223026,18.0513752345811
0.000208876701956388,18.0613752345811
0.000159174996075345,18.0713752345811
0.000124898652796004,18.0813752345811
0.000101630951254478,18.0913752345811
8.61230687317606e-05,18.1013752345811
7.60290460042171e-05,18.1113752345811
6.97074323487302e-05,18.1213752345811
6.6035067230521e-05,18.1313752345811
6.42493235697663e-05,18.1413752345811
6.38313264922438e-05,18.1513752345811
6.44269915183605e-05,18.1613752345811
6.57954960045695e-05,18.1713752345811
6.7775320950187e-05,18.1813752345811
7.02611990633687e-05,18.1913752345811
7.31881134961116e-05,18.2013752345811
7.65201565844384e-05,18.2113752345811
8.02428791572101e-05,18.2213752345811
8.43581723919631e-05,18.2313752345811
8.88809823246135e-05,18.2413752345811
9.38373565091113e-05,18.2513752345811
9.92634827228783e-05,18.2613752345811
0.000105205503707273,18.2713752345811
0.000111719985232202,18.2813752345811
0.000118874986540279,18.2913752345811
0.000126751742245375,18.3013752345811
0.000135447021660954,18.3113752345811
0.000145076293045334,18.3213752345811
0.000155777894465997,18.3313752345811
0.000167718510020478,18.3413752345811
0.000181100384256386,18.3513752345811
0.000196170900255046,18.3613752345811
0.000213235431612053,18.3713752345811
0.000232674809841624,18.3813752345811
0.00025496941687827,18.3913752345811
0.000280732971384957,18.4013752345811
0.000310760797417102,18.4113752345812
0.000346100231629058,18.4213752345812
0.000388155747871586,18.4313752345812
0.000438850106804869,18.4413752345812
0.000497843767989622,18.4509243109355
0.000564536791262216,18.4597553685314
0.000639794444095321,18.4679115803272
0.000724703532818878,18.4754444519203
0.000820516025943887,18.4824022364011
0.000928653704298771,18.4888297615773
0.00105072672094708,18.4947687090732
0.00118855750087242,18.5002578612475
0.00134421105730967,18.5053332511772
0.00152002412551087,18.5100283344991
0.00171864576606312,18.5143741938681
0.0019430795399319,18.5183997593192
0.00219673988590151,18.5221319560194
0.00248350868607999,18.5255958360771
0.00280781546451489,18.5288147605149
0.00317473623301721,18.5318105946949
0.00359011234658832,18.5346038508096
0.00406071416998968,18.5372138765855
0.00459446237020638,18.5396590968786
0.00520073032349381,18.5419572567847
0.00589079116826828,18.5441257657501
0.00665598192869595,18.5461283740526
0.00749895869824292,18.5479798594219
0.00843108062711491,18.5497115522346
0.0094690520230185,18.5513544957642
0.0106393464481611,18.552943099855
0.0119975743636405,18.554532537521
0.0137275590359066,18.5562782141185
0.0161350161808987,18.5583671318438
0.0178433811598741,18.5597001629253
0.0196431529837929,18.5610331940068
0.0212800376842738,18.5622271454551
0.0227460868429055,18.5633230793652
0.0240650835739751,18.5643767442404
0.0252344104762658,18.5654273783309
0.0262332191289103,18.5665134105399
0.0270195981438639,18.5676887744304
0.0275054037429933,18.5690656049455
0.0273481476260838,18.5711487969041
0.0265037675218316,18.5728733400538
0.0254278545744542,18.5743077919835
0.0241916531868663,18.5756646059523
0.0227975514702043,18.5770410832154
0.0212549031018998,18.5784830881141
0.0195716287599542,18.5800287879694
0.0184746140947449,18.5810430914587
0.0174118786681386,18.582057394948
0.0150351264606617,18.584523866779
0.0129370851671162,18.5870008095272
0.0111289844517763,18.5894531109417
0.00946480724195322,18.5920796254442
0.00811902598537072,18.5945744087108
0.0069754126212638,18.5970716581741
0.00599107409671843,18.5996263438563
0.00514723318724307,18.602262889567
0.00443090519965137,18.6050042343139
0.00383342954053153,18.6078744104163
0.00335033487981299,18.6108999722439
0.00298208060375042,18.6141114594821
0.00273609514449738,18.6175451680917
0.00263124449755169,18.621245514683
0.00268119330062957,18.624607237483
0.00285463088252655,18.6276355927465
0.0031327922064242,18.6303806200191
0.00350628280185892,18.6328874888344
0.00397407699301801,18.6352068510273
0.004542988003391,18.6373895551391
0.00523028625895986,18.6394921023166
0.00607016701557413,18.6415839443437
0.00713424948531213,18.6437726196782
0.00857838560574658,18.6462428514139
0.0104816704667656,18.6489675155296
0.0121070227517201,18.6509760210679
0.0139514900666252,18.6529845266062
0.0157794451677214,18.6547331443766
0.0176601223320115,18.6563136579406
0.0196495475934255,18.6577775821599
0.0218126645642544,18.6591649834934
0.0241995779620889,18.6604930292103
0.0268470729318541,18.661765966263
0.0298063029071,18.6629921682748
0.0331172048421165,18.6641723393766
0.0368327509192944,18.665310531806
0.0410058626859853,18.6664086898973
0.0457000859551754,18.6674698647907
0.0509867326651837,18.6684967914382
0.0569489219478914,18.6694924108942
0.0636851286363213,18.6704599366723
0.0713111397091262,18.6714025875041
0.0799668920044763,18.6723239136713
0.0898214790437664,18.6732276479437
0.101082184157691,18.6741178426217
0.114007375162612,18.6749990435106
0.128923375618979,18.6758764108184
0.146250723786394,18.6767560174469
0.166546203967275,18.6776453623285
0.190577810155197,18.6785544012217
0.218634805226667,18.6794722074587
0.251130722288921,18.68039609185
0.288934464353713,18.6813371869526
0.333342203034058,18.6823157384283
0.37315924273607,18.6831157380105
0.415248531179449,18.6839157375926
0.451917309420978,18.6846012795069
0.483712837850082,18.6852113567056
0.511677387814543,18.6857866483952
0.536016093590385,18.6863532114595
0.556404400507081,18.6869343704247
0.571934243288976,18.687560460003
0.580438968889311,18.6882904830289
0.577789545551194,18.6890473877652
0.562757659766777,18.6898400346108
0.533660157197106,18.6906889327639
0.491462786817943,18.6915507973822
0.434330955545098,18.6924576368908
0.381208133283041,18.6931675652053
0.321687708583281,18.6938774935198
0.270381476688929,18.694448125292
0.227963710191965,18.6949068884899
0.191518506221063,18.6953012292912
0.15928504958775,18.6956573871394
0.130297256346514,18.6959900890044
0.103943725202384,18.6963092058421
0.0797631400731763,18.6966229158546
0.0573171900320823,18.6969401038715
0.0359992724966197,18.6972748723059
0.0141764525225154,18.6976680664768
0.000114922642343095,18.6979617872926
-0.0074957640929296,18.6981394231795
-0.0144640773378566,18.6983170590665
-0.0205424408270549,18.6984865795821
-0.0267552591327965,18.6986774800996
-0.0328596876359639,18.6988872625183
-0.0386508869751221,18.69911311735
-0.0440115540708833,18.699353802832
-0.0488783011844795,18.6996091392716
-0.0532202241616348,18.6998796829709
-0.0570263178059096,18.7001665602109
-0.0602978865735673,18.7004713991005
-0.0630426800483775,18.7007963257153
-0.0654031546790014,18.7011703722557
-0.0670597899873527,18.7015428772805
-0.0682287213573266,18.7019451076216
-0.0689255372720973,18.7023824921536
-0.0691608353765131,18.7028614656878
-0.0689400040656142,18.7033903104186
-0.0682594547397785,18.7039806794236
-0.0671009108646677,18.704648793384
-0.0654242726876508,18.705417802505
-0.0631463835015142,18.7063257487473
-0.0600723244856133,18.7074496942873
-0.0559597703719376,18.7088845910871
-0.0519283032178829,18.7102692092999
-0.0480432182482963,18.7116130153326
-0.0443404045163464,18.7129189371831
-0.0408392733509093,18.7141880609727
-0.0375504053385732,18.7154205443737
-0.0344787013768589,18.7166160960997
-0.0316249016781979,18.7177742296304
-0.0289864816424943,18.7188943962173
-0.0265582988919556,18.7199760512956
-0.024333134370091,18.7210186821666
-0.0223021777625738,18.7220218116832
-0.020455472196501,18.7229849860167
-0.0187823186642756,18.7239077509994
-0.0172102256751471,18.7248265850992
-0.0156951539188195,18.7257689759017
-0.0142415466698934,18.7267365092003
-0.0128532871458874,18.7277313005319
-0.01153405589484,18.7287558335579
-0.0102872746543063,18.7298130529743
-0.00911605015388288,18.7309064846804
-0.00802311438255174,18.7320403977323
-0.0070107606543969,18.7332200277056
-0.00608077400140941,18.7344518932587
-0.00523435307384567,18.7357442595507
-0.00447201825374835,18.7371078436958
-0.00379349581595488,18.7385569417524
-0.00319755758816761,18.7401113427748
-0.00269742351912727,18.7417420492212
-0.00229339582994122,18.7434205305928
-0.00196900567360654,18.7451650901555
-0.00170932445589935,18.746997299661
-0.00150007790259699,18.7489460760924
-0.00132710115493908,18.7510526014179
-0.00117543437292449,18.7533806689194
-0.00102740219911835,18.7560423598227
-0.000856695437257819,18.7592840629787
-0.000651141335974238,18.7630244808488
-0.000410828230121467,18.7670441795808
-0.000137708660710569,18.7712902407535
0.000163292316130463,18.7757775848663
0.000485575009013441,18.7805307873619
0.00079741431692717,18.7851807059658
0.0010851816075314,18.7895636220237
0.00136378882464356,18.7939088522506
0.00165220349754729,18.7985098425514
0.00196296044595106,18.8035632829461
0.00226269663052658,18.8084939773621
0.00256935589083838,18.8135625169664
0.00283016011187893,18.8178551877251
0.00307305673080124,18.8218229003387
0.00331080315197554,18.8256616088695
0.00355000414943017,18.8294642800879
0.00379526202487018,18.8332884363651
0.00405048210017604,18.8371765193078
0.00431941587816069,18.8411636521072
0.00460595333175182,18.8452811585909
0.00491439632035256,18.8495593331119
0.00524969343668586,18.8540288770016
0.00561775828212913,18.858722196593
0.00602595855325483,18.8636746211843
0.00646992779082386,18.8687683436371
0.00693246878347591,18.8737600447731
0.00742223404354465,18.87870873876
0.00794071944699882,18.8835844151703
0.00849338721302843,18.8883910909753
0.00908621133375953,18.8931293232934
0.00972631189052833,18.897801871146
0.010421848105732,18.9024117476052
0.0111991154633147,18.9070588500167
0.0120720048498252,18.9117326122382
0.0130625402438633,18.9164503576092
0.0142008129926111,18.9212422880665
0.0155352337838617,18.9261792438354
0.0171635554829039,18.9314458186584
0.0194073930427353,18.9377478002507
0.0211081642553857,18.9420502003972
0.022894889468919,18.9463526005437
0.0244177384965834,18.9500210781919
0.0256910872522067,18.9532656299837
0.0267556185599488,18.9563204095047
0.0275953095215206,18.9592788889566
0.0281666754649424,18.9621094503439
0.0284686611895405,18.9649329641305
0.0284713611163974,18.967904728337
0.0280663490184691,18.9713532410401
0.027280887886329,18.9747176904024
0.0261712608454609,18.9780821397647
0.025076291836268,18.9808321467828
0.024000839483316,18.9832721837512
0.0229269395942967,18.9855674976125
0.0218528140673509,18.98778545779
0.0207812494524741,18.9899611863614
0.0197159125826651,18.9921169188886
0.0186604856284642,18.9942684285406
0.0176184386894638,18.9964277991491
0.0165929718054646,18.9986048478985
0.0155870074902167,19.0008079442452
0.0146031944084873,19.003044532561
0.0136439225505807,19.005321470452
0.0127113294033745,19.007645290528
0.0118073122347151,19.0100223889605
0.0109335396499045,19.0124591776299
0.010091453090474,19.0149622430075
0.00928228228462881,19.0175384575492
0.00850596320738975,19.0201989895985
0.0077418310099891,19.0230358105103
0.00699373087398185,19.0260685378849
0.00626540318110939,19.0293209867932
0.00556080005442121,19.0328206124175
0.00488404555041629,19.0365991971439
0.00423946845759442,19.0406937306032
0.00363131068454833,19.0451476803761
0.00306359689372652,19.0500130660649
0.0025399198019202,19.0553542264403
0.00206316886880405,19.0612543924287
0.0016354231684323,19.0678249558173
0.00126830627105396,19.0749895722124
0.000962259230507378,19.0827437851448
0.000710658498594517,19.0912150507887
0.000509675033708181,19.1005723506296
0.000382881936719997,19.1092664492169
0.000280213738808184,19.1192664492169
0.000208876685083167,19.1292664492169
0.000159174984457932,19.1392664492169
0.000124898644877811,19.1492664492169
0.000101630945935616,19.1592664492169
8.61230652311766e-05,19.1692664492169
7.60290437741577e-05,19.1792664492169
6.97074310105204e-05,19.1892664492169
6.60350665245935e-05,19.1992664492169
6.42493233186441e-05,19.2092664492169
6.38313265746428e-05,19.2192664492169
6.44269918516815e-05,19.2292664492169
6.57954965331419e-05,19.2392664492169
6.77753216372896e-05,19.2492664492169
7.02611998857412e-05,19.2592664492169
7.318811444016e-05,19.2692664492169
7.65201576436286e-05,19.2792664492169
8.02428803303073e-05,19.2892664492169
8.43581736818785e-05,19.2992664492169
8.88809837376892e-05,19.3092664492169
9.38373580547292e-05,19.3192664492169
9.92634844133165e-05,19.3292664492169
0.000105205505557764,19.3392664492169
0.000111719987261171,19.3492664492169
0.000118874988769752,19.3592664492169
0.000126751744701579,19.3692664492169
0.000135447024375128,19.3792664492169
0.000145076296054804,19.3892664492169
0.000155777897815584,19.3992664492169
0.00016771851376435,19.4092664492169
0.000181100388460509,19.4192664492169
0.00019617090500044,19.4292664492169
0.000213235436999201,19.4392664492169
0.000232674815996495,19.4492664492169
0.000254969423960689,19.4592664492169
0.000280732979600447,19.4692664492169
0.000310760807033958,19.479266449217
0.000346100243003507,19.489266449217
0.000388155761485815,19.499266449217
0.00043885012332607,19.509266449217
0.000497843786711124,19.5188155253543
0.00056453681239547,19.5276465827411
0.00063979446793869,19.5358027943435
0.000724703559721622,19.5433356657582
0.000820516056304503,19.5502934500745
0.000928653738569008,19.556720975099
0.00105072675963819,19.5626599224551
0.00118855754456329,19.5681490745009
0.00134421110665626,19.5732244643123
0.00152002418125535,19.5779195475256
0.00171864582904748,19.5822654067949
0.00194307961111199,19.5862909721546
0.00219673996636338,19.5900231687712
0.00248350877706137,19.5934870487525
0.00280781556742975,19.5967059731206
0.00317473634948994,19.5997018072372
0.0035901124784938,19.6024950632944
0.00406071431950892,19.6051050890185
0.00459446253990602,19.6075503092652
0.00520073051643164,19.60984846913
0.00589079138815737,19.6120169780594
0.00665598217084615,19.6140195863119
0.0074989589653715,19.6158710716404
0.00843108092333846,19.6176027644217
0.00946905235452322,19.6192457079295
0.0106393468252913,19.62083431201
0.0119975748251551,19.6224237497035
0.0137275596547124,19.6241694263792
0.016135016875486,19.6262583440856
0.0178433818154707,19.6275913751011
0.0196431535724008,19.6289244061166
0.0212800382044231,19.630118357517
0.0227460873109374,19.6312142914048
0.024065083992999,19.6322679562729
0.0252344108421365,19.6333185903685
0.0262332194315787,19.6344046225972
0.0270195983639929,19.635579986531
0.0275054038345789,19.6369568171508
0.0273481473703252,19.6390400093912
0.0265037670747207,19.6407645524269
0.0254278540452617,19.6421990042909
0.0241916525823842,19.6435558182549
0.0227975507946667,19.6449322955393
0.0212549023599201,19.6463743004768
0.0195716279539607,19.6479200003895
0.0184746132699836,19.6489343039061
0.0174118778531272,19.6499486074227
0.0150351260271167,19.6524150789362
0.0129370849422543,19.6548920214897
0.0111289842854988,19.6573443228623
0.00946480711255051,19.659970837344
0.00811902588142584,19.6624656205978
0.00697541253182792,19.6649628700645
0.00599107401971497,19.6675175557526
0.00514723312135983,19.6701541014711
0.00443090514396987,19.6728954462279
0.00383342949447395,19.6757656223421
0.00335033484316324,19.678791184184
0.00298208057675364,19.6820026714393
0.00273609512810058,19.6854363800694
0.00263124449392392,19.6891367266852
0.00268119330909544,19.6924984494531
0.00285463090085701,19.6955268046903
0.00313279223340415,19.6982718319407
0.00350628283693085,19.7007787007373
0.00397407703643085,19.7030980629163
0.00454298805610864,19.7052807670187
0.00523028632299204,19.707383314192
0.00607016709569634,19.7094751562235
0.00713424959384398,19.7116638315804
0.00857838576071073,19.7141340633547
0.0104816706567841,19.7168587274772
0.0121070229278379,19.7188672329701
0.0139514902230758,19.720875738463
0.0157794453287281,19.7226243562183
0.0176601224963134,19.7242048697672
0.0196495477680519,19.7256687939772
0.0218126647571576,19.7270561953058
0.0241995781753721,19.7283842410177
0.0268470731701053,19.7296571780662
0.0298063031735383,19.730883380074
0.0331172051413035,19.7320635511721
0.0368327512553577,19.733201743598
0.0410058630641861,19.7342999016861
0.0457000863810528,19.7353610765764
0.050986733145537,19.7363880032211
0.0569489224903276,19.7373836226746
0.0636851292500104,19.7383511484504
0.0713111404050299,19.7392937992803
0.0799668927957357,19.7402151254457
0.08982147994646,19.7411188597169
0.101082185191706,19.742009054394
0.114007376352859,19.7428902552823
0.128923376997266,19.7437676225901
0.146250725394176,19.7446472292191
0.166546205860357,19.745536574102
0.190577812412894,19.7464456129975
0.218634807838478,19.7473634192347
0.251130725319667,19.748287303627
0.288934467892315,19.7492283987319
0.333342207226878,19.7502069502123
0.373159246214301,19.7510069497747
0.415248533730974,19.751806949337
0.451917311544152,19.7524924912436
0.483712839704855,19.753102568439
0.511677389438826,19.7536778601274
0.536016094979068,19.7542444231919
0.556404401623898,19.7548255821588
0.571934244049928,19.7554516717414
0.580438969075874,19.7561816947774
0.577789544917273,19.7569385995154
0.562757658221801,19.7577312463643
0.533660154598061,19.7585801445219
0.491462783253777,19.7594420091418
0.434330950869998,19.7603488486539
0.381208129157448,19.7610587769533
0.321687705368182,19.7617687052527
0.270381474153882,19.762339337016
0.227963708066663,19.7627981002091
0.191518504364202,19.7631924410078
0.159285047929541,19.7635485988544
0.130297254846501,19.7638813007184
0.103943723832675,19.7642004175556
0.0797631388103519,19.764514127568
0.057317188850477,19.7648313155854
0.0359992713509381,19.7651660840214
0.0141764512330448,19.7655592781984
0.000114923051982052,19.7658529989798
-0.00749576373684221,19.7660306348672
-0.0144640770304348,19.7662082707547
-0.0205424405570753,19.7663777912706
-0.0267552588626379,19.7665686917873
-0.0328596873756723,19.7667784742052
-0.0386508867314416,19.7670043290363
-0.0440115538475944,19.7672450145176
-0.0488783009835278,19.7675003509566
-0.0532202239839072,19.7677708946552
-0.0570263176515733,19.7680577718945
-0.0602978864423728,19.7683626107833
-0.0630426799401214,19.7686875373971
-0.065403154594172,19.7690615839362
-0.0670597899244503,19.7694340889598
-0.0682287213156764,19.7698363192994
-0.0689255372511461,19.7702737038297
-0.0691608353758859,19.7707526773619
-0.0689400040852202,19.7712815220902
-0.0682594547800741,19.7718718910922
-0.0671009109268555,19.7725400050487
-0.0654242727742249,19.7733090141645
-0.0631463836177824,19.7742169603994
-0.0600723246455063,19.7753409059267
-0.0559597705298643,19.776775802729
-0.0519283033710327,19.7781604209434
-0.0480432183947953,19.7795042269776
-0.0443404046552117,19.7808101488296
-0.0408392734816043,19.7820792726206
-0.0375504054608197,19.783311756023
-0.0344787014905643,19.7845073077504
-0.0316249017834157,19.7856654412826
-0.0289864817393875,19.7867856078709
-0.0265582989807737,19.7878672629507
-0.0243331344511541,19.7889098938232
-0.0223021778362522,19.7899130233414
-0.0204554722632007,19.7908761976765
-0.0187823187244315,19.7917989626607
-0.0172102257331597,19.7927177967596
-0.0156951539744939,19.7936601875612
-0.0142415467230767,19.7946277208587
-0.0128532871964389,19.7956225121893
-0.011534055942626,19.7966470452141
-0.010287274699204,19.7977042646292
-0.00911605019578411,19.7987976963338
-0.00802311442136269,19.7999316093841
-0.00701076069004236,19.8011112393555
-0.00608077403383322,19.8023431049064
-0.00523435310301753,19.8036354711959
-0.00447201827966681,19.8049990553381
-0.00379349583865175,19.806448153391
-0.00319755760771518,19.8080025544089
-0.00269742353461413,19.8096332608539
-0.00229339584205881,19.8113117422232
-0.00196900568295096,19.813056301783
-0.0017093244630332,19.8148885112847
-0.00150007790806701,19.8168372877109
-0.00132710115930188,19.8189438130293
-0.00117543437679423,19.8212718805206
-0.00102740220328176,19.8239335714078
-0.000856695443105098,19.8271752745325
-0.000651141342593165,19.8309156923999
-0.000410828238677699,19.8349353911133
-0.000137708670431925,19.8391814522785
0.000163292305497883,19.8436687963829
0.000485574997734084,19.8484219988693
0.000797414306635955,19.8530719174854
0.00108518159780834,19.8574548335486
0.00136378881495735,19.8618000637725
0.00165220348711933,19.8664010540581
0.00196296043622849,19.8714544944619
0.00226269662090568,19.8763851888783
0.00256935588069432,19.881453728474
0.00283016010264297,19.8857463992488
0.00307305672188983,19.8897141118693
0.00331080314309424,19.8935528204027
0.0035500041403939,19.8973554916212
0.0037952620155331,19.9011796478969
0.00405048209040432,19.9050677308368
0.00431941586781931,19.9090548636321
0.00460595332069517,19.9131723701108
0.00491439630841603,19.9174505446257
0.00524969342367622,19.9219200885083
0.0056177582678107,19.9266134080912
0.00602595853732776,19.931565832673
0.00646992777436374,19.9366595551308
0.00693246876600348,19.9416512562677
0.00742223402508962,19.9465999502573
0.00794071942736592,19.9514756266701
0.00849338719202772,19.9562823024776
0.00908621131114487,19.9610205347982
0.00972631186602461,19.9656930826532
0.0104218480784563,19.970302959111
0.0111991154328197,19.9749500615218
0.0120720048153973,19.979623823742
0.0130625402045833,19.984341569111
0.0142008129471135,19.9891334995645
0.0155352337297658,19.9940704553258
0.0164248996774825,19.9970352276629
0.0173850601362812,20
