ecg,time
0.000272535925549319,15.0095359609989
0.000265198571198898,15.0195359609989
0.000266793363928874,15.0295359609989
0.000275592723161007,15.0395359609989
0.000290664993801936,15.0495359609989
0.000311689206595952,15.0595359609989
0.000338863849310758,15.0695359609989
0.000372895071586679,15.0795359609989
0.000415060628310237,15.0895359609989
0.000467364589979044,15.0995359609989
0.00052944829396359,15.1090647027132
0.000600686551737263,15.1178556607644
0.000682073444364127,15.1259569494352
0.00077491647363723,15.1334243669929
0.000880752208292785,15.1403096911899
0.00100134259417808,15.1466606804801
0.00113869312285113,15.1525214585895
0.00129508138112613,15.1579328499043
0.00147309306732629,15.1629326654789
0.00167566401156288,15.167555961996
0.00190613188509878,15.1718352833839
0.00216829815550103,15.1758008894383
0.00246650619125179,15.1794809735321
0.00280573885326199,15.1829018822929
0.0031917463169776,15.186088348684
0.00363121635641605,15.1890637475712
0.00413200825247765,15.1918503923194
0.00470348848648011,15.1944699085094
0.00535703307215234,15.1969437426126
0.00609295796469306,15.19925421669
0.00691043762157932,15.2013988914396
0.00782385603097279,15.2034184228838
0.0088564597410578,15.2053573801388
0.0100504692595156,15.2072743786662
0.0115040657509407,15.2092793954869
0.0136758804868523,15.2118406273892
0.0151166800302767,15.2133630167913
0.0166321306646254,15.2148854061934
0.0180093564824545,15.2162506636642
0.0192351029478902,15.2174996410053
0.0203280411042294,15.218695081416
0.0212845630611146,15.2198803733843
0.0220851904687424,15.2210963325152
0.0226921315320564,15.2223973944915
0.0230290182729898,15.2238889787896
0.0228451870116637,15.225960539159
0.0222029669988568,15.227606767307
0.021206674591573,15.229252995455
0.0200840439157304,15.2307343239205
0.0188393702671163,15.2321900059564
0.0174796445566308,15.2336789558587
0.0160143997978798,15.2352386719199
0.015085294209829,15.236225587903
0.0141874985124191,15.2372125038862
0.0119783130255774,15.2398603934528
0.00991942414606672,15.2426998559289
0.00826937584433786,15.2453422911613
0.0069190246075829,15.24784522698
0.00573727856751677,15.2503821152198
0.00469603882241627,15.2529844766166
0.00377625745625473,15.2556760609841
0.00296257049823782,15.2584803863712
0.00229696949292218,15.2611793419478
0.00175798672487002,15.2637247123121
0.00131236948041048,15.2661478512598
0.000935562762441981,15.2684837456547
0.000609819463435614,15.2707665468883
0.000321773851612623,15.2730326005655
5.98169698237623e-05,15.2753335368658
-0.000190550427381097,15.2777825402968
-0.000469251446119839,15.2808398438959
-0.000626177275111979,15.2827324737404
-0.000773169582946362,15.284625103585
-0.000898892595462207,15.2863390080386
-0.00101127403106246,15.2879463673575
-0.00111901675631746,15.2895540204404
-0.0012290542365604,15.2912621533153
-0.00135111294196218,15.2932327167355
-0.00151416352752294,15.2959826850336
-0.0017264852317535,15.2997485300053
-0.00189575046105458,15.3028908621935
-0.00205127024482401,15.3058872919163
-0.00222114477288478,15.3092966638875
-0.00242483191361488,15.3136496544239
-0.00264147964122063,15.3189284475716
-0.00279392917552602,15.3240113212792
-0.00284953498111068,15.3283015235534
-0.00281516546620299,15.3320591626324
-0.00268491444404639,15.3356033071923
-0.00244722093698361,15.3389657009078
-0.00210986606850828,15.3420272594384
-0.00167290146513772,15.3448607834354
-0.0011331759551913,15.3475208883924
-0.00047930334474299,15.3500697173654
0.000319990439333237,15.3526015469725
0.00133245876323367,15.3552568235479
0.00267812008573669,15.3582230571611
0.00434592879562679,15.3613847666994
0.00618037320576219,15.3644593022067
0.00751256339761501,15.3664865572619
0.00896780824944891,15.3685138123172
0.0104356501597338,15.3703610646753
0.0119599491995543,15.3720769642354
0.0135721939858526,15.3736852325269
0.0153261495783357,15.3752232196434
0.0172590336774779,15.3767026304796
0.0194004225808134,15.3781257514298
0.0217856432777343,15.3794971247051
0.0244484489819315,15.380818403254
0.0274196995713204,15.382089074041
0.0307440316147037,15.383313597611
0.0344662031479021,15.3844942358672
0.03863520197289,15.3856330288113
0.0433138233283381,15.3867338976304
0.0485732253524862,15.3878002324427
0.0544970343736158,15.3888355004284
0.0611850759709945,15.3898433756703
0.0687566069104502,15.3908276325878
0.0773598344351984,15.3917926920188
0.0871774805556497,15.3927432940374
0.0984406997415668,15.3936848817149
0.11144910877087,15.3946239635881
0.126602933952561,15.3955686857491
0.14446062287508,15.3965299532814
0.165678227623679,15.3975161775494
0.190252897115178,15.3985056976725
0.218834855121357,15.3995091590509
0.252301071604383,15.4005418023401
0.291964596051675,15.4016290141446
0.337796967554808,15.4027665349527
0.377871949481708,15.4037041662347
0.411352381019893,15.4044788433765
0.4403989943117,15.4051718354285
0.465771566347876,15.4058237604777
0.487536559966784,15.406460082559
0.50533797915205,15.4071027853935
0.518337849706464,15.4077770787447
0.524816908324956,15.4085214916309
0.521637465898651,15.4093291362771
0.506980525321972,15.4101579299249
0.479474249727443,15.4110236916358
0.437358855663618,15.4119378176056
0.378702395891387,15.4129089046921
0.334995379037001,15.4135217652341
0.287021026658178,15.4141346257761
0.244218477517764,15.414651568741
0.207352580486825,15.4150875229458
0.174860493678429,15.4154734163822
0.145701422068048,15.4158280793359
0.119235981983132,15.4161633019388
0.0950179973063045,15.4164877566293
0.0726777722278239,15.4168092864147
0.0518217687825194,15.4171372760548
0.0318163275660292,15.417488465174
0.0104866940529354,15.4179225932775
0.000998230613988909,15.4181447949613
-0.00756596502297345,15.4183669966452
-0.0140542185435857,15.4185529250452
-0.0200239812561647,15.4187410667183
-0.0260051777465515,15.4189504687101
-0.0317602357337204,15.4191776847534
-0.0371384178888333,15.4194206535846
-0.0420565850076133,15.4196786870235
-0.0464719512503264,15.4199520100916
-0.050364544169193,15.420241506868
-0.0539719369761287,15.4205747965629
-0.0567292105646677,15.4209005633705
-0.0589711862094833,15.4212478892736
-0.0607150825087792,15.4216201874193
-0.0619752872896701,15.4220212088033
-0.0627653055466241,15.422455587604
-0.063096261091359,15.4229291140231
-0.0629751871064852,15.4234491383386
-0.0624024884763307,15.4240254596682
-0.0613663701030038,15.4246722589781
-0.0598390015781791,15.4254083629114
-0.0577640095420339,15.4262626454966
-0.0550225155736811,15.42728617439
-0.0512954198179688,15.4286012604778
-0.0472670153322203,15.4299906123978
-0.0433805129798586,15.4313350384352
-0.0396805394655913,15.4326387381452
-0.0361887128481183,15.4339038247302
-0.0329158663965953,15.4351310584351
-0.0298663390625675,15.4363205149568
-0.0270399705111669,15.4374719422005
-0.0244332245107267,15.4385849478071
-0.0220399535353844,15.4396590950242
-0.0198520020329677,15.4406939466287
-0.0178597236690659,15.441689077684
-0.0160524394303498,15.4426440683666
-0.0144188441113165,15.4435584830278
-0.012864717152954,15.4444824889179
-0.011371192855122,15.4454302751596
-0.00994252887082545,15.4464036084835
-0.00858263012707554,15.4474046786701
-0.00729519373451412,15.4484360615188
-0.00608365769906937,15.4495008162311
-0.00495114885779639,15.4506026132979
-0.00390042865060462,15.451745907603
-0.00293383661656536,15.4529361784264
-0.00205323107426921,15.4541802717446
-0.00125992570603174,15.4554869051564
-0.00055461946946857,15.4568674437345
6.26851956551501e-05,15.4583371540831
0.000592786085521284,15.4599173667545
0.00101889721102626,15.4615569640411
0.00134975980470875,15.4632483261681
0.00160099148360923,15.4650099196023
0.00178684835181374,15.4668646340842
0.00192078425889331,15.4688434939801
0.00201590352941745,15.4709913835191
0.00208567061932408,15.4733794079043
0.00214539924768767,15.4761371389084
0.00221709936296365,15.4795716763738
0.00231225822308936,15.4833361852857
0.00244450785711529,15.4874712562887
0.00259477241150913,15.4914168614029
0.00275572293878097,15.4952159390613
0.00292485636690494,15.4989663579477
0.00310096801103108,15.5027290884856
0.00328405182809828,15.506547856275
0.00347510939706796,15.5104582084514
0.00367594844012296,15.5144918242009
0.00388902038945897,15.5186790505501
0.00411730851660303,15.5230505763989
0.00436429616428166,15.5276387557353
0.00463407547568062,15.5324790305188
0.00493165995352417,15.5376113022634
0.00526359062000895,15.5430811669099
0.00560314843472718,15.5483904850142
0.0059595553446093,15.5536545356228
0.00633205464188027,15.5588177317002
0.0067250843437618,15.5638987878623
0.00714248537026785,15.5689015484721
0.00758893173544002,15.5738351492427
0.00806932338157254,15.5787051838582
0.00858898290114319,15.5835153719546
0.0091536919460969,15.5882671442551
0.00976981600148093,15.592960184966
0.0104444393545344,15.597593029283
0.0111991996000685,15.6022439381385
0.0120504453172521,15.6069236492916
0.0130183371318184,15.6116433660946
0.0141313666750636,15.616430870703
0.015434667818423,15.6213503356053
0.0170168514583452,15.626566116973
0.0191469088636186,15.6326625656836
0.0209008900561114,15.6371610394309
0.0227597011918206,15.6416595131782
0.0243174379199565,15.6454045844282
0.0256132970104248,15.6486789777073
0.0266988331032687,15.6517439272438
0.027567396097239,15.6547222481292
0.0281667626702825,15.6575597436802
0.0284980473142744,15.660376425787
0.0285355651674136,15.6633209741511
0.0281855945358163,15.6666856418891
0.0271644477053433,15.6710261653686
0.0262648451756615,15.6737047098105
0.0252060395923894,15.6763832542523
0.0241333706763332,15.6788308385772
0.0230594479041551,15.6811338009881
0.02198483843051,15.683356396164
0.020912362805133,15.6855348612064
0.0198456604758431,15.6876921624963
0.0187884068301904,15.6898445223263
0.0177440733624084,15.692004336874
0.0167158624667996,15.6941816725025
0.0157066977927599,15.6963851230902
0.0147192290937231,15.6986223526427
0.0137558450721979,15.7009004562879
0.0128186840506743,15.7032262271322
0.0119096427485096,15.7056063684515
0.0110303909293795,15.7080476553793
0.0101823739811687,15.7105571097358
0.00936682938128763,15.7131421309065
0.00858478965902094,15.7158106688809
0.00781953424658225,15.7186390169888
0.00707004413480996,15.7216627491314
0.00634012182473703,15.724905381991
0.00563371750453571,15.7283943236057
0.00495496011360581,15.7321613209629
0.00430809534664507,15.7362433340768
0.00369738080036214,15.7406837782731
0.00312691520305517,15.7455345722311
0.00260040941224613,15.7508596507538
0.00212088060577408,15.7567417186548
0.00169055342067787,15.7632914376605
0.00132131086840739,15.7704316384477
0.00102080823569466,15.7781551088424
0.00082235772112666,15.7853390300456
0.000654819387899836,15.7935514282378
0.000518848855907215,15.802748436686
0.000416450797026204,15.812748436686
0.000348857905084812,15.822748436686
0.000306473347008993,15.832748436686
0.000282343023616608,15.842748436686
0.000271547827365809,15.852748436686
0.000270781404480526,15.862748436686
0.000277964000490566,15.872748436686
0.000291923013457558,15.882748436686
0.000312172992263853,15.892748436686
0.000338796167471117,15.902748436686
0.000372410848692652,15.912748436686
0.000414221275365502,15.922748436686
0.000466160208249701,15.932748436686
0.00052842712325137,15.9423639957165
0.00059998160277203,15.9512358316758
0.000681780514708388,15.9594095174046
0.000775124652149156,15.966941765207
0.000881553835970137,15.9738852637574
0.0010028386736653,15.9802885692716
0.00114099698157825,15.9861965083472
0.00129832194979479,15.9916505312718
0.00147741838547325,15.9966890113182
0.00168124539125954,16.0013475138536
0.00191316880838429,16.0056590469085
0.00217702453171279,16.0096542985413
0.00247719841430043,16.0133618625637
0.00281872634327588,16.0168084660846
0.00320742615271848,16.0200192120121
0.00365007377400125,16.0230178470903
0.00415464684934126,16.0258270751133
0.00473067654344293,16.0284689557106
0.00538977819137965,16.0309654544669
0.00613096645913618,16.0332947430211
0.00695528084787771,16.0354606415347
0.00787821918030748,16.0375053831083
0.00892527676363404,16.0394764019369
0.0101445023851855,16.0414394002953
0.01165638580658,16.0435301051456
0.013382184759829,16.0456090469139
0.0148244108354169,16.0471877801072
0.0163443764369495,16.0487665133005
0.0177005521014257,16.0501555782285
0.0189046322819497,16.0514230984125
0.0199772708190122,16.0526351368902
0.020915092152403,16.0538357606198
0.0216989830846264,16.0550660099607
0.0222919176789518,16.05638012916
0.022619551168886,16.0578819355695
0.0224440464697874,16.0599436594597
0.021810563397974,16.0616181002028
0.0208203960504391,16.063292540946
0.019708784437808,16.0647895613814
0.0184792284293472,16.066255667677
0.0171380876980855,16.0677518696304
0.015694883983425,16.0693158822673
0.0152337877260074,16.0698135099543
0.0147752080387699,16.0703111376413
0.0141844388125383,16.0709679106567
0.0120204703575621,16.0735659259214
0.00995892584372653,16.0764065187436
0.00830210131408352,16.0790548800517
0.00694700450850581,16.0815602207929
0.0057606543261197,16.0840987459227
0.00471484036947917,16.0867022566735
0.00379049561126376,16.0893945803144
0.0029729183246718,16.0921967248982
0.0023175881752661,16.0948321322049
0.00178366400736082,16.0973221933406
0.00133942187491466,16.0996991683194
0.000961524676176853,16.1019975341939
0.000632354808135778,16.1042557453773
0.000337615957431946,16.1065230930766
6.29415968930114e-05,16.1088844744675
-0.000216810317605629,16.1115786598563
-0.000418381188673031,16.1137266585713
-0.000604047542507179,16.1158746572863
-0.000751841077602412,16.1177085414323
-0.000877192263869255,16.1193536320724
-0.000993375950137821,16.1209533357132
-0.00110825351719558,16.1226062031523
-0.00122998963867073,16.1244341761779
-0.00137493668743226,16.1267104968235
-0.0016329893219756,16.1310145432842
-0.00185774422940141,16.135010322456
-0.002041173283053,16.1384407190539
-0.00222785166086912,16.1421110197298
-0.00245076476349058,16.1468396462455
-0.00266235883365723,16.1520928017783
-0.00280139719499934,16.157068969977
-0.00284194085669707,16.1612171065919
-0.00279317971806734,16.1649091263488
-0.002645552823304,16.1684371372368
-0.00239125390968001,16.1717498035328
-0.00203813152373205,16.174768842317
-0.00158654739811303,16.1775629613328
-0.00103141820358355,16.1801950477436
-0.000358192025726968,16.1827337447109
0.00046785422211818,16.1852755383817
0.00154483790061456,16.1880253563134
0.00294427281404167,16.1910415426549
0.00462025615833231,16.1941763208826
0.00646087717286917,16.197239683485
0.00777842976736904,16.1992314485717
0.00922024813725419,16.2012232136584
0.01071472147584,16.2030827866518
0.0122189169345264,16.2047517747702
0.0138545009112104,16.2063572825167
0.0156234802724248,16.2078803790115
0.0175839303611641,16.2093517178646
0.0197571617188257,16.2107662642785
0.0221802901243852,16.2121296624605
0.0248872064716474,16.2134434182755
0.0279079361170556,16.2147065461523
0.0312883714685324,16.2159238556927
0.0350741571356603,16.2170976935226
0.0393176375821071,16.2182307443182
0.0440786651584534,16.2193257838759
0.0494319345660003,16.2203867688008
0.0554632849987225,16.2214172144717
0.0622752338527234,16.2224208259409
0.0699914024569637,16.2234015301038
0.0787630933072801,16.2243636073013
0.0887795897261839,16.2253119453489
0.100280388754874,16.2262521016973
0.113577004544986,16.2271907564442
0.129087825217803,16.2281363484484
0.147399410119024,16.2291002176565
0.169072382882742,16.2300856462232
0.194185232649983,16.2310755870703
0.223412934502102,16.2320811184676
0.257673478107298,16.233118306358
0.298372695961255,16.2342147604925
0.335108361433469,16.2351212643461
0.373819757469717,16.2360277681996
0.407832578970357,16.2368120383159
0.437413644640977,16.2375115887716
0.463279126571523,16.238166326392
0.485552877658256,16.2388026001812
0.503932044387639,16.2394424707307
0.517652850248256,16.2401103765892
0.525150906502001,16.2408423269676
0.523368596710113,16.2416479691718
0.510239150673585,16.2424726781775
0.484446112370328,16.2433327862893
0.444262885743702,16.244240298718
0.387761265140247,16.2452037957576
0.343212073919006,16.2458411668786
0.293860053945116,16.2464785379995
0.249912338055645,16.2470115683105
0.212273899251939,16.2474566522958
0.179223993814573,16.2478479914603
0.149627297061549,16.2482060276214
0.122801267941979,16.2485432489938
0.0982801636506278,16.248868606525
0.0756883989732255,16.2491899408779
0.0546426301029727,16.2495162294075
0.0345673661973975,16.2498624913478
0.0137532213375435,16.2502755463324
0.00218867462884066,16.2505401270593
-0.00519541168754231,16.2507274081834
-0.0119440355844926,16.2509146893074
-0.0178175055358347,16.2510933580415
-0.023825591517957,16.2512951927274
-0.0296883896562776,16.2515160882612
-0.0352198459814698,16.2517532967834
-0.0403158153179422,16.2520056908311
-0.0449210370391005,16.2522731997716
-0.0490094530624053,16.2525564853828
-0.0526351336284928,16.2528635074544
-0.0556170105190201,16.253180173321
-0.0580804941419255,16.2535175137548
-0.0600396805171966,16.2538784282691
-0.0615088361034717,16.2542663404839
-0.0625020323387884,16.2546854730164
-0.0630316295096441,16.2551410754599
-0.0631066741312252,16.2556397618344
-0.0627309567609466,16.2561900288033
-0.0618984903227762,16.2568042072956
-0.0605892367843599,16.2574986566659
-0.0587614716692415,16.258297080427
-0.0563302833249304,16.2592384610435
-0.0530975123525808,16.260402061554
-0.0490257363045175,16.2618154015456
-0.0450682900041718,16.2631789639132
-0.0412823740517412,16.26450018056
-0.0376968968944172,16.2657821129433
-0.0343266306321651,16.2670259967515
-0.0311784255421387,16.2682321425495
-0.0282539239144982,16.2694004067774
-0.0255509660441026,16.2705304395993
-0.0230644739010544,16.2716218138326
-0.0207871099576048,16.2726740879461
-0.0187098264247358,16.2736868304985
-0.0168223474020609,16.2746596206143
-0.0151135975516365,16.2755920324894
-0.0135347215833801,16.2765058947959
-0.0120141751781046,16.2774430441771
-0.010556722918566,16.2784048782675
-0.00916634328566653,16.2793934431636
-0.00784683179496645,16.2804111338837
-0.00660174714873972,16.2814607831567
-0.00543436018462811,16.2825457740921
-0.00434760061064875,16.2836701912731
-0.0033440015715892,16.2848390279392
-0.00242564171921611,16.2860584776506
-0.00159408388862485,16.2873363578681
-0.000850308485988419,16.2886827485647
-0.000194637868265881,16.2901110002601
0.000373355660065006,16.2916394198968
0.00084676590788433,16.293262059587
0.00121718007464539,16.2949283107275
0.00150133525778685,16.2966564828142
0.00171394543793722,16.2984668981089
0.00186876728732151,16.3003865063619
0.00197898716002796,16.3024530929415
0.00205778644717442,16.3047239341506
0.00211936731743652,16.3072962963196
0.00218163186748705,16.3103704465995
0.00226643801744199,16.3141037351932
0.0023793958518835,16.3180253401713
0.00252091225308802,16.3220301070992
0.00267571734293374,16.3258571671422
0.00284041723373641,16.3296140979177
0.00301304772607087,16.3333692749745
0.00319294190086525,16.3371698644497
0.00338057675490174,16.3410530621847
0.00357736272290583,16.3450513121167
0.00378545290085737,16.3491951445131
0.00400759925897364,16.3535150502074
0.00424707516172012,16.3580428371989
0.00450772139451907,16.362813017479
0.00479417987261586,16.3678642412235
0.00511239143823572,16.3732405368295
0.00544741601913811,16.3786272880975
0.00579511492530318,16.3839181599137
0.00615885532974872,16.3891254956842
0.0065411957132046,16.3942422389354
0.00694624663765044,16.3992787652388
0.0073783576350086,16.4042428925794
0.00784228481814044,16.4091416316784
0.00834311548738655,16.4139794308837
0.00888637181295941,16.4187585595961
0.00947810527145992,16.4234793210398
0.0101250269219506,16.4281406137133
0.0108400067532212,16.4327736202327
0.0116451464717908,16.4374409345527
0.0125566277095943,16.4421399536037
0.0135988519953567,16.4468914422677
0.0148075790382783,16.4517384991399
0.0162455907417258,16.456785741195
0.0180616100459372,16.4623372487121
0.0204781640720609,16.4687795365795
0.0220425048738937,16.4726137427568
0.0236444588287153,16.4764479489341
0.0250428069909255,16.4798774948726
0.0262225902802324,16.483015332983
0.0271974404082776,16.4860339305301
0.0279203844929857,16.4889211914922
0.0283773785278347,16.4917316616339
0.0285572204562372,16.4945941965394
0.0284078703842703,16.4977055316294
0.0277153676955756,16.5016645694045
0.0268732812459948,16.5046209507712
0.0258057906246789,16.507577332138
0.0247274837995944,16.510167165157
0.0236536599321609,16.5125412684116
0.0225791303437956,16.5148028345846
0.0215050114526411,16.517002456189
0.0204346128775343,16.5191693202756
0.0193716387927698,16.5213228815004
0.0183196869079747,16.5234774138533
0.0172821115367439,16.5256441431551
0.0162619895255855,16.5278324034802
0.01526211996112,16.5300503282741
0.0142850347255454,16.5323052969414
0.0133330075600151,16.5346042544788
0.0124080678991685,16.536953941321
0.011512009920338,16.5393610864766
0.0106463991859403,16.5418325813746
0.00981258946079419,16.5443756126963
0.00901172352343221,16.5469978386758
0.00823945364095476,16.5497270029107
0.00748079518622769,16.5526404512087
0.00673961452102073,16.5557592923932
0.00601974577076083,16.5591088473497
0.00532522246970083,16.5627183908505
0.00466023603088547,16.5666218873339
0.0040290537025171,16.5708590121266
0.00343588750920171,16.5754766773465
0.00288469727396056,16.5805316056513
0.00237890679762616,16.5860952362317
0.00192118255333029,16.5922615049938
0.00151513257936933,16.5991246606197
0.00117457754968966,16.6065160886529
0.00094817160304456,16.6132376554307
0.000756529109650516,16.6210118360458
0.000598655355592668,16.629761929019
0.000478255039001623,16.6391133536555
0.000390223732486393,16.6491133536555
0.000333129259189093,16.6591133536555
0.000298438417765618,16.6691133536555
0.000279989568599392,16.6791133536555
0.000273508092038583,16.6891133536555
0.000276194564433677,16.6991133536555
0.000286352540359509,16.7091133536555
0.000303102444346916,16.7191133536555
0.000326201443573171,16.7291133536555
0.000355961323318237,16.7391133536555
0.000393251985788203,16.7491133536555
0.000439590706638547,16.7591133536555
0.000497333909777196,16.7691124991511
0.000563996853990753,16.7783522413907
0.000640319143847975,16.7868646950273
0.000727463990062848,16.7947083432244
0.000826850088324168,16.8019379875152
0.000940125255728202,16.8086040921256
0.00106917290160275,16.8147532046333
0.00121613546444517,16.820428339462
0.00138344670028549,16.8256693000729
0.00157387114369783,16.830512958406
0.00179055046446211,16.8349935121651
0.00203706109993944,16.8391427269947
0.00231748416985945,16.8429901654564
0.00263649377638098,16.8465634098165
0.00299947063304616,16.8498882934482
0.00341265145434225,16.8529891519206
0.00388333288406286,16.8558891057799
0.00442015778330723,16.858610404317
0.00503353643592375,16.8611748795526
0.00573512845654504,16.8636009086292
0.00651394464539095,16.8658419252651
0.0073819865820777,16.8679387811656
0.00835853181503605,16.8699352461696
0.0094766323599482,16.8718838880302
0.0108052191627454,16.8738692669766
0.0125991384858661,16.8761678638475
0.0140923322399541,16.8778635393593
0.0157001784416081,16.8795592148712
0.0171555217298251,16.8810416234295
0.0184313126346544,16.882351816293
0.0195688667816879,16.8835797894353
0.0205750701860718,16.8847774488335
0.0214377245390924,16.8859852916473
0.0221290284027025,16.8872489534984
0.0225963257998878,16.8886414014939
0.0227146337146257,16.8903452917523
0.0222745202460917,16.8922445867236
0.0213170581365198,16.8941438816949
0.0202383307406709,16.895697779719
0.0190499625162085,16.8971651075733
0.0177470757029896,16.8986430747056
0.0163379987358518,16.900175594131
0.0153609562910261,16.9012262493134
0.0143988849276891,16.9022769044957
0.013526632895492,16.9032728863968
0.0113345132491875,16.906013612585
0.00940924851552212,16.9087916023694
0.00786074095490388,16.9113816134313
0.00656261271128155,16.9138931387316
0.00542324605018976,16.9164488355196
0.00441801612608622,16.9190771417371
0.00352919630009359,16.9218015644411
0.00275933088201015,16.9245788933565
0.00214054024366036,16.9271934768735
0.00163424387448092,16.9296700802916
0.00121084294058825,16.9320427708255
0.000848616949266841,16.934347516158
0.000531038883859288,16.9366251225964
0.000244298524608828,16.9389305583869
-2.69688089985858e-05,16.9413695935505
-0.000317716628793025,16.9443101446659
-0.00049500745166556,16.9462914493085
-0.000659791553670885,16.9482727539512
-0.000798030896127988,16.9500443626258
-0.000919114030169989,16.9516807435415
-0.00103343679734708,16.9532992425429
-0.00114840771130615,16.9549987625267
-0.00127314862735523,16.9569228644129
-0.00143029566477886,16.9594613958097
-0.00167940234367961,16.9637289781399
-0.00188053323149748,16.9673817037759
-0.00205187061073039,16.9706410027913
-0.00223373122595602,16.9742749171137
-0.00245217296499817,16.9789960193467
-0.00265760680871219,16.9842391003373
-0.00278832896288601,16.9891766989193
-0.00282098958860086,16.9932916984163
-0.00276424238644773,16.9969695424489
-0.00260717288063808,17.0004948286644
-0.00234393019736163,17.0037874358226
-0.00198137180117673,17.0067956044854
-0.00151950731244729,17.0095849918879
-0.000953171543080398,17.0122157900359
-0.000267760900858301,17.0147550652923
0.000574748031702326,17.0173070351028
0.00167183840030109,17.020068238138
0.00309613411066829,17.023096768779
0.00479208510531168,17.0262250649371
0.00666203235456448,17.0292855191119
0.00796805596019333,17.0312219458115
0.00939873856770196,17.033158372511
0.0108941299564128,17.0349805308784
0.0124257893660031,17.036644045267
0.0140821054250102,17.0382343151925
0.0158884584312357,17.0397549435463
0.0178833385586574,17.041218125699
0.0200985110248169,17.0426270842891
0.0225648807183124,17.0439831228866
0.0253197092594635,17.0452897845166
0.0283944478516431,17.0465465206179
0.0318350351450776,17.0477577579969
0.0356886779526017,17.0489260684638
0.0400095419646838,17.0500542831264
0.0448584783263051,17.0511450245736
0.0503125036334446,17.0522023296232
0.0564600983901848,17.0532297528697
0.0634071316804986,17.0542310483271
0.0712818879006296,17.0552102488398
0.0802410823803246,17.0561716805076
0.0904823447667642,17.0571204123231
0.102256856706697,17.0580622368357
0.115893618095308,17.0590041967514
0.131838739884055,17.0599553204294
0.150726248930768,17.0609279770892
0.17293508543497,17.061916455927
0.198692360628724,17.0629117183652
0.228714284333531,17.0639258432867
0.263993509480261,17.0649768003265
0.306118640496798,17.066097135112
0.341574873573275,17.0669669900816
0.378592048806743,17.0678368450512
0.411471392048097,17.0686039593838
0.440193561531305,17.0692965915969
0.465275890888614,17.0699498122366
0.486744601144785,17.0705884115643
0.504219775588879,17.0712342879347
0.516833745665239,17.0719128332634
0.522811883545803,17.0726631689277
0.519020773434157,17.0734732192873
0.503725301728973,17.0743048223977
0.475540224153138,17.075173451366
0.432710554166838,17.076090166013
0.373322273593059,17.0770637281587
0.330202194481697,17.0776649060895
0.283065816342733,17.0782660840204
0.240950034663245,17.0787754309127
0.204558843729843,17.0792071926586
0.172417003809964,17.0795907091495
0.14353595399328,17.0799440227208
0.117301088155226,17.0802785801762
0.0932781546956339,17.0806029188296
0.0711018815148101,17.0809248901046
0.0503744844997299,17.0812541037275
0.0304315450951218,17.0816082676579
0.00880528009975209,17.0820554565172
5.9923235652917e-05,17.0822637267136
-0.00788094246525996,17.0824719969099
-0.0142948545477562,17.0826571483158
-0.0202636307096259,17.0828466770187
-0.0262310086580536,17.0830573222469
-0.0319633870568561,17.0832856720274
-0.0373141323794896,17.0835297372205
-0.0422025829203526,17.0837888783627
-0.0465874328016453,17.0840633550949
-0.0504483382614512,17.0843540791144
-0.0539633836482549,17.0846826433846
-0.0566999987644779,17.0850093742488
-0.0589230162336598,17.0853578453697
-0.0606488526365032,17.0857314081063
-0.0618918476658939,17.0861338359416
-0.0626654237025492,17.0865697923673
-0.062980581656956,17.0870451053592
-0.06284418731161,17.0875671755928
-0.0622563512991945,17.088145921168
-0.0612049192300885,17.088795602168
-0.0596615528208114,17.0895352305744
-0.0575689430483899,17.0903940342363
-0.054805939582364,17.0914239450671
-0.051044104893772,17.0927507461679
-0.0470242042815206,17.094137905026
-0.0431486049877967,17.0954802547344
-0.0394607486524003,17.0967819044637
-0.0359816785972846,17.098044922252
-0.0327218792147912,17.0992700487725
-0.0296854398531783,17.1004573532901
-0.0268720054582067,17.1016065838161
-0.0242778831837526,17.1027173510942
-0.0218968004918948,17.103789222474
-0.0197205052661164,17.1048217646233
-0.017739280913288,17.105814555489
-0.0159424022996128,17.1067671765525
-0.0143185397917031,17.1076791914319
-0.0127675757173386,17.1086045668659
-0.0112775049632733,17.1095537905675
-0.00985252026153169,17.110528678443
-0.00849651606754068,17.1115314403798
-0.00721317558672074,17.1125646774443
-0.00600591979673916,17.1136314805352
-0.00487785523328552,17.1147355604622
-0.00383171960319392,17.1158814242412
-0.00286982508886291,17.11707461989
-0.00199399875621229,17.1183220861891
-0.00120551872163871,17.119632669722
-0.000505043368821399,17.1210179214353
0.000107471678976677,17.1224933884413
0.000632879602408165,17.124080851133
0.00105321560311509,17.1257229524278
0.00137931634155505,17.1274179367681
0.00162667279724134,17.129184335029
0.00180949114509823,17.1310454193718
0.00194120026255318,17.1330328338438
0.00203491647945523,17.1351925665618
0.00210418231173783,17.1375979482533
0.00216455148806521,17.1403840654088
0.00223893223952179,17.1438786955391
0.00233683230060621,17.1476526036065
0.00246890167593154,17.1517016143248
0.00261732708208592,17.15555040852
0.00277825071216288,17.1593139585677
0.00294890744402285,17.1630662149539
0.00312783407636908,17.1668568761996
0.00331485432681575,17.1707243385368
0.00351088975408189,17.1747016121164
0.00371774998962025,17.1788193948033
0.00393795829827321,17.1831080856028
0.00417463213394641,17.1875991809889
0.00443147567141143,17.1923266280013
0.00471295304733289,17.1973282874214
0.00502471288463851,17.2026471837528
0.00535839283904038,17.208076236006
0.00570231770607073,17.2133796066749
0.00606232143034024,17.2186114451822
0.00643980641196846,17.2237477385102
0.00683907259957433,17.2288029395857
0.00726428778118143,17.233783775531
0.00772015090441136,17.2386980879562
0.00821163791967957,17.2435507120007
0.00874414883445423,17.248344406127
0.00932358256667015,17.2530798433481
0.00995646765015227,17.2577561785357
0.0106513546406849,17.2623796094056
0.0114332912636736,17.2670410117675
0.0123165167347062,17.2717304530637
0.0133237098258344,17.2764662508716
0.0144868507279999,17.2812831987519
0.0158594266176941,17.2862645602301
0.0175565401450331,17.2916362093446
0.0199680545284157,17.2982512595835
0.0215881553404862,17.3022824138171
0.0232687550548151,17.3063135680507
0.024729422369091,17.3098575692936
0.0259591261749776,17.3130476404579
0.0269831933389021,17.3160817663345
0.0277705077432727,17.3190047290872
0.0282912310426528,17.321822844229
0.0285399870310228,17.3246593075397
0.0284782250052374,17.3276841415029
0.0279629350115195,17.331312644811
0.0271540223242199,17.334486059541
0.026067685723972,17.337659474271
0.0249812915322195,17.3403411028872
0.0239066627603136,17.3427551554678
0.0228323206797078,17.3450376283674
0.0217578360883481,17.3472487716808
0.0206862194594975,17.3494213871468
0.0196211496971572,17.3515766786466
0.0185662687721371,17.3537298988832
0.0175249938584709,17.355892865954
0.0165004677506693,17.3580752878703
0.0154955549000534,17.3602855345473
0.0145128489470252,17.3625311330158
0.0135546832411493,17.3648191091104
0.0126231453188909,17.3671562308236
0.0117200826035031,17.3695492189093
0.0108471144118485,17.3720049119739
0.0100056440326757,17.3745304138292
0.00919686288467334,17.3771332597487
0.00842176415313809,17.3798215615551
0.00765945420254202,17.3826892867819
0.00691373529485653,17.3857568662848
0.00618838889821114,17.3890487714197
0.00548740403474664,17.3925932656712
0.00481494007220599,17.3964231061035
0.00417525480220744,17.4005764845278
0.00357258821170027,17.4050983869529
0.00301098116699039,17.4100428468388
0.00249401067580374,17.4154771482281
0.00202453405080992,17.4214889121934
0.00160461598664785,17.4281959781659
0.00124885938978104,17.4354517097931
0.000965673675876488,17.4433138174206
0.000768949542909598,17.4510589419912
0.000613240284068447,17.4594165475031
0.000488465386947709,17.4686820238984
0.000395706161826279,17.4786820238984
0.000334981165235895,17.4886820238984
0.000297452848198792,17.4986820238984
0.000276710208386932,17.5086820238984
0.000268260659518471,17.5186820238984
0.000269122827737171,17.5286820238984
0.000277450703366321,17.5386820238984
0.000292233985755992,17.5486820238984
0.000313100491046654,17.5586820238984
0.000340215454269883,17.5686820238985
0.000374263797399589,17.5786820238985
0.000416510721291149,17.5886820238985
0.000468954643448425,17.5986820238985
0.00053126752550847,17.6082163891669
0.00060278671808077,17.6170122092157
0.00068450302574416,17.6251175138
0.000777725786132777,17.6325882432571
0.000883995918918954,17.6394763032765
0.00100508145493956,17.6458295616424
0.00114299545580752,17.6516922366384
0.00130002457250889,17.6571052355599
0.00147876522194386,17.6621064430398
0.00168216586224209,17.666730981978
0.00191357908908449,17.6710114569577
0.00217682412131165,17.6749781846068
0.00247626567278469,17.678659412998
0.00281691260671967,17.6820815432794
0.00320454735950851,17.6852693652661
0.00364589862833094,17.6882463164007
0.00414887904949377,17.6910347832399
0.00472292710960941,17.6936564828621
0.00537952024202439,17.6961329844359
0.00611817900799948,17.698444218344
0.00693897428496912,17.7005909726384
0.00785667467621496,17.7026143054502
0.00889526899831227,17.7045595580176
0.0100988452973109,17.7064873849126
0.0115723827898813,17.7085151532501
0.0137900452888327,17.7111246669092
0.0152145570821936,17.7126304994786
0.0167067606686563,17.7141363320481
0.0180616643449614,17.7154909669866
0.01926908771013,17.7167367170569
0.0203445692057145,17.717933286688
0.0212827890809593,17.7191232356114
0.0220628755698145,17.7203479479791
0.0226448661620728,17.7216643725014
0.022946370318604,17.7231872335211
0.0226687669597024,17.725388484396
0.0219818555021653,17.7269984076929
0.0209714467251491,17.7286083309898
0.0198354298841277,17.7300832529328
0.018578225851589,17.7315431019974
0.0172080672470771,17.7330412213506
0.015734328935351,17.7346142430073
0.0152052717616475,17.7351783259514
0.0146845757491277,17.7357424088955
0.0125044473885348,17.7382814685642
0.0103381775911455,17.7411721837187
0.00860352715981993,17.7438616799639
0.00720418420186033,17.7463736582907
0.00598776100446611,17.7489004654969
0.00491686123296656,17.751486879604
0.00397118067203257,17.7541573712379
0.0031346967299737,17.7569353429581
0.00243733688797392,17.7596607000296
0.00187419893307388,17.7622287966682
0.00141026999013735,17.764669256423
0.00101942249760405,17.7670169652849
0.000682668321080003,17.7693069494839
0.000385668132918583,17.7715772362185
0.000116205120227834,17.7738801656507
-0.000140344414005109,17.7763251925609
-0.000421483792153673,17.7793323067922
-0.000584577220257073,17.7812529492534
-0.000736969229225906,17.7831735917145
-0.000866776784638683,17.7849095334147
-0.000981890489611855,17.7865274315553
-0.0010915708331877,17.7881377732606
-0.00120286934867991,17.7898397137546
-0.0013251566943469,17.7917863816606
-0.00148408401244784,17.7944305598425
-0.00171499340310206,17.7984838864185
-0.00189854768542231,17.8018740483399
-0.0020608028164478,17.8049953370733
-0.00223617910008348,17.8085216535737
-0.00244735498730858,17.813076101545
-0.002657519954661,17.8183343887062
-0.00279801883520959,17.8233391404821
-0.00284096828782908,17.8275304756466
-0.00279443445796763,17.8312429631902
-0.00264972253379754,17.8347753524276
-0.00239833653370599,17.8380960623601
-0.00204735098464494,17.8411272207043
-0.00159670040413768,17.8439366740505
-0.00104258997753686,17.846579357076
-0.00037210903880453,17.8491199451873
0.00045127823200308,17.8516632562729
0.00150680861472776,17.8543674822464
0.002893732894425,17.8573621760296
0.00457888969840138,17.8605060525432
0.00643413067188403,17.8635730019044
0.00774757006749209,17.8655433628953
0.00918355073646402,17.8675137238862
0.0106637711072498,17.869346112446
0.0121945678740578,17.8710383289893
0.0138280709810433,17.872636541239
0.0156088525274335,17.8741661967305
0.0175723046367071,17.8756370085118
0.0197507072263312,17.8770530094467
0.0221761846255353,17.8784163984116
0.0248849342710608,17.8797302034134
0.0279074583438624,17.8809935807944
0.0312896124695078,17.8822112264322
0.0350772197665523,17.8833854854066
0.0393225648530163,17.8845189776341
0.0440860212250314,17.8856145711537
0.0494422975077076,17.8866761734464
0.0554774144682255,17.8877072965082
0.0622941434459141,17.8887116507189
0.0700163619122893,17.8896931628344
0.0787960046823215,17.8906561494271
0.0888231404492831,17.8916055279116
0.100338518447929,17.8925469028995
0.113655715532228,17.8934870278277
0.129196699972844,17.8944344602112
0.147554730589369,17.89540074724
0.169259668309865,17.8963876838561
0.194414235907817,17.8973795462291
0.223699393793703,17.8983876254484
0.258044604347722,17.8994283630472
0.298883727636838,17.9005302330509
0.335334397710365,17.9014321057516
0.37368740970415,17.9023339784523
0.407472626690047,17.903117244482
0.43688520429708,17.9038173600884
0.462599500525311,17.9044733186294
0.484721963378306,17.9051111895771
0.502938864881538,17.9057529605757
0.516474959756188,17.9064230863764
0.523747953436019,17.907157657172
0.52170035463433,17.9079647802233
0.50830451159955,17.9087910208532
0.482240025288095,17.9096525321599
0.441786119584634,17.9105611363474
0.38502897534748,17.9115254362299
0.340803848871816,17.9121570287376
0.291904614366987,17.9127886212452
0.248321322934651,17.913318009997
0.210930987679079,17.9137611800677
0.17806181367528,17.9141514969075
0.148607435074971,17.9145089945611
0.121898948049397,17.9148459866794
0.0974773300669851,17.9151713526248
0.0749700532273182,17.9154929241963
0.0539934131734125,17.9158197495631
0.0339631439998904,17.9161671561267
0.0130968389958056,17.916584104399
0.00203276315814585,17.9168387404589
-0.00532946004682123,17.9170261638595
-0.0120578270574698,17.9172135872602
-0.0179330240039606,17.9173930177272
-0.0239351336031403,17.917595521468
-0.0297869931465588,17.9178170267955
-0.0353048438893277,17.9180548228906
-0.0403859256963472,17.9183078069613
-0.0449758030184289,17.918575925592
-0.0490489127238481,17.9188598539296
-0.0527251973026214,17.9191739710124
-0.0556817096053622,17.9194918814149
-0.0581197999871713,17.9198305025059
-0.0600545186655712,17.9201928447246
-0.0615001392859023,17.9205823644561
-0.0624706641849849,17.921003323856
-0.0629783204315097,17.9214610234817
-0.0630319516007962,17.9219621453683
-0.0626350573296292,17.9225152807177
-0.0617810766391547,17.9231329764336
-0.0604493032958847,17.9238317754722
-0.0585968311238326,17.9246358052302
-0.0561361973497986,17.9255849771167
-0.0528612520039865,17.9267614563678
-0.0487958804843672,17.9281719534438
-0.0448477988844525,17.9295332604607
-0.0410730621877304,17.93085233904
-0.0374997186143535,17.9321321626769
-0.0341420711156167,17.9333739256145
-0.0310066634827729,17.9345779200394
-0.028094911318989,17.9357439958764
-0.0254044769263474,17.9368718027227
-0.0229301406583214,17.9379609155423
-0.0206644543614494,17.9390108957887
-0.0185982875613152,17.9400213146784
-0.0167213071636631,17.940991752884
-0.0150224036249944,17.9419217844648
-0.0134465333934204,17.9428370078159
-0.0119292973887488,17.943775581207
-0.0104753906059406,17.9447389518496
-0.00908878196526869,17.9457291845759
-0.00777325393485691,17.9467486979129
-0.00653234904017432,17.9478003539378
-0.00536931865527005,17.9488875728708
-0.00428706958001331,17.950014486932
-0.00328810842421948,17.9511861516179
-0.00237448343820691,17.9524088436369
-0.00154772283618756,17.9536904944744
-0.000808767615648499,17.9550413456715
-0.000157894960951108,17.9564749863408
0.000405375543175542,17.9580100951586
0.000872696953045966,17.9596348423976
0.00123808918353344,17.9613042703839
0.00151813022947905,17.9630366779424
0.00172747461323527,17.9648527036842
0.00187984042665344,17.9667797905442
0.00198840536262359,17.9688565680458
0.00206638977450021,17.9711419129173
0.00212813517421361,17.973736659785
0.00219199876267603,17.9768517568001
0.0022787695241002,17.9805854874456
0.00239489969778568,17.9845310569702
0.00253841426243237,17.9885261066918
0.00269488261974431,17.9923485390104
0.00286103187229179,17.9961041405059
0.00303500598292,17.9998600965061
0.00321623485262024,18.0036630248636
0.00340527636252524,18.0075498546389
0.00360360760850603,18.0115528992816
0.00381343830110967,18.0157026443192
0.00403757170440175,18.020029590059
0.00427933385753855,18.0245655989115
0.00454262936007483,18.0293452861595
0.00483218800059995,18.0344074443017
0.00515408078025933,18.0397962753873
0.00549114077164661,18.0451630261442
0.00584175599834564,18.0504442730123
0.00620850619645454,18.0556389150358
0.00659432571691858,18.0607449777095
0.00700328833782513,18.0657714365132
0.00743983103530515,18.0707263312885
0.00790876550566644,18.0756163325601
0.00841525642024331,18.0804456908749
0.00896491201114914,18.0852164609724
0.00956388373887414,18.0899287765825
0.0102189977738392,18.0945814253431
0.0109456725886266,18.0992197250036
0.0117643095164987,18.1038904847156
0.0126922356891331,18.1085952285398
0.0137549467049631,18.113356450145
0.0149906500114087,18.1182226895822
0.0164684851924906,18.1233132204773
0.018362857841588,18.1289918990352
0.0207809960081507,18.1353382402105
0.0223199928012537,18.139082109227
0.0238836335668302,18.1428259782435
0.0252440411151973,18.1461924589837
0.0263911313128578,18.149301246271
0.0273326576894696,18.152313665024
0.0280124475260988,18.1551809767776
0.0284259994974265,18.1579903696085
0.0285576987792095,18.1608763414738
0.0283439519583431,18.1640606684792
0.0274877871053265,18.168360465816
0.0266200397406966,18.17117845737
0.025559646677924,18.173996448924
0.0244849946696984,18.176519424938
0.0234113307773711,18.1788613421052
0.0223367025908685,18.1811054558121
0.0212631349788976,18.1832954848359
0.0201941190114244,18.185457766767
0.0191333593765496,18.1876103095258
0.0180844057258668,18.1897665571245
0.01705055147658,18.1919372254207
0.0160348109861312,18.1941313234785
0.0150399222769186,18.1963567770384
0.0140683589544841,18.1986208363792
0.0131223389876479,18.2009303749316
0.0122038378267267,18.2032921076067
0.0113145988976923,18.2057127722906
0.0104561381738414,18.2081993046758
0.00962976198410902,18.2107589666027
0.00883656805428598,18.2133995220923
0.00806703193733749,18.2161684517118
0.00731197839331143,18.2191260931125
0.00657524777221525,18.2222945128927
0.00586072329378778,18.2256998559861
0.00517247826081196,18.2293723800197
0.00451473000102505,18.2333472264295
0.00389174695334965,18.2376655307851
0.00330770247678419,18.2423761344542
0.00276646642243516,18.2475384775871
0.00227130208294534,18.253228267123
0.00182469081740175,18.259545846994
0.00143379388622081,18.266517715461
0.00119237476251668,18.271873938468
0.00100151991154003,18.2772301614749
0.000806519243566679,18.2844873760274
0.000640001003953663,18.2928759155531
0.000508076612134297,18.3020813007366
0.000409002137960942,18.3120813007366
0.000343808082424026,18.3220813007366
0.000303130467553162,18.3320813007366
0.000280187687006031,18.3420813007366
0.000270206228144576,18.3520813007366
0.000269995282302214,18.3620813007366
0.000277558840259926,18.3720813007366
0.000291781589515543,18.3820813007366
0.000312216922136086,18.3920813007366
0.00033897444133651,18.4020813007366
0.000372693298822524,18.4120813007366
0.000414595517822119,18.4220813007366
0.00046663156379344,18.4320813007366
0.000528852465039851,18.441673788301
0.000600326573857078,18.4505241307132
0.000682020100501789,18.4586785769021
0.000775235336336829,18.466193596128
0.000881511055508053,18.4731216346681
0.00100261542827493,18.4795110363755
0.00114056288644853,18.4854064407062
0.00129764237672511,18.4908491312682
0.00147645353810912,18.4958773315632
0.00167994919261627,18.5005264714062
0.00191148759347663,18.5048294351101
0.00217489536233663,18.5088167965131
0.00247454691325642,18.51251704253
0.00281546384549932,18.5159567985715
0.00320344574606379,18.5191610684912
0.00364524474296732,18.5221534992136
0.00414880645841192,18.5249566893772
0.0047236174085227,18.5275925812018
0.00538122785880289,18.5300829991145
0.00612099477074835,18.5324072109839
0.0069434551091,18.5345673608941
0.00786379683017978,18.5366052416834
0.0089068808203314,18.5385674728568
0.0101190800318374,18.5405177032348
0.0116142089906882,18.5425838999116
0.0133930264167918,18.5447194266883
0.0148431656993139,18.5462966513229
0.016373337384725,18.5478738759575
0.0177413632260046,18.5492626032731
0.0189556782377362,18.5505278683298
0.0200379362915279,18.5517364865405
0.020985324811339,18.5529327359339
0.0217791215295316,18.5541574592468
0.0223828410751172,18.5554641676457
0.022723568367963,18.5569542024029
0.0225734019933837,18.5589817219184
0.021951172097007,18.5606656282023
0.0209616513253023,18.5623495344863
0.0198508071583916,18.5638461497714
0.0186213836716839,18.5653092815522
0.0172791749988431,18.5668017248936
0.0158336879637316,18.5683614977577
0.0149365597345105,18.569326235381
0.0140671263297771,18.5702909730043
0.0118839523144479,18.5729298539558
0.00984824789526336,18.575758667611
0.00821320941662267,18.5783946378261
0.00686969606464874,18.5809002975101
0.00569300841796741,18.583441366068
0.00465565935421657,18.5860489210206
0.00373884188678088,18.5887466980858
0.00292733499229205,18.5915582820705
0.00227726601008336,18.594202681391
0.00174801723578751,18.5967007255909
0.00130790851153969,18.5990849707985
0.000933683059200485,18.6013901037602
0.000607963616086367,18.6036536230192
0.000316858503378597,18.6059219939949
4.67602192892564e-05,18.6082730121001
-0.000224671919445289,18.6109154386675
-0.000430996228410634,18.6131382433059
-0.000620574130009759,18.6153610479442
-0.000768334121711903,18.6172214687946
-0.000892447297534485,18.6188741329551
-0.00100702340654539,18.6204739583859
-0.00111995894610601,18.6221206330669
-0.00123913152796752,18.6239323756098
-0.00137964676161193,18.6261634842711
-0.00163717936461382,18.6305009852701
-0.0018685754845008,18.6346545784529
-0.00205725716649199,18.6382197493948
-0.00224694386589663,18.6419917438834
-0.00247402726303685,18.6468823663955
-0.00267972035049494,18.6521283166684
-0.00280986343960584,18.6570570914189
-0.0028417188460923,18.6611548756767
-0.00278420803988156,18.6648246496764
-0.00262587125273089,18.6683488419922
-0.00236197051973666,18.6716292522905
-0.00199933368950043,18.6746242928346
-0.00153753962563609,18.6774029614898
-0.000970976265120163,18.6800259428163
-0.000283651940231852,18.6825633549147
0.000561810992018586,18.6851145784072
0.00167169165781749,18.6878961749175
0.00310241371035635,18.6909275625114
0.00479875041722325,18.6940536913876
0.00666424278453475,18.6971137709045
0.00799387579039886,18.6990909769597
0.00945163163102659,18.7010681830149
0.0109415995877674,18.7028858704445
0.0124683694424622,18.7045451836999
0.0141322860505303,18.7061427419693
0.0159308768685381,18.7076558112619
0.0179264690664472,18.7091181805634
0.0201393910934207,18.7105239217836
0.0226071037358517,18.7118786472537
0.0253642378982443,18.7131840720328
0.0284414121373787,18.714439304097
0.0318854358101189,18.7156491647528
0.0357431526977667,18.7168160836347
0.040068682719908,18.7179428881595
0.0449227512442086,18.7190321803691
0.0503823785804331,18.7200880059187
0.0565359881553693,18.7211139135088
0.0634893417170802,18.722113644599
0.0713705259980125,18.7230912118108
0.0803359551578086,18.7240509169235
0.0905825754699564,18.7249977780809
0.102360419759751,18.7259375211396
0.115996364088588,18.7268770845648
0.13193243427691,18.7278253245503
0.150794339120016,18.7287943051752
0.173002793232885,18.729780265451
0.19875282723166,18.7307724460483
0.22875315981679,18.7317826109606
0.263980930127936,18.7328281661503
0.305984448221354,18.7339403461595
0.34173653184753,18.7348124054625
0.379127095310455,18.7356844647654
0.412309597926463,18.7364516400053
0.441272310332524,18.7371427134945
0.466575608060339,18.7377936343681
0.488267386468509,18.7384295105507
0.505982121219622,18.7390723330569
0.518867384279693,18.7397475042043
0.525170924043491,18.740494169054
0.521740321996855,18.7413018624112
0.50680091987094,18.742131182227
0.478968883315185,18.7429978786346
0.43647490884128,18.7439132597442
0.377381756121887,18.7448859308149
0.33377774069535,18.745494814246
0.285991478718495,18.7461036976771
0.243348707526697,18.7466179729956
0.206590672787877,18.7470523561611
0.17417648876049,18.7474372716296
0.145078591809022,18.7477912993565
0.118663548346673,18.7481261199486
0.0944876967240453,18.7484503636135
0.0721816914191944,18.7487718798438
0.0513493613503779,18.7491001374096
0.0313444389777846,18.7494522302062
0.00988364911867882,18.749890864638
0.000683433045615542,18.7501072800424
-0.0076408064019033,18.7503236954467
-0.0141083102147964,18.7505091405553
-0.0200806659656601,18.7506974743316
-0.0260617896447332,18.7509070293726
-0.031814726872472,18.7511343644673
-0.0371896015713641,18.7513774363619
-0.0421037915163762,18.7516355685439
-0.0465148190911211,18.7519089938699
-0.0504028838164891,18.7521986023156
-0.0540051265743277,18.7525320115814
-0.0567578958870819,18.752857924254
-0.0589954394824712,18.753205421315
-0.0607349865573708,18.7535779218025
-0.061990929651217,18.7539791845344
-0.0627767631726801,18.7544138538054
-0.0631035838796575,18.7548877333613
-0.0629783776211274,18.7554081923024
-0.0624014545489632,18.7559850704291
-0.0613608855403742,18.7566325832912
-0.0598286239181054,18.757369633485
-0.0577478703646912,18.7582252442607
-0.0549986850349114,18.7592508563023
-0.0512576452072854,18.7605703045526
-0.0472299930022071,18.7619591941769
-0.0433448612743883,18.7633032425165
-0.0396465407083997,18.7646066105506
-0.036156504766125,18.7658713884587
-0.0328855101476459,18.7670983242643
-0.0298378481734996,18.7682874871962
-0.027013325682421,18.7694386217741
-0.0244083822857828,18.7705513339189
-0.0220168523542421,18.7716251860434
-0.019830566887358,18.7726597405251
-0.0178398700375191,18.7736545721914
-0.0160340766693304,18.7746092609709
-0.0144018783679935,18.775523370834
-0.012848323163001,18.7764475445803
-0.011355409805758,18.7773955073879
-0.00992738785300252,18.778369032101
-0.00856816109056068,18.7793703109599
-0.0072814251222028,18.780401922871
-0.00607061613727596,18.7814669309461
-0.00493885883682542,18.7825690106598
-0.00388891220330562,18.7837126233481
-0.00292311300110086,18.7849032568029
-0.0020433164616966,18.7861477684946
-0.00125083287716325,18.7874548919926
-0.000546357520702506,18.7888360153697
7.01111501962151e-05,18.7903064399034
0.000599375236399503,18.7918875516639
0.00102450830324227,18.7935274548831
0.00135451773672731,18.7952192622939
0.00160500274795583,18.7969814476368
0.00179021044105343,18.7988369477132
0.00192358799565008,18.8008168630293
0.00201823628212092,18.802966213158
0.00208762178015676,18.8053563751407
0.00214707390720056,18.8081175896825
0.00221867806827526,18.811559424503
0.0023137372771263,18.8153250248441
0.0024460529803419,18.8194644562817
0.00259479568030339,18.8233740681921
0.00275490044569541,18.8271587457841
0.00292375595819038,18.8309079780144
0.00310003430197203,18.834678509592
0.00328364438989277,18.8385120907976
0.00347553772916234,18.8424433241798
0.00367750139731044,18.8465034975419
0.00389198999033747,18.8507229319141
0.00412200847315315,18.8551325471055
0.00437108425639684,18.8597651796612
0.00464339305218833,18.8646570381235
0.00494410063987845,18.869849016451
0.00527673490919092,18.8753344390061
0.00561598588298281,18.8806409236985
0.0059722662591297,18.8859024313795
0.00634472078029954,18.8910610466618
0.00673799972375881,18.8961382534904
0.00715595390498856,18.9011378753481
0.00760326505101349,18.9060690820082
0.00808481535176637,18.9109372108145
0.00860591518544773,18.9157457776265
0.00917233682579056,18.9204960158757
0.00979044671555477,18.9251874830865
0.0104673411115317,18.92981865148
0.0112252927331539,18.9344710261971
0.0120802533249912,18.9391518939108
0.0130526872768451,18.9438734458878
0.0141714486442826,18.9486641657024
0.015482534716279,18.953590203654
0.0170771443033547,18.9588219287406
0.0192389213421872,18.9649778862361
0.0209750117826934,18.9694138564963
0.0228102657858715,18.9738498267566
0.0243572955513695,18.9775715123906
0.0256466393180402,18.980836784143
0.0267263417540881,18.9838982345693
0.0275871583371646,18.986870796663
0.0281791077451369,18.9897060259687
0.0285027143109291,18.9925240663231
0.0285312096266114,18.9954751834057
0.0281672852842342,18.9988603507029
0.0273874768306494,19.0023226433507
0.0262596585776194,19.0057849359984
0.0251598314182235,19.008559511951
0.0240836094200327,19.011006806785
0.023009366699279,19.0133055670469
0.0219347379491749,19.015525621607
0.0208624107326248,19.0177028046227
0.0197960252626434,19.0198596971781
0.0187392493778241,19.0220123022036
0.0176955422913027,19.0241728866082
0.016668092840918,19.0263514381915
0.0156598112680047,19.0285565031826
0.0146733343992703,19.0307957187432
0.0137110384230474,19.0330761686917
0.0127750499854493,19.0354046462171
0.0118672543680078,19.0377878658001
0.0109893104444949,19.0402326234798
0.0101426534155146,19.0427459713063
0.0093285109453081,19.0453353497653
0.00854790656358004,19.0480087608293
0.0077833077810412,19.0508459496959
0.00703465737145227,19.0538795326729
0.00630575452518577,19.057133235795
0.00560055834287132,19.0606346596062
0.00492320447980279,19.0644157809437
0.0042779414040896,19.068513840609
0.00366902327540774,19.0729726101463
0.00310054092359434,19.0778444463087
0.00257616798166154,19.0831941027629
0.00209889182888573,19.0891053360473
0.00167090004230706,19.0956904347684
0.00130473213633966,19.1028563398807
0.00100888285434749,19.1106106036156
0.000786316922874124,19.1189707596157
0.000634934854235207,19.1268362320893
0.000503088281900759,19.1362222276816
0.000406494201264232,19.1462222276816
0.00034310189990959,19.1562222276816
0.000303789011852228,19.1662222276816
0.000281933390698415,19.1762222276816
0.000272872071237966,19.1862222276816
0.000273496664255137,19.1962222276816
0.000281877724631152,19.2062222276816
0.000296958751379823,19.2162222276816
0.000318350996023354,19.2262222276816
0.000346228075514286,19.2362222276817
0.000381307988380434,19.2462222276817
0.000424918434154444,19.2562222276817
0.000479160732274621,19.2662222276817
0.000543139871083754,19.2756751918764
0.000616539269749829,19.2843918071942
0.00070039900844316,19.2924231925437
0.000796066433939594,19.299825169385
0.000905122847994944,19.3066494092859
0.00102938155834836,19.3129435537495
0.00117090733919708,19.3187516069699
0.00133204619912741,19.3241142741621
0.00151546289603063,19.329069250424
0.0017241847719509,19.3336514836983
0.00196165626290322,19.3378934207695
0.0022318043353831,19.3418252400837
0.00253912154689805,19.3454750747715
0.00288877080771519,19.3488692403894
0.00328672330575366,19.3520324793729
0.00373994443637164,19.3549882326635
0.00425665183585093,19.3577589617612
0.00484669072290457,19.3603665643408
0.00552210511274352,19.3628329548901
0.0062773247706444,19.3651235691099
0.00711772772510115,19.3672580912001
0.00806004276100621,19.3692790532941
0.00913208295988854,19.3712351292162
0.0103879414651847,19.3731970393156
0.0119824444107618,19.3753362217055
0.0136019152033928,19.3772424340875
0.0153804144219288,19.3791486464696
0.01689942217107,19.3807012042867
0.0182054774969312,19.3820363667747
0.0193672565889016,19.3832749795045
0.0203981198383987,19.3844751194771
0.0212888022235855,19.3856780275243
0.0220146447507154,19.3869271984654
0.0225291534529034,19.388287703496
0.0227296440757431,19.389906528433
0.022195931857663,19.392367394138
0.021404719057906,19.3939185885034
0.020348390406622,19.3954697828688
0.0191730515263911,19.3969374139876
0.0178811854681202,19.3984118967368
0.0164820461985413,19.399937461986
0.0152896591532582,19.4012200505558
0.0141244923587874,19.4025026391256
0.0130290605513352,19.4037802391204
0.0108659201974537,19.4065696211668
0.00903362365611086,19.4093026419348
0.00755590624334764,19.4118554751189
0.0062956751323596,19.4143737522446
0.0051877487847758,19.4169434631333
0.0042096654282618,19.4195910672566
0.00334453780690011,19.4223399793394
0.00261244713121041,19.425075692117
0.00202175986175932,19.4276535832425
0.00153615577471829,19.4301005765942
0.00112809229249647,19.4324507792697
0.000777207685370837,19.4347407586238
0.0004678777944152,19.4370125236914
0.000186553103065777,19.439326000653
-8.33624549932232e-05,19.4418073997289
-0.000389899029493149,19.4449891721407
-0.000553589448390523,19.4468675096106
-0.000706611215911784,19.4487458470806
-0.000837787330436998,19.4504543972147
-0.000955765212370998,19.4520705223766
-0.00106932979772105,19.4536978595543
-0.00118584877645396,19.4554401411873
-0.00131629133977493,19.4574760016312
-0.00149770764580411,19.4604507350072
-0.00170369390934712,19.4640174239514
-0.00186940150996055,19.4670255104034
-0.00202692910358412,19.4700008945404
-0.00220021946592777,19.4734224150605
-0.00240712082901367,19.477792754843
-0.00262440510546507,19.4830617303532
-0.00277520624836041,19.4881228686837
-0.00282826106859076,19.4923793578646
-0.00279157370500052,19.4961213435489
-0.00265874716668133,19.49966098251
-0.00241787124894635,19.50302634627
-0.00207768081767964,19.5060867545897
-0.00163833164927218,19.5089175068405
-0.0010958938011093,19.5115780277929
-0.000437543543649507,19.5141344834786
0.000370371234464123,19.5166853924599
0.00139849098029055,19.5193740069721
0.00275678335469882,19.5223629437468
0.00441829437678091,19.5255145087099
0.00624683264352722,19.5285843336792
0.0075821007709031,19.5306176267672
0.00904317957574415,19.5326509198551
0.0105007704464752,19.5344807811588
0.0120261936494426,19.5361921882647
0.0136424452262055,19.5377974913962
0.0154036621234922,19.5393339969011
0.0173458381930461,19.5408121113678
0.0194982568526688,19.5422339193504
0.0218959575658402,19.5436038161221
0.024572746716991,19.5449235378717
0.0275596349749332,19.5461926687069
0.0309014016657367,19.5474156871433
0.0346431204699529,19.5485949170732
0.0388343644875702,19.5497324939613
0.0435381326283029,19.550832279586
0.0488262687079727,19.5518977096589
0.0547831658045306,19.5529322718938
0.0615096283388773,19.5539396614355
0.0691262563643906,19.5549236871927
0.0777829277227838,19.5558887959247
0.0876647819788471,19.556839781213
0.0990064345208328,19.5577821630133
0.112112698358681,19.5587225676132
0.127392053890855,19.5596693311163
0.145417000748634,19.560633682886
0.166788136586846,19.561621169391
0.191547882845029,19.5626126915527
0.220358827656078,19.5636192177063
0.254119602304359,19.5646565625781
0.294193133869829,19.5657514884547
0.340176742060591,19.5668914572632
0.379573174586537,19.5678153419141
0.41259884960754,19.5685838313745
0.441300848437156,19.5692746097082
0.466356399874392,19.5699263601625
0.487793810009253,19.5705639690633
0.505226545050392,19.5712093780005
0.517774637144157,19.57188818863
0.523632516171209,19.572640189012
0.519651084072987,19.5734498366246
0.504131195487533,19.5742815457773
0.475675522046711,19.5751507710322
0.432516643837264,19.5760685306946
0.372730360419812,19.5770435796194
0.329622383389363,19.5776422109427
0.282551340896425,19.5782408422661
0.240496253315754,19.5787484193871
0.204144665817081,19.5791790717128
0.172030521252508,19.5795618463076
0.143170888719414,19.5799146385055
0.116953461396394,19.580248830169
0.0929446581329567,19.5805729348932
0.0707786418255428,19.5808948137676
0.0500548718716493,19.5812241454476
0.0300978405621718,19.5815789282642
0.00833896601635982,19.5820299376043
-0.00022508609890808,19.5822344834214
-0.00801290222384732,19.5824390292385
-0.0144050176190381,19.5826236490709
-0.0203792780779079,19.5828134638045
-0.0263474013348933,19.5830243157069
-0.0320771201509305,19.583252812525
-0.0374232074821075,19.5834969959981
-0.0423058374604439,19.5837562462921
-0.046684202395698,19.5840308361208
-0.0505383505758794,19.5843216869492
-0.0540499465299521,19.5846508220593
-0.0567790449388225,19.5849777663751
-0.058994546207488,19.5853264884828
-0.0607129481647751,19.5857003561514
-0.0619486023970053,19.5861031570528
-0.0627149146346508,19.5865395730484
-0.0630228384111777,19.5870154568659
-0.062879153711757,19.5875382438077
-0.0622837964690671,19.5881179259145
-0.0612243621917063,19.5887688285505
-0.0596721002414066,19.5895101060633
-0.0575688822179161,19.5903712684478
-0.054791497179295,19.5914049615841
-0.0510029591561941,19.5927399565117
-0.0469835054537663,19.594126361225
-0.0431094477078315,19.5954681085138
-0.0394236184546048,19.5967692476137
-0.0359468161802789,19.5980318035636
-0.03268939793579,19.5992564937157
-0.0296553769047357,19.6004433746363
-0.0268443470547215,19.6015921873811
-0.0242525791162443,19.6027025388882
-0.0218737737497038,19.603773994426
-0.0196996592963719,19.6048061194884
-0.017720505471664,19.6057984912648
-0.015925578357216,19.6067506905844
-0.0143035437272968,19.6076622803085
-0.0127532738634129,19.6085878853069
-0.0112639506504932,19.6095373509123
-0.00983975561230189,19.6105125014372
-0.00848458148096158,19.6115155501668
-0.00720210925055638,19.6125491024733
-0.00599575725140878,19.6136162546872
-0.00486862892470132,19.6147207245568
-0.00382345843089409,19.615867028097
-0.0028625539513583,19.6170607252202
-0.00198773810030125,19.6183087707996
-0.00120028409196825,19.6196200338282
-0.000500844951787804,19.6210060976098
0.000110629528336863,19.6224825581964
0.000634998903047629,19.6240712746777
0.00105410578522674,19.6257138051043
0.00137914490443894,19.6274094124144
0.0016255824034527,19.6291766391804
0.00180761182369356,19.6310388242023
0.00193865229593897,19.6330277199445
0.00203181430459089,19.6351895084369
0.00210064123391177,19.6375979135959
0.0021607054756912,19.6403890057699
0.00223502002170022,19.6438943336145
0.00233278676976518,19.6476699761497
0.00246568242373103,19.6517474366567
0.00261449539355078,19.6556088647031
0.00277538036369943,19.6593763374474
0.00294565051416327,19.6631271808321
0.00312391564275113,19.6669125672901
0.00331005470499147,19.6707716002667
0.00350502258023522,19.6747376217956
0.00371064111364329,19.6788414406709
0.00392942770007437,19.6831134191153
0.00416447788177762,19.6875849017395
0.00441945429800789,19.6922895550648
0.00469875009535154,19.6972648364704
0.0050078939762992,19.7025532509913
0.00534137848297873,19.7079954307336
0.00568426047163051,19.7132994267651
0.00604344359756376,19.7185378350296
0.00641981248988021,19.7236789533476
0.006817751837069,19.7287388746893
0.00724136098376096,19.7337237085709
0.0076953374167809,19.738641606617
0.00818463748731772,19.743497517526
0.00871464283991765,19.748294370412
0.00929122542271975,19.7530329599217
0.00992087881740115,19.7577125256193
0.0106112393691026,19.7623338072633
0.0113879816460114,19.766993920762
0.0122649314752461,19.7716813219673
0.0132644181835579,19.7764138816614
0.0144176668242084,19.7812247544858
0.0157763838559297,19.7861931326465
0.0174497315513786,19.7915310886647
0.0198397560070129,19.7981336333666
0.0214775413156268,19.8022263329313
0.0231820427657264,19.806319032496
0.0246580648489235,19.8098931712743
0.0258991882061387,19.8130965595574
0.0269341919155913,19.8161352186914
0.0277358998575824,19.8190671497168
0.0282706994302141,19.8218879272684
0.028534422248249,19.8247198808257
0.0284910770732567,19.8277283949238
0.0280087088432234,19.8313006836318
0.0272066753787354,19.8345251426488
0.0261147690543707,19.8377496016658
0.0250261518956318,19.8404507329816
0.0239512599160835,19.8428725682893
0.0228769505351493,19.8451589847438
0.0218024227162549,19.847372294148
0.0207306185341676,19.8495460102183
0.0196652091188508,19.8517016694228
0.0186098433668075,19.8538547073399
0.017567949197818,19.856017051765
0.0165426809638007,19.8581984793632
0.01553691465311,19.8604074031675
0.0145532547371047,19.8626513771224
0.013594045205285,19.8649374413046
0.0126613836633389,19.8672723689367
0.011757126944737,19.8696628789433
0.0108829041204108,19.8721157992608
0.0100401267609457,19.8746382194813
0.00922999515296077,19.8772376512146
0.00845351014577703,19.8799221780078
0.00769061866017303,19.8827821710543
0.00694415612513669,19.8858411409712
0.00621790861700121,19.8891233694704
0.00551585754933862,19.8926569526171
0.00484215664169551,19.8964744487251
0.00420106170176635,19.9006138072829
0.00359681673834187,19.9051197043321
0.00303347571213653,19.9100457446539
0.00251464084279427,19.9154585601352
0.00204320249517621,19.9214447801388
0.00162125597420152,19.9281208284128
0.00126290040310578,19.9353536430857
0.00097656608926226,19.9431882259081
0.000767323531529242,19.9513618743828
0.000615778251347524,19.9595081902895
0.000489742791577826,19.9688428189415
0.00039690980261883,19.9788428189415
0.000336159848785304,19.9888428189415
0.00031305651570054,19.9944214094708
0.000295917400775158,20
