ecg,time
0.00838140128295855,15.0011017744082
0.00761032110174933,15.0025622754231
0.00687115599041153,15.0040985277559
0.0061145219441249,15.0058421875529
0.00523267216187872,15.008155992203
0.00436916277202657,15.0108217288046
0.00366816463266586,15.0134007936313
0.00309181760616159,15.0159256406058
0.00256496189759767,15.0187045325675
0.00207427631624894,15.0219190715964
0.00166650441566952,15.0253626018931
0.00134001730751265,15.0290737814148
0.0010964816516856,15.0331086158359
0.000945437884920394,15.0375399695307
0.000909131220172562,15.0419181503884
0.000976254756112836,15.0458273723394
0.00112909044972832,15.0493439076964
0.00135860407556985,15.0525118209253
0.00166087196257739,15.055377637519
0.00203618818015965,15.0579910267819
0.002488851267936,15.0604015708627
0.0030279546110708,15.0626593098334
0.00366991227901184,15.0648186615175
0.0044445102766626,15.0669460518339
0.00541082017630237,15.0691397523936
0.00668980013308605,15.0715569748882
0.00842217229760619,15.0742936610112
0.0100108724831352,15.0764478921143
0.011826620946644,15.0786021232175
0.0136041834081302,15.0804454438228
0.0153926276426596,15.0820706526841
0.0172754895112162,15.0835672846126
0.0193300565313246,15.0849890256214
0.0215870408465692,15.0863419651044
0.0240986130963579,15.0876412660281
0.0269032974155655,15.0888898658979
0.0300494848236756,15.0900930476062
0.0335795599666214,15.0912516369918
0.0375506999914326,15.0923699065469
0.0420201982360002,15.0934499014493
0.0470556063593506,15.094494411953
0.05273716843258,15.095506719603
0.0591570953290061,15.0964898743822
0.0664237137340527,15.0974470009732
0.0746694432381651,15.0983817747143
0.0840531730981818,15.0992979309945
0.0947695719811308,15.1001995335019
0.107060335684947,15.1010910859412
0.121232344553326,15.1019778280353
0.137680683336852,15.1028658807962
0.156928408476495,15.1037627834254
0.17969440982176,15.1046784186737
0.206382175164807,15.1056061781166
0.237289584088963,15.1065390829739
0.273225875600535,15.107487515637
0.315347525044124,15.1084690525433
0.365747263563816,15.1095227534399
0.40136301405744,15.1102207088503
0.437709080193953,15.1109186642606
0.470087398050388,15.1115511756675
0.498570403879636,15.1121417642358
0.523434600338508,15.1127174434353
0.5444605477468,15.1133012877132
0.560903594204808,15.1139205308168
0.57105209104788,15.1146217708849
0.571139992257538,15.1153805205156
0.559247511760959,15.1161680806177
0.533903888018633,15.1170049024611
0.493964899883348,15.1178884179174
0.439662164017354,15.1187990725205
0.373257231399698,15.1197077727661
0.327376060604179,15.1202637868038
0.278441550580797,15.1208198008415
0.23524553247049,15.1212940815291
0.198029691826939,15.1217004466814
0.165215596697077,15.1220646143307
0.135773556611306,15.1224026323762
0.109054241470462,15.1227250420509
0.0845849130575136,15.1230401662092
0.0619426048838294,15.1233564290183
0.0406012367128316,15.1236858815302
0.019405971946511,15.1240574885686
0.00144246898596505,15.1244248571435
-0.0064627076256013,15.124608541431
-0.0136852307737827,15.1247922257185
-0.0198488147020439,15.1249639683354
-0.0260212339557018,15.1251533763848
-0.0321111457882177,15.1253620938223
-0.0379054792882986,15.125587181855
-0.0432791955438972,15.1258272340749
-0.0481642236221497,15.1260819634791
-0.0525267709693607,15.1263518516555
-0.0563539727362286,15.1266379659949
-0.059645883774091,15.1269418813713
-0.0624061553804553,15.1272656692778
-0.0647087772630272,15.1276250996071
-0.0663931218760209,15.1279947759876
-0.0675871515587581,15.1283937428993
-0.0683055080865366,15.1288271103989
-0.0685588407084031,15.129301087159
-0.0683528487170448,15.1298236353562
-0.0676849191088568,15.1304057376148
-0.066538230941404,15.131062939623
-0.0648757162357995,15.13181691799
-0.0626215620851965,15.132702519196
-0.059604868129069,15.1337872054939
-0.0553935227800106,15.1352288209465
-0.0512664474553408,15.1366170615652
-0.0472901297136875,15.1379636956704
-0.0435024186529028,15.1392720220782
-0.0399233318519939,15.1405433264748
-0.0365635101945567,15.1417778746775
-0.0334276626536094,15.1429754344408
-0.0305162087695535,15.1441355515498
-0.0278262344351143,15.1452576947962
-0.0253521729024151,15.1463413290157
-0.0230863661974613,15.1473859465921
-0.0210195643790364,15.1483910734528
-0.019141379402445,15.149356258299
-0.0174406960275557,15.1502810499373
-0.015849109030778,15.1511987839477
-0.0143161033831516,15.152140018432
-0.0128462109392895,15.1531062985715
-0.0114433503464879,15.1540997243376
-0.0101112420371883,15.1551227596966
-0.00885335350013053,15.1561783245856
-0.00767284543866876,15.1572699134148
-0.0065725150616472,15.1584017546088
-0.00555473616666129,15.1595790303705
-0.00462139505337039,15.1608081876946
-0.00377382030188707,15.1620973928771
-0.00301270265116157,15.1634572219565
-0.00233799771668323,15.1649017608379
-0.00174879689821096,15.1664504674326
-0.00125698901922692,15.1680793387237
-0.000864597150851089,15.1697550845774
-0.000555085405661212,15.1714959948673
-0.000313626260640193,15.1733233611617
-0.000126197452828111,15.1752656564409
2.08890011027258e-05,15.1773632908916
0.000141729281330113,15.1796785607481
0.000252325751721551,15.1823200797685
0.00037499790217528,15.1855230229913
0.000525534368194373,15.1892604009058
0.0007060477353575,15.1932572149771
0.000939873172678136,15.1979076672249
0.00118467955798718,15.2024672377699
0.00142305486335272,15.2067971565606
0.00166168232954872,15.2111280356041
0.00191500282316111,15.2157772659045
0.00218200249588347,15.2207485592023
0.00244204369160037,15.2256384286057
0.00270377688445995,15.2305756947978
0.00292690391414747,15.234759557287
0.00313701020313036,15.2386611533555
0.00334406096290114,15.2424521012396
0.00355344924444659,15.2462167615396
0.00376907040494632,15.2500089995591
0.00399430178199219,15.2538693930189
0.00423241225696996,15.2578317879536
0.00448681841643066,15.2619268813266
0.00476129583731264,15.266184621545
0.00506016732692542,15.2706355718896
0.00538856153801193,15.2753121467024
0.00575283126497397,15.280249944109
0.00615867423285906,15.2854566494945
0.00657771941669528,15.2905160536301
0.00702206364251997,15.2955461030222
0.00749106911440013,15.3004951489275
0.00799004637045497,15.3053741911777
0.00852406865712681,15.3101831284269
0.00909948499789713,15.3149267480104
0.00972328635462381,15.3196077491983
0.0104031970798468,15.3242273254626
0.0111627572608896,15.3288728590078
0.0120173285913841,15.3335465416874
0.0129876494447038,15.3382616685247
0.0141024084109943,15.3430458832421
0.0154069052766599,15.3479632457604
0.0169897817123487,15.3531777076978
0.019119543220137,15.3592722335209
0.0208748153183438,15.3637745555795
0.0227346741856758,15.3682768776382
0.0242923961168667,15.3720239427699
0.0255876217117242,15.3752999486284
0.0266721178073663,15.3783665522428
0.0275389905652029,15.3813455889954
0.0281365701096889,15.3841840692815
0.0284659309936156,15.3870021574692
0.0285012312080885,15.3899488689877
0.0281481635170499,15.3933179027629
0.0271241950879317,15.3976579701219
0.0262236503541128,15.4003355617588
0.0251643664753256,15.4030131533957
0.024091415392911,15.4054602708193
0.023017350007486,15.4077629908558
0.0219427555850749,15.4099853526024
0.0208704638851472,15.4121634782367
0.0198041226884254,15.4143202522403
0.0187474178062629,15.4164718169246
0.017703831537738,15.4186304836585
0.0166765792231802,15.4208062186212
0.0156685978676703,15.4230074975246
0.0146825510189047,15.4252418418664
0.0137208422697759,15.427516171102
0.0127856222595469,15.4298370695736
0.0118788009979826,15.4322109801212
0.0110020590596136,15.4346443614904
0.0101568499516835,15.4371438486891
0.00934441529545685,15.4397163688975
0.00856578785338684,15.4423692909693
0.00780032329722277,15.4451931428966
0.00705068413957756,15.4482114209976
0.00632061782847817,15.4514476478568
0.00561405729114615,15.454929001938
0.00493510975294766,15.4586869383653
0.00428799382233348,15.4627580428583
0.00367693214177548,15.4671852562609
0.00310597940673693,15.472019887073
0.0025787928427937,15.4773250544806
0.00209832756124776,15.483182269685
0.0016667348168142,15.489700294052
0.00129461040768683,15.4968271966327
0.000984054497754522,15.5045359721645
0.00072844137304961,15.5129512180541
0.000528614857810818,15.5222383659054
0.000399151942565316,15.5310653019774
0.00029545863551164,15.5410653019774
0.000223222079071252,15.5510653019774
0.000173000298121077,15.5610653019774
0.000138568658419382,15.5710653019774
0.000115407038921547,15.5810653019774
0.000100178480351828,15.5910653019774
9.04881721659251e-05,15.6010653019774
8.46742917439055e-05,15.6110653019774
8.16072541709433e-05,15.6210653019774
8.05236969423944e-05,15.6310653019774
8.09069056572069e-05,15.6410653019774
8.24075113498367e-05,15.6510653019774
8.47921641576089e-05,15.6610653019774
8.79097050780417e-05,15.6710653019774
9.16681827783513e-05,15.6810653019774
9.60189993578469e-05,15.6910653019774
0.00010094608211854,15.7010653019774
0.000106458743686822,15.7110653019774
0.000112587287938593,15.7210653019774
0.000119380689722289,15.7310653019774
0.00012690590035267,15.7410653019774
0.00013524852102018,15.7510653019774
0.000144514746660325,15.7610653019774
0.000154834624649984,15.7710653019774
0.000166366813420494,15.7810653019774
0.000179305186995471,15.7910653019774
0.00019388783863179,15.8010653019774
0.000210409325760304,15.8110653019774
0.000229237423238186,15.8210653019774
0.000250836299794666,15.8310653019774
0.000275799050467963,15.8410653019774
0.000304894161477561,15.8510653019774
0.000339133211978893,15.8610653019774
0.000379871779076868,15.8710653019774
0.000428963738173534,15.8810653019774
0.000487358638032414,15.890813503256
0.000553630056458206,15.8998270030014
0.000628640768494581,15.9081434793995
0.00071352276706996,15.9158169055778
0.000809587637160712,15.9228980144725
0.000918328488506249,15.9294338459916
0.00104143795869526,15.9354680339917
0.00118083307148174,15.9410410795135
0.00133868599439149,15.9461905671865
0.00151745781142938,15.9509513672664
0.00171993880767083,15.9553558476682
0.00194929586664319,15.9594340869554
0.00220913042443601,15.9632140588836
0.00250354460215848,15.9667217996388
0.0028372287166073,15.9699815950888
0.00321556940031217,15.9730161812181
0.00364479040910202,15.9758469353738
0.00413214160371226,15.9784940971128
0.00468615967553284,15.9809770401922
0.00531704226784066,15.9833146021956
0.00603246518745047,15.9855122474676
0.00682200981298717,15.9875352361245
0.00769539238795862,15.9894175151344
0.00866734648614204,15.9911932144833
0.00976071210237843,15.9928985494071
0.0110156315293464,15.9945799559463
0.0125533783444776,15.9963552816959
0.014784333942886,15.9985611557765
0.0164209138754458,16.0000023695848
0.0181625607009346,16.001443583393
0.0197605397851554,16.0027329525469
0.0211811946286056,16.0038970613347
0.0224564725674086,16.0050029797931
0.0235889101488049,16.0060941997323
0.0245621805783295,16.0072089303843
0.0253416563184074,16.0083954378197
0.0258586762354459,16.0097417293821
0.0259159122085683,16.011530292938
0.0253905923429355,16.0131481562096
0.0244158565941487,16.0147660194813
0.0232826088850904,16.0161858822667
0.0220024893400965,16.0175748729956
0.0205810623610551,16.0190000990468
0.0190280023672438,16.0205011323682
0.0173493776034367,16.022116833764
0.0157739393586946,16.0237015169075
0.0135574998935931,16.0261599857807
0.011969036190098,16.0281380733174
0.0105449548539091,16.0301161608542
0.00946546332728048,16.0317813671508
0.00858354420867892,16.0332753028946
0.00779757910733584,16.0347311131152
0.00705458695921886,16.0362390780467
0.00630828100088377,16.0379127141016
0.00547804824739074,16.0400124138168
0.00458439969694454,16.042647787841
0.0038192579715926,16.0453413525164
0.0032173776033907,16.0478725305583
0.00268196852132624,16.0505739242887
0.00217282128297054,16.0537446206868
0.00174732250246898,16.0571367663926
0.00140339323004008,16.0607861523903
0.00114155598532958,16.064745918634
0.000969199692052191,16.0690847773047
0.000907288292091579,16.0735786788651
0.000954566876750423,16.0775750749699
0.00109035315625121,16.0811711369047
0.00130420205997078,16.0844083952131
0.00159128025106961,16.0873337281241
0.00195102938431665,16.089996208122
0.00238685208848145,16.0924453291207
0.00290662249688536,16.0947305995055
0.0035252440376614,16.0969064058533
0.00426790247223357,16.0990325100799
0.00518613183698285,16.1012007919387
0.00638290676736077,16.1035514769408
0.00804183261038953,16.1062691605133
0.0100597310352213,16.109046653373
0.0115782576856493,16.1108612994602
0.0132922444656036,16.1126759455473
0.0150723295565365,16.1143316792975
0.0169334987459781,16.1158467836108
0.0189542712200683,16.1172801837287
0.0211730585756596,16.1186446706313
0.0236344164388106,16.1199517940593
0.0263849269767523,16.1212093883169
0.029465254221151,16.1224195668803
0.0329239091275005,16.1235859149009
0.0368139160032781,16.1247114380255
0.0411891417088483,16.1257976576871
0.0461191242143617,16.1268482827034
0.0516804124372516,16.1278661567864
0.057961191594599,16.1288540949186
0.0650689098886011,16.1298155809941
0.0731307147368961,16.1307540791484
0.0823000363811668,16.1316732710242
0.0927636904710869,16.1325770902718
0.104755287948549,16.1334700665715
0.118568290160714,16.1343572564583
0.134579729204249,16.1352445875419
0.153285621556174,16.1361392731413
0.175363544644853,16.1370507050442
0.201374008439064,16.1379783690197
0.231482633954443,16.1389097289367
0.266458790258957,16.1398544343124
0.307375227892793,16.1408282305238
0.356066919405154,16.1418642046243
0.392506307063625,16.1425857888959
0.430018308351953,16.1433073731675
0.463371018573229,16.1439542166542
0.492663899840967,16.1445514167571
0.51832034423491,16.1451283607095
0.540226533695248,16.1457083902748
0.557768850048205,16.1463169904348
0.569529024101511,16.1469941607985
0.572104938968072,16.147749482207
0.562931231393733,16.1485289117585
0.54068826540913,16.1493533732694
0.503396948819008,16.1502398480818
0.452327367564891,16.1511410619981
0.387432805634423,16.1520626013059
0.340051414231606,16.1526507745553
0.288962538648455,16.1532389478047
0.244034509052333,16.1537346297159
0.205651202142662,16.1541533868766
0.171990292970617,16.1545250519524
0.141883917434226,16.1548677008724
0.114620401037143,16.155192738029
0.0897008597764097,16.1555087626261
0.0667015478970438,16.1558239671146
0.0451391297114438,16.1561491125952
0.0241027726824021,16.1565067574404
0.00731549482770174,16.1568344677739
-0.00191742883698752,16.157037436956
-0.0102966720917167,16.1572404061382
-0.0169263732378934,16.157417084086
-0.0230358095795763,16.1575958012316
-0.0291977061790944,16.157795639172
-0.0351550294492119,16.1580130893028
-0.0407431001183278,16.1582460132688
-0.0458699369891712,16.1584936401749
-0.0504873309562913,16.1587561120668
-0.0545735732658427,16.1590342286272
-0.0581232541036426,16.1593293247183
-0.0611410135910556,16.1596432300606
-0.0637541004385839,16.1599984397503
-0.0656718776034872,16.1603558901619
-0.0670917342969687,16.1607405970584
-0.0680298350767053,16.1611572737962
-0.0684984471842035,16.1616114878204
-0.0685058430177243,16.1621103108697
-0.0680540632278591,16.1626629315618
-0.0671333034494733,16.1632829879431
-0.0657172761519525,16.1639886159718
-0.0637517511524516,16.1648073071242
-0.0611224407153302,16.1657870802323
-0.0575306177437465,16.1670393746676
-0.0533532225932668,16.1684514534508
-0.0492939303430434,16.1698187841184
-0.0454069482852489,16.1711464350885
-0.0417198447214517,16.172436561938
-0.0382474436928979,16.1736898713024
-0.0349972141305459,16.1749063433197
-0.0319716211571841,16.1760856153174
-0.029169356603269,16.1772271844103
-0.0265861321855996,16.1783305125227
-0.0242152911718946,16.1793950766442
-0.0220483360836442,16.1804203865353
-0.0200754051852973,16.1814059817899
-0.0182857055050283,16.1823514148427
-0.0166657632774066,16.1832574556186
-0.0151016929443019,16.1841864576087
-0.0135986471829293,16.1851395372847
-0.0121606254229839,16.1861186360249
-0.0107914588192709,16.1871260185844
-0.00949475232575005,16.1881643562422
-0.00827383232067775,16.189236829199
-0.00713169138879347,16.1903472630132
-0.00607093014551901,16.1915003142292
-0.00509369547627016,16.1927017292885
-0.00420161381782457,16.1939587163982
-0.00339571679224297,16.1952804986996
-0.00267635403973146,16.196679173034
-0.00204308312797132,16.1981711161097
-0.00149451543392539,16.1997794504849
-0.00105368174737274,16.2014286498257
-0.000703752239024043,16.2031339614215
-0.000429326846210246,16.2049141388076
-0.000216018331015911,16.2067935850253
-5.00387756339007e-05,16.2088057991517
8.23789092571818e-05,16.2110001169812
0.000195987565505378,16.2134567490081
0.00030892404831429,16.2163284120904
0.000451984904514154,16.2200144288764
0.000614371606979084,16.2238217958265
0.000819719211766846,16.2281069260542
0.00106743400849616,16.2328439613217
0.00130870941454732,16.2372618039929
0.00154597549308667,16.2415606882201
0.00178964441472528,16.2460043360924
0.00206284094527516,16.2510598817973
0.00232466379420871,16.2559635267233
0.00258731495297306,16.260916177284
0.00282283831058882,16.265347444723
0.00303733066860229,16.2693518290719
0.00324499861038483,16.2731820607588
0.00345271996089104,16.2769513120204
0.00366491792593036,16.280724712105
0.00388514407551846,16.284547984041
0.00411668243608824,16.288457655014
0.00436284753439586,16.2924855202258
0.00462722196496005,16.2966617074569
0.00491384039514818,16.3010163286642
0.00522740581319156,16.305580753959
0.00557361896349277,16.3103888879413
0.00595971615621464,16.3154784232409
0.00637189589035776,16.3206061075818
0.00680388194698326,16.3256547694299
0.00726046489681599,16.3306431768189
0.00774435108171845,16.3355563195947
0.0082606664396155,16.3403986831972
0.00881520255818345,16.3451734847928
0.00941465078597556,16.34988456901
0.0100663747488285,16.3545338458136
0.0107848030491782,16.3591604952526
0.0115913921980294,16.3638204866096
0.0125027859952903,16.36851320553
0.0135434289500629,16.3732590365837
0.014748894870669,16.3781002052457
0.0161810509092015,16.3831386937375
0.0179846000605782,16.388668820289
0.0204007665396982,16.3951280899709
0.0219697274896913,16.3989799957284
0.0235782944880025,16.4028319014859
0.0249829256287007,16.4062747901823
0.0261675020253868,16.409419688978
0.0271468071332185,16.4124414307445
0.0278753671210255,16.4153332378573
0.0283378593968968,16.4181453375056
0.0285237087908816,16.4210060140113
0.0283823402781809,16.424109016609
0.0277086244520948,16.4280300955169
0.0268692943578517,16.4310073680144
0.025799850019184,16.4339846405118
0.0247205102950504,16.4365841738405
0.0236464242450225,16.4389627859059
0.022571860403314,16.4412266695357
0.021497793151562,16.4434273623664
0.0204275093070978,16.4455943967267
0.0193647212593236,16.447747364071
0.0183130437768111,16.4499005788426
0.0172758528041579,16.4520652458284
0.0162562470295473,16.454250635995
0.015257049461094,16.456464776543
0.0142808143749499,16.4587149036459
0.0133298382067,16.461007773343
0.0124061729464057,16.463349884326
0.0115116308720861,16.4657476715102
0.0106477958786791,16.4682076543997
0.00981603560671578,16.4707365646819
0.00901750220600906,16.473341501383
0.00824468500376465,16.4760610218554
0.00748538271970339,16.4789633521813
0.00674345650792024,16.4820694811065
0.00602272063035731,16.4854044135349
0.00532718411257691,16.4889970311146
0.00466101113080677,16.4928808052545
0.0040284386465446,16.4970947868777
0.00343364504495457,16.5016850848069
0.00288055175143129,16.5067073703049
0.00237254775539132,16.5122315340961
0.00191225857448721,16.5183491815919
0.00150152762414092,16.5251834697898
0.00115620529400054,16.5325443783173
0.000869665809357422,16.5405344240622
0.000679569452745321,16.5474286561681
0.000537642711610864,16.5543228882741
0.000395775067797983,16.5639061129111
0.000293020067299249,16.5739061129111
0.000221443016208871,16.5839061129111
0.000171742388414343,16.5939061129111
0.000137713261231595,16.6039061129111
0.000114843978889721,16.6139061129111
9.98182352003405e-05,16.6239061129111
9.02666325057739e-05,16.6339061129111
8.45488738597518e-05,16.6439061129111
8.15503033716026e-05,16.6539061129111
8.05169886154563e-05,16.6639061129111
8.09381475756469e-05,16.6739061129111
8.24683538835149e-05,16.6839061129111
8.48770450377134e-05,16.6939061129111
8.80151006807792e-05,16.7039061129111
9.17920759987533e-05,16.7139061129111
9.61604956264238e-05,16.7239061129111
0.000101105143671777,16.7339061129111
0.000106636018690594,16.7439061129111
0.000112784012810519,16.7539061129111
0.000119598647326161,16.7639061129111
0.000127147422730631,16.7739061129111
0.000135516531108733,16.7839061129111
0.000144812838328404,16.7939061129111
0.000155167184719844,16.8039061129111
0.000166739193799598,16.8139061129111
0.000179723940478531,16.8239061129111
0.000194361039282228,16.8339061129111
0.000210947005369724,16.8439061129111
0.00022985217125233,16.8539061129111
0.000251544098699653,16.8639061129111
0.000276620457804454,16.8739061129111
0.000305856013725318,16.8839061129111
0.000340271133337961,16.8939061129111
0.000381233965054413,16.9039061129111
0.000430616818934524,16.9139061129111
0.000489236979691363,16.9236316168942
0.00055575647448975,16.9326232965918
0.000631046904471937,16.9409196278437
0.00071624566601693,16.9485744936915
0.000812669604697666,16.9556385115323
0.000921817496074623,16.9621586142925
0.00104538833711081,16.968178337704
0.00118530635039767,16.9737380921853
0.00134375192598289,16.9788753775458
0.00152319539526053,16.9836249855826
0.00172643771450189,16.988019212196
0.00195665790515608,16.9920880701225
0.00221747148696047,16.9958594722182
0.00251299691515566,16.9993593991359
0.00284794372560517,17.0026120871653
0.00322772159805878,17.0056402285749
0.00365858209551456,17.0084651630033
0.00414780957469962,17.0111070996977
0.00470398465813577,17.0135853910775
0.00533736248244509,17.0159188647991
0.00605487669342663,17.0181107778347
0.0068467527122699,17.0201290718308
0.00772283011094376,17.0220076851432
0.00869801607887721,17.0237807424691
0.00979548853515013,17.0254846106981
0.0110561788105496,17.0271662604739
0.0126062020737189,17.0289478202961
0.014876312887439,17.0311812516909
0.0165094135793537,17.0326133425509
0.0182438572215083,17.0340454334109
0.0198316656720781,17.0353263659388
0.0212449269160101,17.0364864263285
0.0225135404042284,17.0375907667647
0.0236389136412501,17.0386822217465
0.0246039335450719,17.0397991187111
0.0253728989046379,17.0409906906828
0.0258745268267276,17.0423484742286
0.0258962246804914,17.0441792840735
0.0253432727959656,17.0457820930202
0.0243559085149669,17.0473849019669
0.0232140978511972,17.0488003452339
0.0219256903004388,17.0501901188492
0.02049654840505,17.0516186652343
0.0189362633950793,17.0531250991309
0.0172505495770023,17.0547486576243
0.0159349701361316,17.0560697499001
0.0137056189519733,17.0585214759064
0.0120645535593861,17.0605486671953
0.0105967941010784,17.0625758584843
0.00950322734242482,17.0642560270432
0.00861589348692797,17.0657538184709
0.00782730787058073,17.0672093738155
0.0070834623943007,17.0687135075167
0.00633835873630113,17.0703774811781
0.00551444795816369,17.0724499163351
0.00461632066931011,17.0750811070599
0.00383930359655131,17.0777999442419
0.00323284771148068,17.0803374046459
0.00269604923485932,17.0830316386726
0.0021847020033615,17.0861973252874
0.00175710375972282,17.0895835535753
0.00141112018262605,17.0932258284147
0.00114714823088856,17.0971769678634
0.000972343010527515,17.1015052179392
0.00090737783796439,17.1060128094064
0.000952327838762691,17.1100192854778
0.00108612985279709,17.1136246196935
0.00129818688165196,17.1168702102903
0.00158352849913419,17.1198025146863
0.00194151111273548,17.1224707765103
0.00237542269541421,17.1249244009623
0.00289307463956664,17.1272131590616
0.00350937475254311,17.1293918586821
0.0042486659352665,17.1315182496355
0.00516177750859808,17.1336840099047
0.00634995051206115,17.1360278893997
0.00800086060170572,17.1387434245109
0.0100112211815608,17.1415210122538
0.0115297901766819,17.1433424216386
0.0132439795553467,17.1451638310233
0.0150233036747973,17.1468248124974
0.0168816631373735,17.1483431572179
0.0188973551205657,17.1497783590448
0.021110329166517,17.1511445949873
0.0235643020361851,17.1524530227311
0.0263065914783343,17.1537119775399
0.0293770758717954,17.1549232670834
0.0328249180703771,17.156090796133
0.0367026508103532,17.1572174272089
0.0410638425302517,17.1583046501191
0.0459779318744706,17.1593562147456
0.0515210935562499,17.1603749448781
0.0577810196594288,17.1613636355919
0.0648648383728083,17.1623257958352
0.0728989952220919,17.1632648716927
0.0820361077388126,17.1641845366685
0.0924619381639165,17.165088714166
0.10440870977507,17.1659819214629
0.118167985242069,17.1668691956608
0.134114143628123,17.1677564362025
0.152739221050696,17.1686508078275
0.174714881478392,17.16956163548
0.200624070893828,17.1704893043576
0.230613403101971,17.1714204557874
0.265446537110424,17.1723646366373
0.306184631758303,17.1733373422442
0.354628537401871,17.1743708695121
0.39119342705359,17.1750961784022
0.428883238946631,17.1758214872924
0.462382945444254,17.1764706062871
0.491794727316557,17.1770688773688
0.517565296679185,17.1776460933262
0.539596462556732,17.1782256692757
0.557292423113761,17.1788328822083
0.569272013280567,17.1795069274922
0.572195998948554,17.180261851836
0.563400465717024,17.1810402154704
0.541586763827978,17.1818630024525
0.504752903267148,17.1827482116654
0.454153089837314,17.1836481802131
0.389551196260721,17.1845708683851
0.341940973920305,17.1851641439393
0.29051729137647,17.1857574194936
0.245323269581367,17.1862564446206
0.206763797724585,17.1866771084586
0.172976915396096,17.1870499167086
0.142772499001559,17.1873932725825
0.115428949493328,17.1877187191455
0.0904431389005093,17.1880349038571
0.0673907280693639,17.1883499965655
0.045793304379723,17.1886746036249
0.0247673586935196,17.1890305598081
0.00753692586685935,17.1893657155259
-0.00178357254703897,17.189570241816
-0.010236694279859,17.1897747681061
-0.0168772988791228,17.1899516048111
-0.0229849008525424,17.1901301283942
-0.029147505665377,17.1903298070867
-0.0351073117511403,17.1905471231476
-0.0406988754100835,17.1907799243063
-0.04582975354346,17.1910274305518
-0.0504514597588919,17.1912897776855
-0.0545421158182844,17.1915677606139
-0.0580962071717682,17.1918627100465
-0.0611183098643285,17.1921764516297
-0.0637304244687013,17.1925305794825
-0.0656536439012793,17.1928877396792
-0.0670788402202294,17.1932721234777
-0.0680221320692129,17.1936884231913
-0.0684958193856806,17.1941421921272
-0.0685082289529646,17.1946404827794
-0.0680614846729626,17.195192456153
-0.0671459493501164,17.1958116903751
-0.0657355521737953,17.1965162592321
-0.0637764813520531,17.19733351212
-0.0611554531714696,17.1983111235288
-0.0575775747973498,17.1995592130495
-0.053399235096181,17.2009718779289
-0.049338255739235,17.2023396717403
-0.0454491704116338,17.2036677490252
-0.0417597417609857,17.2049582879921
-0.0382848972265254,17.2062120065912
-0.0350321715239761,17.2074288904782
-0.0320040774981714,17.2086085794366
-0.0291993441413429,17.2097505714288
-0.0266137127805256,17.210854328415
-0.0242405500344972,17.2119193270707
-0.0220713762253783,17.2129450767755
-0.0200963423467918,17.2139311168618
-0.0183046635728283,17.2148769997545
-0.0166841037096948,17.2157827847221
-0.0151193547156826,17.216711519654
-0.0136155834132434,17.2176643115709
-0.0121767908788776,17.2186430985156
-0.0108068105786374,17.2196501410568
-0.00950925036365743,17.2206881052643
-0.0082874401290917,17.2217601647792
-0.00714437662880149,17.2228701367854
-0.00608266533626169,17.2240226669557
-0.00510445873064958,17.2252234873324
-0.0042113896472191,17.2264797865798
-0.00340449702281502,17.2278007605037
-0.00268413892076627,17.2291984662411
-0.00204988279318366,17.2306892199682
-0.00150035206765931,17.2322960458374
-0.00105833446501231,17.2339447089838
-0.000707420893450186,17.2356492543016
-0.000432187079423121,17.2374284157385
-0.000218236165103643,17.2393065126677
-5.17760497438036e-05,17.2413169062983
8.09560182387478e-05,17.2435086819495
0.000194691792225625,17.2459615292393
0.000307500302500852,17.2488268002738
0.000449875387517308,17.2524979724477
0.00061187862634819,17.256302523975
0.000816496688544677,17.2605787726332
0.00106429744075904,17.2653215489891
0.00130567192971032,17.2697425568655
0.00154293654588673,17.2740414284814
0.00178642441477876,17.2784811270473
0.00205894487520661,17.2835230654952
0.00232082441811604,17.2884271419366
0.00258333378278921,17.2933769233491
0.00281938164237401,17.2978185036595
0.00303406247293144,17.3018270426611
0.00324177354580196,17.3056589298111
0.00344945628006525,17.3094285602524
0.00366155566104325,17.3132015123163
0.00388163090659925,17.3170237095194
0.00411296758133004,17.3209317817807
0.00435887776430708,17.3249575709963
0.00462293842006823,17.3291312161533
0.00490917567007853,17.3334828192035
0.00522227993729261,17.3380437208486
0.00556793294747479,17.342847775898
0.00595334154939391,17.3479326114606
0.00636532858763942,17.353062788019
0.00679691600695852,17.3581118902593
0.00725311416177802,17.363101589213
0.00773653062150075,17.3680158326464
0.00825229657471687,17.3728592964362
0.00880618334774835,17.3776351197304
0.00940487265160314,17.3823471840147
0.0100557166019498,17.386997422735
0.0107728661277278,17.3916234707823
0.0115779687984548,17.3962830581278
0.0124875450761737,17.4009751273672
0.0135259244112857,17.4057198900352
0.0147284258641022,17.4105590096389
0.0161562726362217,17.4155929850336
0.0179517268767047,17.421110451849
0.0203676368999036,17.4275806137026
0.0219391943992732,17.431442435273
0.0235517987433127,17.4353042568434
0.0249606851220085,17.4387545926272
0.0261488416240665,17.4419029854566
0.0271317315291201,17.4449256548043
0.0278649568886594,17.4478198615473
0.0283321011053391,17.4506323270578
0.0285230329566586,17.4534908439774
0.0283882576052458,17.4565869317975
0.0277289892861354,17.4604798034279
0.0268921847841221,17.4634723682235
0.0258216326379896,17.4664649330191
0.0247417846746778,17.4690713355126
0.0236676540480399,17.471453078461
0.0225931016537961,17.473718627908
0.0215189952243565,17.4759202399561
0.0204486003719725,17.4780877281757
0.0193856281446552,17.4802408229614
0.0183336971987933,17.4823939173071
0.0172961887424015,17.4845582639623
0.0162762069668596,17.4867431643907
0.0152765803151653,17.4889566653168
0.0142998681938117,17.4912060153666
0.0133483720432585,17.4934979776148
0.0124241486488415,17.4958390538139
0.0115290148426374,17.4982356788187
0.0106645590122898,17.5006943689235
0.00983215300068421,17.5032218502992
0.009032953087867,17.5058252135397
0.0082599057893045,17.5085412986359
0.00750029618854988,17.5114398138382
0.0067579888055246,17.5145416659841
0.00603679402776147,17.5178717899095
0.00534071733651798,17.521458983737
0.00467392049825269,17.5253366191788
0.00404064009766588,17.5295436243044
0.00344505741543274,17.5341259477181
0.00289110125592661,17.5391390365258
0.00238217406863326,17.5446524342669
0.00192091768617829,17.5507572239282
0.00150918909400501,17.5575758384688
0.00116260911771442,17.5649250607553
0.000874943089183626,17.5729010430058
0.000639662126512479,17.5816446529909
0.000506593589261893,17.5886724774295
0.000374340283353103,17.5982700912774
0.000278476890812617,17.6082189272254
0.000211207302316519,17.6182189272254
0.000164640251747702,17.6282189272254
0.00013289417928388,17.6382189272254
0.000111651555756961,17.6482189272254
9.77625608165801e-05,17.6582189272254
8.90014140786097e-05,17.6682189272254
8.38386106124808e-05,17.6782189272254
8.12371235398516e-05,17.6882189272254
8.04947671346572e-05,17.6982189272254
8.11351333041619e-05,17.7082189272254
8.28362292437706e-05,17.7182189272254
8.53839755605906e-05,17.7282189272254
8.86411078901542e-05,17.7382189272254
9.25258377694167e-05,17.7482189272254
9.69971241298913e-05,17.7582189272254
0.000102044685244907,17.7682189272254
0.000107682498306688,17.7782189272254
0.000113944890077066,17.7882189272254
0.00012088458917453,17.7982189272254
0.000128572333430683,17.8082189272254
0.000137097811180715,17.8182189272254
0.000146571870551983,17.8282189272254
0.000157130070250743,17.8382189272254
0.000168937788050051,17.8482189272254
0.000182197271257916,17.8582189272254
0.000197157234288666,17.8682189272254
0.000214125920510313,17.8782189272254
0.000233489008140819,17.8882189272254
0.000255734450102118,17.8982189272254
0.000281487459953672,17.9082189272254
0.000311560678349855,17.9182189272254
0.00034702759692368,17.9282189272254
0.000389332549190449,17.9382189272254
0.000440459876502789,17.9482189272254
0.000500421450102276,17.9578121160599
0.000568417926262624,17.966676600966
0.000645373971659946,17.9748555060773
0.000732458960502947,17.9824021890902
0.000831020978158488,17.9893665940748
0.000942592556506814,17.9957950306746
0.00106891056000999,18.0017304626347
0.00121194209245883,18.0072127712815
0.00137391647815368,18.0122789615987
0.00155735914942821,18.016963367959
0.00176513462250298,18.0212978667571
0.00200049438899627,18.0253120870724
0.0022671378697999,18.0290335867879
0.00256928126006449,18.0324880234715
0.00291174900393883,18.0356993457312
0.00330008878834191,18.0386899921453
0.00374071920220735,18.0414810847389
0.00424113214156059,18.0440926596553
0.00481017332138557,18.0465439498078
0.00545844630403688,18.0488537328778
0.00618843800424811,18.051012522396
0.00699425762307992,18.0530037572548
0.00788650268874354,18.054861349631
0.00888117112568252,18.0566194640736
0.0100035967874835,18.058315506051
0.0112998706444422,18.0600000174076
0.0129279684415255,18.061822841418
0.0154004211602114,18.0641884189994
0.0170050278548245,18.0655648702018
0.0186897294619045,18.0669413214042
0.0202240175288452,18.0681799530937
0.0215970389923692,18.0693199661892
0.0228281799020269,18.0704171401866
0.0239131153579794,18.0715114836582
0.0248302804917969,18.0726425868903
0.0255372717360402,18.0738663258157
0.0259447086459428,18.0752995180805
0.0257029455572859,18.077459256235
0.0249976470412053,18.0789556459516
0.0239530407165916,18.0804520356682
0.0227579399501431,18.0818455769872
0.0214164757468898,18.0832443300614
0.0199378316608735,18.0846973658851
0.0183308408337658,18.08624202327
0.0173100118737238,18.0872263090951
0.0163195659749562,18.0882105949203
0.0140936060990407,18.0906079423398
0.0122947242446754,18.092786134399
0.011020177161021,18.0945024358716
0.00986406928188364,18.0962187373443
0.0089226116003718,18.0977563118236
0.00810591652936301,18.0992157714354
0.00735095711808848,18.1006918316575
0.00661232383239958,18.1022806883201
0.00583167854448136,18.1041544952895
0.00489443169502089,18.1067521516842
0.00407311044563206,18.1094638068689
0.0034313440118546,18.111992711645
0.00287997140014202,18.1145852454171
0.00236236666275218,18.1175478840057
0.00190460279719361,18.120847795231
0.00152883571394665,18.1243904500612
0.00123434958281893,18.1282211042488
0.00102531979832153,18.132401636564
0.000916123616414136,18.1370134731085
0.000925364387607986,18.1411775691125
0.00102917409802433,18.1449219355732
0.00121419247530773,18.1482897238532
0.00147362291382588,18.1513266380084
0.0018055594573771,18.1540832110086
0.00221179281973071,18.1566076145939
0.00269828246187463,18.1589488357587
0.00327703752480229,18.1611597407666
0.00396809299616176,18.1632954713812
0.00481211457016972,18.1654370931832
0.00588585594990722,18.1676973678624
0.00735722446988932,18.1702778129915
0.00923933176649276,18.1730449796029
0.0107719709116161,18.1749950721899
0.0125076911037638,18.176945164777
0.014276350545488,18.1786893504795
0.0160906010817822,18.1802570500215
0.0180333996572553,18.1817230948123
0.0201590520481211,18.1831167881346
0.0225049316550931,18.1844472287459
0.0251236408375849,18.1857274627039
0.0280496134511331,18.1869574951262
0.0313350789053602,18.1881435012012
0.0350254137999025,18.189286608096
0.0391764908558876,18.1903898452212
0.0438518526616293,18.1914562369359
0.0491213021674703,18.1924882103952
0.0550693889860496,18.1934890235994
0.0617950932311305,18.194461940585
0.0694154585449977,18.1954102932994
0.0780702692267981,18.1963375432893
0.0879318431963193,18.1972476726276
0.0992113598261096,18.1981449163772
0.112172985567126,18.1990340331994
0.127152270678497,18.1999204766972
0.144587480198049,18.2008108727652
0.165065377868336,18.2017135029573
0.189409994720581,18.2026396406123
0.217624508071209,18.2035683983322
0.250339711506829,18.2045057471513
0.288467525096439,18.2054640702359
0.333403025821967,18.2064663169171
0.371912777089924,18.2072533317754
0.412374639080102,18.2080403466336
0.448140305630309,18.208727811768
0.479276876845603,18.2093444294165
0.506637293683213,18.2099278663335
0.530360866750017,18.2105035899121
0.550080657570828,18.2110949992498
0.564834327046679,18.2117329128857
0.57233964532799,18.2124776076703
0.568600944024772,18.2132434702836
0.552474803751722,18.2140451366326
0.522257186426353,18.2149021292536
0.477922742669386,18.215788785063
0.418689287785849,18.2167115061227
0.367823317767913,18.2173838270155
0.311417968887422,18.2180561479083
0.26236855726479,18.218605149108
0.221343123086017,18.2190534165138
0.185844078247457,18.2194424282246
0.154328981517198,18.2197957792966
0.125923698067778,18.2201271680131
0.100059057769058,18.2204460575877
0.0762933302969691,18.2207605385179
0.054190318313145,18.2210797544957
0.0331085171524826,18.2214190221681
0.0111147502705436,18.2218274521801
-0.000284680521828762,18.2220714360581
-0.00783810143257251,18.222250044397
-0.0147512990802179,18.2224286527359
-0.0207787468650618,18.2225990915883
-0.0269532486952489,18.2227915726244
-0.0330096109890821,18.223002910539
-0.0387466555248837,18.2232303172046
-0.0440498406944772,18.2234725839484
-0.0488574439870974,18.223729557409
-0.0531395237102315,18.2240018162543
-0.0568855873674833,18.2242905076314
-0.0600971533740684,18.2245972808479
-0.0627768594172992,18.2249242847273
-0.0649532921455017,18.2252789503744
-0.0665734361002471,18.2256520754698
-0.0677056681215087,18.2260551596616
-0.068363802289333,18.226493362867
-0.0685579674294143,18.2269730869087
-0.0682930578998659,18.2275025666427
-0.0675649087243501,18.2280933744176
-0.066354614108744,18.2287616017143
-0.0646215293570195,18.2295301347368
-0.0622822676519128,18.2304364083557
-0.0591436639942167,18.2315555402361
-0.0549383554819649,18.2329898539192
-0.0508250582776559,18.2343733555045
-0.0468679444616339,18.2357157334139
-0.0431022274019205,18.2370200079537
-0.0395466453342855,18.23828732093
-0.0362110817465718,18.2395178665787
-0.0330997206082007,18.2407113794318
-0.0302125811097787,18.2418673922793
-0.0275464314324792,18.2429853713494
-0.0250954517863742,18.2440647838124
-0.0228517878966471,18.2451051259715
-0.0208060448396584,18.246105927136
-0.0189477364246493,18.2470667373948
-0.0172656911992494,18.2479871038537
-0.0156801855120756,18.2489073361884
-0.0141538190495738,18.2498511903882
-0.0126909976040523,18.2508203023661
-0.0112956212709191,18.2518168075606
-0.00997138562769216,18.2528432145384
-0.00872172761800516,18.2539024990984
-0.00754977139936246,18.2549982265297
-0.00645827131639315,18.2561347165868
-0.00544955158812058,18.2573172713565
-0.00452544167276046,18.2585524987748
-0.00368720520754778,18.2598487872259
-0.00293545847001215,18.2612170298854
-0.00227007054377288,18.2626717856259
-0.00169002933358585,18.2642332589054
-0.00120989659608,18.2658663222697
-0.000827244741679738,18.2675482661668
-0.000525815027840809,18.2692974231575
-0.000290884863814308,18.2711357184342
-0.000108494357157619,18.2730926308972
3.50455999313091e-05,18.2752103231263
0.000153942941995267,18.2775545037864
0.000264573620969545,18.280241746053
0.000390600615231044,18.2835333584594
0.000543111320563979,18.2872787404289
0.000728339240018809,18.2913281046399
0.000969573163494759,18.2960799070373
0.00121374616128517,18.300605624971
0.00145166651129066,18.3049226727609
0.0016910915974783,18.3092718670499
0.00194792595148267,18.3139940948293
0.0022132332353117,18.3189410280963
0.00247338341191424,18.3238369418872
0.00272796769692964,18.3286373834779
0.00294893216447896,18.3327778232944
0.00315837857849272,18.336662434662
0.00336545589669196,18.3404475317056
0.00357531839396774,18.3442128565552
0.00379177703270066,18.3480103970477
0.00401818410834736,18.3518798352733
0.00425781088752978,18.3558545188372
0.00451410306464166,18.3599649983231
0.00479088316310268,18.3642412255981
0.0050925429994681,18.3687138955358
0.00542431450021854,18.3734156875745
0.00579270948498717,18.3783825965416
0.00619979037434202,18.3835743976614
0.00662133350346695,18.3886323293037
0.00706800419882363,18.3936544660548
0.00753982358786838,18.3985965892714
0.00804206744326588,18.4034684234467
0.00857995437671778,18.4082706107044
0.00915990775689615,18.4130078334385
0.00978898989763284,18.4176826309008
0.0104750001715285,18.422296041467
0.0112435078608345,18.4269455811453
0.0121085639407859,18.4316224408525
0.0130918361483082,18.4363428833605
0.0142230941160561,18.4411366006871
0.0155502218274001,18.4460735372481
0.0171697030614953,18.4513358524727
0.0193961162956395,18.4576140855221
0.0211003500542523,18.4619383837128
0.0228929271757509,18.4662626819034
0.0244183771271656,18.4699404077481
0.0256932911897601,18.4731887420814
0.0267594353463715,18.4762447999958
0.0276019981979237,18.479206082866
0.0281762541996927,18.4820376790613
0.028481405751022,18.4848602943652
0.0284881165114236,18.4878282197556
0.0280901277006327,18.4912643853593
0.0273049536201033,18.4946471219026
0.0261913289722813,18.4980298584459
0.0250948864791773,18.5007848763992
0.0240188226149748,18.5032265742062
0.0229444614551,18.5055227405987
0.0218698937995618,18.507741237588
0.0207978765981176,18.5099173343505
0.0197320655379522,18.5120733356437
0.0186761360897,18.5142250579768
0.0176335535956786,18.5163846168704
0.0166075139728233,18.5185618567766
0.015600935742674,18.5207651738571
0.0146164640573,18.5230020399172
0.0136564848564109,18.5252793448295
0.0127231324922633,18.5276036567749
0.0118183005309666,18.5299814163158
0.0109436541442039,18.5324190890353
0.0101006320065346,18.5349233260797
0.00929046138915125,18.5375010799578
0.00851377122456146,18.5401611424399
0.00774924984790149,18.5429974699283
0.00700081659514992,18.5460296451768
0.00627221482694892,18.5492814767684
0.00556739011294021,18.5527804099251
0.00489045975567827,18.5565582137289
0.00424564663206809,18.5606518559629
0.00363716819385315,18.5651047637705
0.00306906348895974,18.5699688771806
0.00254494234478726,18.5753083916713
0.00206771348761492,18.5812062832908
0.00163947453854995,18.5877735271447
0.00127172881146923,18.5949366142809
0.00096509752070945,18.6026888380439
0.000712972331543275,18.6111573699254
0.000516918757142923,18.6205107697891
0.000397531218219438,18.6288113176583
0.0002943136528628,18.6388113176583
0.000222402048896218,18.6488113176583
0.000172424729711374,18.6588113176583
0.000138176774954147,18.6688113176583
0.000115147848382872,18.6788113176583
0.000100011961101932,18.6888113176583
9.03856102650088e-05,18.6988113176583
8.46163021909481e-05,18.7088113176583
8.15810359096266e-05,18.7188113176583
8.05207412984228e-05,18.7288113176583
8.09214758873996e-05,18.7388113176583
8.24357292618322e-05,18.7488113176583
8.48314573016625e-05,18.7588113176583
8.79584463963306e-05,18.7688113176583
9.1725439447995e-05,18.7788113176583
9.6084355111696e-05,18.7888113176583
0.000101019515442881,18.7988113176583
0.000106540549486851,18.8088113176583
0.00011267803248399,18.8188113176583
0.00011948119111553,18.8288113176583
0.000127017229485679,18.8388113176584
0.000135372020520553,18.8488113176584
0.000144652067505604,18.8588113176584
0.0001549877820971,18.8688113176584
0.000166538265955263,18.8788113176584
0.000179497944508299,18.8888113176584
0.000194105609401915,18.8988113176584
0.000210656716687315,18.9088113176584
0.000229520215042391,18.9188113176584
0.000251161830182257,18.9288113176584
0.000276176756202848,18.9388113176584
0.000305336359648438,18.9488113176584
0.000339656250103618,18.9588113176584
0.000380497769235513,18.9688113176584
0.000429723243690965,18.9788113176584
0.000488221617854979,18.9885490827716
0.000554606996160414,18.9975525495142
0.00062974620306939,19.0058597628663
0.000714773714647098,19.0135246545645
0.000811003533099235,19.0205979044446
0.000919931370901627,19.0271265032448
0.00104325278736934,19.033154039723
0.00118288811355219,19.0387209732736
0.00134101329477598,19.0438648495432
0.00152009366356024,19.0486205027261
0.00172292440760077,19.0530202676351
0.0019526779861904,19.0570941925771
0.00221296230593486,19.0608702233161
0.00250788699005814,19.06437437051
0.00284215118327311,19.0676308972324
0.0032211521030403,19.0706625193703
0.00365112627348657,19.0734905969307
0.00413933939350677,19.0761353555257
0.00469434831999367,19.0786161590889
0.00532637707926801,19.080951840614
0.00604276066238976,19.0831468478076
0.00683337608076972,19.085167675734
0.00770799612541226,19.0870482673099
0.00868143384726331,19.0888227497377
0.00977668375983353,19.090527407258
0.0110342482992274,19.0922089195881
0.0125776098587762,19.0939870900921
0.0148262933440974,19.0962054166872
0.0164613946224568,19.0976425387924
0.0181998696740673,19.0990796608976
0.0197931644574807,19.1003651322237
0.0212104195573433,19.1015273677189
0.0224826415025666,19.1026325523175
0.0236118448697835,19.1037238704826
0.0245813424516823,19.1048395816971
0.025356018554297,19.1060283879295
0.0258660292034937,19.1073798838188
0.0259072928619376,19.1091873064012
0.0253694197047268,19.1107981692663
0.024389044425547,19.1124090321315
0.0232519858365121,19.1138268346392
0.0219681596876911,19.1152161503458
0.0205432797654216,19.1166428467445
0.0189869876458305,19.1181462806994
0.0173051953958696,19.1197654761409
0.0158696132923985,19.1212075714557
0.013647565916612,19.1236595772839
0.0120274495603128,19.1256671723955
0.0105770547065539,19.1276747675071
0.00948892465843926,19.1293491254505
0.00860364790145772,19.1308454462066
0.00781605984531083,19.1323010845104
0.00707254971317807,19.1338066350617
0.00632701781198452,19.1354741855771
0.0055007999588116,19.13755665387
0.00460435109309384,19.1401894008774
0.00383185461299669,19.1428985270872
0.00322714072627663,19.1454334581925
0.00269087118876928,19.1481302190036
0.00218033044563036,19.1512977351925
0.00175350122526174,19.154686126918
0.00140826969154347,19.1583310015731
0.00114507845646999,19.1622852946891
0.000971167592946633,19.166617422441
0.000907319916382438,19.1711200030877
0.000953120463812792,19.1751228094959
0.00108764657910026,19.1787247660753
0.0013003554765025,19.1819673016178
0.00158633071049698,19.1848970797436
0.00194495710884807,19.1875632402758
0.00237956700713921,19.1900152386558
0.00289798157753989,19.1923026914059
0.00351510843657097,19.1944802843758
0.00425560291953559,19.1966065281658
0.00517055376366161,19.1987731787953
0.00636181947226537,19.2011194958981
0.00801562093630888,19.2038358033297
0.0100287069677943,19.2066133606434
0.0115472549678153,19.2084323154862
0.0132613635898627,19.2102512703291
0.0150409721472193,19.2119103629304
0.0169003333580637,19.2134275257426
0.0189178672471808,19.2148620822938
0.0211329375816031,19.2162276846767
0.023589576643938,19.2175356414328
0.0263348331585051,19.2187941044692
0.0294088692369922,19.2200049923519
0.0328606137096573,19.2211720946669
0.0367427761917533,19.2222983255035
0.0411090298464488,19.2233851854023
0.0460288542932704,19.2244364106709
0.0515785569441152,19.2254548316829
0.0578460057974992,19.2264432504102
0.0649384478149792,19.2274051672686
0.0729825801972777,19.2283440346111
0.0821313161091886,19.2292635291195
0.0925707922680851,19.2301675773594
0.104533735756072,19.2310607014318
0.118312393458015,19.2319479454153
0.134282101030378,19.2328352189281
0.152936327678359,19.2337297041692
0.174948871246784,19.234640750339
0.200894594948748,19.2355684177357
0.230926959616199,19.2364996447329
0.265811679171421,19.2374440151068
0.306614072440764,19.2384171138575
0.355147190869613,19.2394515204532
0.391666670051474,19.2401754799757
0.429292145738136,19.2408994394982
0.4627387006726,19.2415477339069
0.492107585146115,19.2421456168366
0.517837044179003,19.2427227330711
0.539823246358344,19.2433024702856
0.557464003965445,19.2439101790986
0.569364930490636,19.2445853404708
0.572163897035646,19.2453404056564
0.563232604369544,19.2461191505339
0.541264873139192,19.246942537615
0.504251031151586,19.247828521249
0.453478644907377,19.2487289274884
0.388766520238305,19.249651213353
0.341241233663182,19.2502425901279
0.289941995631499,19.2508339669027
0.244846730491702,19.2513317496611
0.206352569215035,19.251751705942
0.172612334421849,19.2521240903534
0.14244419829817,19.2524671841522
0.115130256604231,19.2527924787613
0.0901689634649722,19.2531086035722
0.0671362130912382,19.2534237364744
0.0455518088103451,19.2537485401251
0.0245223454079802,19.2541051115889
0.00745755347781032,19.2544374810387
-0.00183160746217335,19.2546414512005
-0.0102582985735239,19.2548454213623
-0.0168949763998809,19.2550222011045
-0.0230032417878015,19.2552007946486
-0.0291655912167073,19.2554005309013
-0.0351245008944179,19.2556178954304
-0.0407148032724967,19.2558507409895
-0.0458442221162974,19.2560982908588
-0.0504643712020179,19.2563606830936
-0.0545534335129761,19.2566387143244
-0.0581059323292611,19.2569337167591
-0.0611264668379497,19.2572475175141
-0.0637389500047276,19.2576020382722
-0.0656602007158771,19.2579593034769
-0.0670834653568113,19.2583438041456
-0.0680248793491577,19.258760240214
-0.0684967308256356,19.2592141700953
-0.0685073269309491,19.2597126532318
-0.0680587615104692,19.2602648605961
-0.0671413370378294,19.2608843919456
-0.0657289045028572,19.2615893434847
-0.0637675012909412,19.262407115827
-0.0611434821697649,19.2633855074545
-0.0575605770722318,19.2646351120284
-0.0533825781593362,19.2660475648376
-0.0493222079238678,19.267415191261
-0.0454338824231466,19.2687431144645
-0.0417452939479951,19.2700335044746
-0.0382713325184111,19.2712870751519
-0.0350195090474482,19.2725038101584
-0.0319923191133071,19.2736833483907
-0.0291884782610248,19.2748251875055
-0.0266037171014057,19.2759287894508
-0.0242313938002731,19.2769936310164
-0.0220630222340682,19.2780192217203
-0.0200887487850079,19.2790051009901
-0.0182977856736693,19.279950821255
-0.0166774490803023,19.2808566987129
-0.0151129454392962,19.2817855301995
-0.0136094364561409,19.2827384261531
-0.0121709226125962,19.2837173258218
-0.0108012365397208,19.284724491287
-0.00950398504182092,19.2857625905008
-0.00828249674319419,19.2868347994747
-0.00713976689106928,19.287944938418
-0.00607839920328632,19.2890976569314
-0.0051005441375068,19.2902986922587
-0.00420783221671226,19.2915552401235
-0.00340129973449309,19.2928765062043
-0.00268130171073397,19.2942745619756
-0.00204740202671013,19.295765745468
-0.00149821975779407,19.2973731163524
-0.00105663064485376,19.299021973105
-0.000706073282547085,19.3007267951748
-0.000431132169133277,19.3025063235426
-0.00021741393236273,19.3043849077793
-5.11279948597451e-05,19.3063959588374
8.14899448624837e-05,19.3085886523721
0.000195179225117893,19.3110428657383
0.000308033273752733,19.3139104423496
0.000450654550960735,19.3175869576542
0.00061279548578813,19.3213925197694
0.000817676071865716,19.3256719654881
0.00106544296413188,19.330412618417
0.00130678004600577,19.3348324567685
0.00154404484291329,19.3391313282756
0.0017875990993983,19.3435724715943
0.00206036712055278,19.3486193866733
0.00232222568835987,19.3535232964086
0.00258478691207354,19.3584741237293
0.00282064143453139,19.3629119012826
0.00303525284913447,19.3669189105476
0.00324294793864739,19.37075018797
0.00345064467737377,19.3745196777703
0.003662780030507,19.3782927929427
0.00388291039731612,19.382115383255
0.00411432076749156,19.3860240408382
0.00436032410602302,19.3900505903881
0.0046244994295071,19.3942251667487
0.00491087597654791,19.3985778755093
0.00522414875402565,19.403140068119
0.00557000642740532,19.4079456176112
0.00595566659876278,19.4130321751058
0.00636772372216667,19.4181614413181
0.0067994565166029,19.4232103846143
0.00725579482732816,19.4281996121576
0.00773938241972955,19.4331134539555
0.00825534854672109,19.4379565161023
0.00880947195637433,19.4427319665212
0.00940843787591727,19.4474436732458
0.0100596026164228,19.4520935611314
0.0107772182701002,19.4567198285618
0.0115828627588603,19.4613795631153
0.0124931014741916,19.4660718689567
0.0135323056983309,19.4708170203435
0.0147358870611508,19.4756568849105
0.0161653024281349,19.4806924997067
0.017963697060058,19.486214556312
0.0203797020970293,19.4926807442554
0.021950318470008,19.4965389571759
0.0235614566161939,19.5003971700964
0.0249687910846077,19.5038447833742
0.0261556433327089,19.5069918977427
0.0271372284210158,19.5100142247571
0.0278687551931446,19.5129075534679
0.0283342064980091,19.5157198813506
0.028523290018879,19.5185791780719
0.0283861202944842,19.5216777673782
0.0277216369807241,19.5255807889831
0.0268839164985785,19.5285677777
0.0258137737024901,19.5315547664168
0.0247341127043495,19.53415867336
0.0236599987292423,19.5365392820496
0.0225854421624602,19.538804228589
0.0215113497051797,19.5410055079072
0.0204409947097494,19.5431728316282
0.0193780887296813,19.5453258798478
0.0183262490248682,19.5474790171432
0.0172888549067656,19.5496434789183
0.0162690085821194,19.5518285556102
0.0152695365335434,19.5540422868843
0.0142929963172686,19.5562919168628
0.0133416875679592,19.5585842060756
0.0124176653419673,19.5609256551627
0.0115227448285882,19.5633226989956
0.0106585127943215,19.5657818550232
0.00982633956723391,19.568309851399
0.00902737993691044,19.5709137817557
0.008254415478978,19.5736311050123
0.00749491656316164,19.5765309952213
0.00675274649197055,19.5796343887291
0.00603171704985964,19.5829662456147
0.00533583499828449,19.5865553940929
0.00466926297608426,19.5904352417911
0.00403623771034378,19.5946447610187
0.00344093944743127,19.5992299580454
0.00288729434032451,19.6042463606394
0.00237869999624725,19.6097636372098
0.00191779236693528,19.6158730586808
0.00150642352984011,19.6226973186969
0.00116029734269624,19.6300507491848
0.000873037802677256,19.6380317954644
0.000680352930142321,19.645002114272
0.00053684076941308,19.6519724330797
0.000396097880502754,19.6614879110714
0.00029323700731489,19.6714879110714
0.000221588185657372,19.6814879110714
0.000171840236209897,19.6914879110714
0.000137779531614748,19.7014879110714
0.000114888553340792,19.7114879110714
9.98475338653502e-05,19.7214879110714
9.02850473644107e-05,19.7314879110714
8.45595028896718e-05,19.7414879110714
8.15553339422436e-05,19.7514879110714
8.05179411417467e-05,19.7614879110714
8.09360580968369e-05,19.7714879110714
8.24639147762158e-05,19.7814879110714
8.48707083928933e-05,19.7914879110714
8.80071502203991e-05,19.8014879110714
9.17826753361987e-05,19.8114879110714
9.61497201224001e-05,19.8214879110714
0.000101093001240092,19.8314879110714
0.000106622463012405,19.8414879110714
0.00011276895106512,19.8514879110714
0.000119581943710468,19.8614879110714
0.000127128898517278,19.8714879110715
0.000135495961618422,19.8814879110715
0.000144789946872165,19.8914879110715
0.000155141633251442,19.9014879110715
0.000166710569669511,19.9114879110715
0.000179691738252556,19.9214879110715
0.000194324636013308,19.9314879110715
0.000210905626889456,19.9414879110715
0.000229804845817752,19.9514879110715
0.000251489592425536,19.9614879110715
0.000276557183277115,19.9714879110715
0.000305781898229574,19.9814879110715
0.00033747335979688,19.9907439555357
0.00037464077061687,20
