ecg,time
0.0152287200548161,15.0012692523474
0.0168143262414771,15.0064602367882
0.0189276232204159,15.012489130301
0.0207133675320849,15.0170581207123
0.0226081308079693,15.0216271111236
0.024183252886857,15.0253973995218
0.0254897222343427,15.0286823669794
0.0265836812509903,15.0317529576058
0.027460444407086,15.0347366784802
0.0280670174746234,15.0375772636656
0.0284051130871822,15.0403949555973
0.0284497865453878,15.0433378663883
0.0281092426427734,15.0466943465251
0.0270972564649796,15.0510395686047
0.0262007494162267,15.0537239780481
0.0251436626511463,15.0564083874915
0.0240723956383132,15.0588595379288
0.0229998704240902,15.0611644727066
0.0219266489681058,15.0633881206308
0.0208555753313473,15.0655669760476
0.0197903228527086,15.0677240947281
0.0187346060297145,15.0698757010552
0.0176919325370794,15.0720341482447
0.0166655433603911,15.0742094131111
0.0156583984699274,15.0764099646803
0.0146731842220838,15.0786432986074
0.0137123272957749,15.0809162888505
0.0127779983958764,15.0832354612843
0.0118721302391869,15.0856071710049
0.0109964231573924,15.0880377690871
0.0101523509680506,15.0905337480879
0.00934117287523205,15.0931018593499
0.00856393916269573,15.0957492445249
0.00779939102957866,15.0985684823439
0.00705055063418695,15.1015815677278
0.00632114924366034,15.1048119600401
0.00561512123086774,15.1082867397147
0.00493657454848909,15.1120372549355
0.00428972792998646,15.116099979667
0.00367880327766165,15.1205177504006
0.00310785435058625,15.1253417944356
0.00258053880160259,15.13063519117
0.00209981481851984,15.1364794811031
0.00166783795693631,15.1429836132369
0.00129534289322527,15.1500971280005
0.000984686152658965,15.1577901545413
0.000729139747513618,15.1661867824742
0.000522414495535201,15.1754519660668
0.000365049910269165,15.1854519660668
0.000262996494792553,15.1952813625212
0.000192009667586324,15.2052813625212
0.000142706637351911,15.2152813625212
0.000108408585549041,15.2252813625212
8.48226298995173e-05,15.2352813625212
6.88818097715886e-05,15.2452813625212
5.83242141194178e-05,15.2552813625212
5.15150718034407e-05,15.2652813625212
4.73103524633361e-05,15.2752813625212
4.49270520033163e-05,15.2852813625212
4.38330474886671e-05,15.2952813625212
4.36656414256305e-05,15.3052813625212
4.41765439407767e-05,15.3152813625212
4.51959606713807e-05,15.3252813625212
4.66088773080613e-05,15.3352813625212
4.83389033072982e-05,15.3452813625212
5.03370023750935e-05,15.3552813625212
5.25735898759769e-05,15.3652813625212
5.50330406766639e-05,15.3752813625212
5.77099319268696e-05,15.3852813625212
6.06065220245993e-05,15.3952813625212
6.37311035242919e-05,15.4052813625212
6.70969764253333e-05,15.4152813625212
7.07218702466591e-05,15.4252813625212
7.46277018679113e-05,15.4352813625212
7.88405971037643e-05,15.4452813625212
8.33911332029718e-05,15.4552813625212
8.83147814200828e-05,15.4652813625212
9.36525465866817e-05,15.4752813625212
9.94518163687386e-05,15.4852813625212
0.000105767448343718,15.4952813625212
0.000112663139761931,15.5052813625212
0.000120213144601598,15.5152813625212
0.000128504427382219,15.5252813625212
0.000137639375921025,15.5352813625212
0.000147739239640981,15.5452813625212
0.000158948521733542,15.5552813625212
0.000171440640756855,15.5652813625212
0.000185425302804029,15.5752813625212
0.000201158208990036,15.5852813625212
0.000218953996133603,15.5952813625212
0.000239203722203955,15.6052813625212
0.000262398847068822,15.6152813625212
0.00028916466726422,15.6252813625212
0.000320307791982792,15.6352813625212
0.000356884946933592,15.6452813625212
0.000400304998266622,15.6552813625212
0.000449185248967111,15.6646893120541
0.000502850233345496,15.6733325179213
0.000561512523898792,15.6812682434631
0.000625463681254886,15.6885575675057
0.000695013431023112,15.6952564995359
0.000770474654891417,15.7014162006572
0.000852162133526989,15.7070837596931
0.000940386249776094,15.7123021724914
0.00103546012140759,15.7171109029159
0.00113769962451596,15.7215463109547
0.00124742864038347,15.7256417040631
0.00136498735794077,15.7294278794015
0.00149073715029521,15.7329331487568
0.00162508335417464,15.7361837675862
0.00176848478724173,15.7392040476264
0.00192149077457066,15.7420166937217
0.00208477841345356,15.7446430256078
0.00225920779286327,15.7471032915531
0.00244591373067935,15.7494170489589
0.0026464381904173,15.7516036325849
0.00286294865330138,15.7536829005279
0.0030986201060128,15.7556764002874
0.00335836268226355,15.7576095404105
0.00365038055335345,15.7595162242823
0.00399019310674023,15.7614508435141
0.00441486475059252,15.7635313200739
0.00497303317484988,15.7658323911439
0.00543807518478022,15.7674633399376
0.00597335064333208,15.7690942887312
0.00652077965551289,15.770547695023
0.00710808381738123,15.7719166425075
0.00778023127163479,15.773292095515
0.00860425928532908,15.7747606331911
0.00962633006550213,15.7763278443137
0.0107681273856572,15.7778298225943
0.0120621199532523,15.7792983868259
0.0136387517795971,15.7808449443824
0.0157424001566643,15.7826212779739
0.0177751501710859,15.7841314372469
0.019995803312447,15.78564159652
0.0219139778192299,15.7868889824458
0.0235893376681816,15.7879786268228
0.0250987549141732,15.7890003188182
0.0264578826925431,15.7900004164689
0.0276565072427835,15.7910149626114
0.028665867702692,15.7920858079238
0.0294291387031374,15.7932829679497
0.0298052110425416,15.7947965653747
0.0295029728100367,15.7964443783087
0.0285828061124435,15.7980921912426
0.0274683871230125,15.7994604229818
0.0261861600129063,15.8007836832915
0.0247361697823382,15.8021465363802
0.0231280275089066,15.8035919796253
0.0213686684905252,15.8051609828473
0.0201050147245224,15.8063073886943
0.0189021794022455,15.8074537945414
0.0162928360900163,15.8102120909856
0.0137540112115477,15.8134167341405
0.0119062159171885,15.8162838964952
0.0105500285449634,15.8188872073553
0.009527395821268,15.8213554291761
0.00873651465873172,15.8238604456158
0.00817364382392244,15.8264324627055
0.00786553726451496,15.8289438818163
0.00779843519019746,15.8312538634078
0.00793382480551482,15.8334122495179
0.00825537562467983,15.8354735032223
0.00877073330877744,15.8375054926677
0.0095199508770215,15.8395958295482
0.0106256039441753,15.841923844925
0.0122430738235593,15.844588671435
0.014299115012462,15.8473258555055
0.0158417200257893,15.8490732888813
0.0176007529324102,15.8508207222572
0.0194310180908344,15.8524068483609
0.0213751298900225,15.8538743872944
0.0234913772759898,15.8552614967784
0.0258280495035227,15.8565864613162
0.0284292791070398,15.857858374353
0.0313379522250586,15.8590819609575
0.0345988464190682,15.86026040396
0.038260195148966,15.8613962814538
0.0423754657258128,15.8624920776461
0.0470051595902784,15.8635503782024
0.0522187249509239,15.8645739149701
0.0580967305064791,15.8655655585184
0.0647335350648149,15.8665283119769
0.0722410079491345,15.8674653581823
0.0807522875053087,15.8683799943622
0.0904280724860256,15.8692757466383
0.101463852218569,15.8701563813337
0.114100446139096,15.871026010905
0.12863837754448,15.8718892135187
0.145458480789669,15.8727512166325
0.165053456925092,15.8736182239307
0.188081520899685,15.8744980816981
0.215375151301556,15.8753988326523
0.246922450130569,15.8763009247424
0.283500061118604,15.8772131662242
0.32620395604719,15.8781507584837
0.376961164814654,15.8791471157096
0.413791147887691,15.8798217388354
0.451553354925589,15.8804963619612
0.485201469843161,15.8811050882466
0.514858616138847,15.8816718285658
0.540896117424548,15.8822240368016
0.56314767030654,15.8827847969643
0.580914183485233,15.8833815683371
0.592528362702692,15.8840629717963
0.593960340050163,15.8848011135048
0.583243703415321,15.8855703751045
0.558897902772016,15.8863930141692
0.522453896702606,15.8872148078912
0.472220707644066,15.8880780413453
0.406773303962322,15.8889912648819
0.356607618739743,15.8896025566484
0.302293789367764,15.8902138484149
0.254977060568352,15.8907226888463
0.215014495285173,15.8911469856317
0.180210460173998,15.8915206028466
0.149205111371964,15.8918634128203
0.121198469564062,15.8921875361302
0.0956462212951683,15.8925018527742
0.0720996913417923,15.8928145891658
0.050066106283125,15.8931362193421
0.028663392052656,15.8934878394486
0.0106592138010695,15.8938279742402
0.00106554849048216,15.8940328574579
-0.00762715991244191,15.8942377406756
-0.0143416046835694,15.8944119538646
-0.0205066042878446,15.8945873897349
-0.0267432365071278,15.8947839293529
-0.0327871932318166,15.8949980477422
-0.0384679834465437,15.8952275672332
-0.0436899538611163,15.8954716795505
-0.0484026796006786,15.8957304920211
-0.052583190194841,15.8960047706526
-0.0562254484885389,15.8962958158575
-0.0593339044457253,15.8966054204458
-0.0619193511837452,15.896935884506
-0.0640381943038674,15.8973007692788
-0.0655683607808526,15.8976793235272
-0.0666154023632419,15.8980890633912
-0.0671935313259719,15.898535591401
-0.0673125083274809,15.899025825098
-0.0669762576453981,15.8995687436486
-0.0661780031621718,15.9001774673516
-0.0648950469548553,15.9008697617266
-0.0630787990415418,15.9016722038396
-0.060625867477604,15.9026307185754
-0.0572698199029115,15.9038492000536
-0.0532145316704581,15.9052705044593
-0.049265041771375,15.9066464968705
-0.04547954971464,15.9079830607279
-0.0418880628260362,15.9092824310662
-0.0385066882942641,15.9105453305899
-0.0353437116754678,15.911771724752
-0.0324021919328568,15.9129612217093
-0.0296812785454931,15.9141132839586
-0.0271770339174245,15.9152273386295
-0.0248830557722176,15.916302831153
-0.0227910090689685,15.9173392454384
-0.0208911062253037,15.9183361028998
-0.0191725462125449,15.9192929471526
-0.0176239099340082,15.9202093181772
-0.0161613836562769,15.9211316946019
-0.0147611541424256,15.9220778063395
-0.0134275394135675,15.9230493684249
-0.0121644602779001,15.92404854726
-0.010975623419512,15.9250778906653
-0.00986446633783022,15.9261404239048
-0.00883410090973423,15.9272397753323
-0.00788725361648142,15.9283803462914
-0.00702620190688643,15.9295675463607
-0.00625270555101995,15.9308081283074
-0.00556793089205974,15.9321106811546
-0.00497236424820685,15.9334863858697
-0.00446570748689826,15.9349502328777
-0.00404674279422386,15.9365231126196
-0.00372556012954792,15.9381599437136
-0.00349277263014026,15.9398474412304
-0.00333185532706808,15.9416039995355
-0.0032273800677465,15.9434521236853
-0.00316435101275426,15.9454222222768
-0.00312755758712,15.947558093651
-0.00310047608719719,15.9499286790358
-0.00306285192881359,15.9526582823123
-0.00298284930949798,15.9560349812951
-0.00285440291490786,15.9594264813328
-0.00269384326311415,15.9625506860012
-0.00250687471595767,15.9655517682362
-0.00229820223968722,15.9685065229159
-0.00207178143232103,15.9714605736779
-0.00183076581096287,15.9744457238709
-0.00157755422722705,15.9774867737596
-0.00131387539194875,15.9806047031569
-0.00104086956564741,15.9838184397387
-0.000759165681498428,15.9871458922446
-0.000468950906842512,15.9906046383194
-0.000170026684903134,15.9942125020954
0.000138155695341772,15.9979881423031
0.00045649955511309,16.0019518568087
0.00078634079711928,16.0061269645934
0.00112964840918312,16.0105423320122
0.00148939227174233,16.0152365437845
0.00187016365189857,16.0202646103894
0.00225530485713344,16.0253871213919
0.00261303559647699,16.0301498735031
0.00293208728309653,16.0343806314151
0.0032374924438127,16.0383995325172
0.00354059817325961,16.0423416674931
0.00384835892495481,16.0462811804756
0.00416621331535111,16.0502683778599
0.00449919346758569,16.0543430637275
0.00485242141241826,16.0585395178247
0.0052314987045829,16.0628895715101
0.00564290131652111,16.0674247961328
0.00609444673350793,16.0721779300082
0.00659597263014399,16.0771839971605
0.00711710389913301,16.0820840868343
0.00767030190271843,16.0869610931899
0.00825606096131822,16.0917736907098
0.00888002087430625,16.0965212629563
0.00954824611408286,16.1011990456091
0.0102694449074748,16.1058136079302
0.0110698759123721,16.1104607610313
0.0119637122824907,16.1151318485321
0.0129734679430825,16.1198457656099
0.0141299547510145,16.1246345709951
0.0154827546848129,16.1295714940626
0.0171324421535784,16.1348467031576
0.0194163471511761,16.1411996866705
0.0211114869523284,16.1454567801742
0.0228873507339428,16.1497138736779
0.0244055107336142,16.153362865847
0.025676093869,16.1565994765069
0.0267376187771683,16.1596517544593
0.0275714921291701,16.1626044973634
0.0281369032039909,16.1654332224845
0.0284322403846423,16.16825921998
0.0284263210421657,16.1712401596755
0.028005682829867,16.174717657647
0.0272190970160546,16.1780447447164
0.0261172547345926,16.1813718317859
0.0250255550207416,16.1841105920881
0.0239515162333775,16.1865469335007
0.0228786498555265,16.1888405940574
0.0218054797754605,16.1910577725561
0.0207348647444282,16.1932332319977
0.0196704981000204,16.1953890465769
0.0186160767820889,16.1975408975664
0.0175750806215831,16.1997008102143
0.0165507174985989,16.2018785592283
0.0155459175228549,16.2040824781397
0.0145633356334109,16.2063199803141
0.0136053696942664,16.2085978876067
0.0126741629964677,16.210922697782
0.0117716202470599,16.2133007614611
0.0108994175634341,16.2157384343118
0.0100590026236787,16.2182422359313
0.00925161173828764,16.2208189520519
0.00847637562257238,16.223482547901
0.00771342972898232,16.2263227528277
0.00696661438791445,16.2293592676023
0.00623967504471658,16.2326159679177
0.00553656698313506,16.2361203860825
0.00486141499463375,16.2399044013476
0.00421844474221216,16.2440051354227
0.00361186902642879,16.2484662514864
0.00304571166909023,16.2533400830453
0.00252355673254225,16.2586914893665
0.00204827937779881,16.2646045603088
0.00162194625678788,16.2711920252565
0.00125686022316546,16.2783666330092
0.000952834833642782,16.2861330235587
0.000703172915543791,16.2946196679215
0.000501646631804626,16.3039968479491
0.000351221349818173,16.3139968479491
0.000252068652035058,16.3239968479491
0.000184498174602725,16.3339968479491
0.00013752526008954,16.3439968479491
0.000104850975969809,16.3539968479491
8.24054987225769e-05,16.3639968479491
6.7264243576625e-05,16.3739968479491
5.72649093905335e-05,16.3839968479491
5.0845100190631e-05,16.3939968479491
4.69128865476493e-05,16.4039968479491
4.47218597563113e-05,16.4139968479491
4.37651274269892e-05,16.4239968479491
4.36972884318882e-05,16.4339968479491
4.42819650503063e-05,16.4439968479491
4.53576377853491e-05,16.4539968479491
4.68150847512716e-05,16.4639968479491
4.85819929348852e-05,16.4739968479491
5.06122123414908e-05,16.4839968479491
5.28782193302869e-05,16.4939968479491
5.53658830137539e-05,16.5039968479491
5.80708909224939e-05,16.5139968479491
6.09963572200653e-05,16.5239968479491
6.41512673435116e-05,16.5339968479491
6.75495172869067e-05,16.5439968479491
7.12093843813444e-05,16.5539968479491
7.51533225441177e-05,16.5639968479491
7.9408014255569e-05,16.5739968479491
8.40046396341799e-05,16.5839968479491
8.89793442506136e-05,16.5939968479491
9.43739047230025e-05,16.6039968479491
0.000100236606758141,16.6139968479491
0.000106623365823935,16.6239968479491
0.000113599137656354,16.6339968479491
0.000121239686081408,16.6439968479491
0.000129633801331041,16.6539968479491
0.00013888609601879,16.6639968479491
0.000149120552235986,16.6739968479491
0.000160485057687147,16.6839968479491
0.000173157260172399,16.6939968479491
0.000187352201472501,16.7039968479491
0.000203332384778987,16.7139968479492
0.000221421217682224,16.7239968479492
0.000242021209816036,16.7339968479492
0.000265638981143536,16.7439968479492
0.000292920207986211,16.7539968479492
0.000324699369570861,16.7639968479492
0.000362072045242927,16.7739968479492
0.000406502458164729,16.7839968479492
0.000456020866819732,16.793302626167
0.000510334813038963,16.8018482994994
0.000569680851082773,16.8096947994987
0.000634355520068985,16.8169026338469
0.000704669764167893,16.8235271324635
0.000780936924991352,16.8296188805236
0.000863471502527277,16.8352244307078
0.000952583414270178,16.8403862448783
0.00104858645564747,16.8451433960366
0.00115179705791492,16.8495318032842
0.00126254030191176,16.8535844335428
0.00138115948531702,16.8573317348561
0.00150801976269244,16.8608017350413
0.00164353253266935,16.8640204125482
0.00178816743173412,16.8670118578604
0.00194248662371497,16.869798568604
0.00210718853151317,16.872401710886
0.00228316385002704,16.8748414118869
0.00247159141625025,16.8771371702277
0.00267408104419101,16.8793083413225
0.00289290733238216,16.8813749241836
0.00313142198042407,16.8833588232787
0.00339485286016899,16.8852862222239
0.00369205104374958,16.8871927762724
0.00404013924393532,16.8891375002929
0.00448199680028855,16.8912557807899
0.0050493729909218,16.893540187515
0.00551181877279744,16.8951265421012
0.0060424659679121,16.8967128966873
0.006592173585278,16.8981479539515
0.00718752673987922,16.8995131784655
0.00787442103565214,16.9008952498818
0.00872530146223247,16.9023837188271
0.00976106023722199,16.9039414864925
0.0109195077673484,16.9054372644235
0.012241111548573,16.9069100705285
0.0138644145158021,16.9084733734877
0.0160776824080259,16.9103061017539
0.0180383066977976,16.9117406965772
0.0201621637232807,16.9131752914004
0.0220479962277789,16.9143997986776
0.0237087362163331,16.9154817012289
0.0252066812888681,16.9165003908506
0.0265542705357768,16.917500333892
0.0277398508660779,16.9185175018702
0.0287331017821064,16.9195948441561
0.0294739759928858,16.9208063495771
0.0298072398511009,16.9223639341605
0.0294553013887579,16.9239873757069
0.0285145783683432,16.9256108172532
0.0273889794353656,16.9269719110599
0.0260954384200972,16.9282961093949
0.024634737579636,16.9296632096028
0.0230165130388491,16.9311154484478
0.0212472728441671,16.9326942843386
0.0205738817536129,16.9333027897088
0.0199132895820475,16.9339112950791
0.0185620705827318,16.935216051104
0.0159198813865306,16.9380699767016
0.0134866612373185,16.9412224374615
0.0117139123715743,16.9440465100798
0.0104069327894426,16.946624982889
0.00941460576745481,16.9490960244106
0.00865245463594429,16.9516082152297
0.00811934827912382,16.9541903914443
0.0078450145064293,16.9566731746069
0.00780541593495264,16.9589609556007
0.00796503502384004,16.9611036753864
0.00831037026012614,16.9631571079896
0.00885250299064673,16.9651909243318
0.00963780558010802,16.9672988870085
0.010806857036276,16.9696791213594
0.0124815161093033,16.9723592158449
0.0140905257426539,16.9744944516121
0.0159678323877594,16.9766296873792
0.0177878736491474,16.9784161218725
0.0196300152588846,16.9799897868227
0.0215894795281463,16.9814473011535
0.0237268722585798,16.9828272678744
0.0260894328351567,16.9841463305997
0.0287210232524359,16.9854129505766
0.0316646920705808,16.9866316421686
0.0349654821243854,16.9878054780522
0.0386720844705915,16.9889370064269
0.0428386309487009,16.9900287200081
0.0475264709957727,16.9910832188094
0.0528061197639462,16.9921032506407
0.0587594703103321,16.9930917010139
0.0654825335336159,16.9940515887581
0.0730892162310376,16.9949861097933
0.081715253325306,16.9958985820929
0.0915246249853328,16.99679255484
0.102717055091084,16.9976718260818
0.115538892915021,16.9985405504809
0.130298024066767,16.9994033645167
0.147385343218011,17.0002655797945
0.167307914294062,17.0011335322818
0.190746254336743,17.002015309832
0.218452259499813,17.0029158763442
0.250483618458557,17.0038185418924
0.287640542052665,17.0047325455408
0.331069961403395,17.0056741747678
0.38285856064522,17.0066803631593
0.419199585131363,17.0073420779184
0.456265129805562,17.0080037926776
0.489330736337743,17.0086048221519
0.518501423193936,17.0091682362476
0.544059470584825,17.0097202502129
0.56577292690282,17.0102839713931
0.582855530436159,17.0108883060201
0.593419464058452,17.0115875825635
0.593225941954456,17.0123286907493
0.580724749050261,17.0131040662913
0.554324106545176,17.0139357608761
0.516110270293984,17.0147593921071
0.463606517531747,17.0156319426731
0.396526293049713,17.0165441769723
0.347563318654422,17.0171305061403
0.294969705845727,17.0177168353082
0.248975614513334,17.0182096752894
0.209864900770209,17.018625041776
0.175658759489992,17.0189933797207
0.145113749517996,17.0193329484043
0.11748032478699,17.0196552012398
0.0922355105146493,17.0199687874372
0.0689339844387449,17.0202820345485
0.0470597867348653,17.0206061325724
0.0255987818978344,17.0209655851025
0.00956801215426751,17.0212735318486
0.000405544007954362,17.0214709237983
-0.00792323291643825,17.0216683157481
-0.0145844772871372,17.0218417759057
-0.0207590751762353,17.022018156173
-0.026992591917546,17.0222154721287
-0.0330245562446028,17.0224302437946
-0.0386882837522279,17.0226603610641
-0.0438904299911122,17.0229050600513
-0.0485819606542357,17.0231644785506
-0.0527407577269019,17.0234394058868
-0.0563613126783278,17.0237311627364
-0.0594484006637697,17.0240415617792
-0.0620130053329654,17.0243729246341
-0.0641305325899215,17.0247430716904
-0.0656352366753835,17.0251232038147
-0.0666573614806268,17.0255347286252
-0.0672111912474442,17.0259833632682
-0.0673062416829,17.0264761170587
-0.0669460566981634,17.0270220999233
-0.0661231071776343,17.0276347138962
-0.0648136931661785,17.0283320175857
-0.0629673276764315,17.0291412535381
-0.0604761112802075,17.0301099445334
-0.0570567468833558,17.0313479895984
-0.053005309557719,17.0327664836712
-0.0490632772347284,17.0341403289696
-0.0452873252367329,17.0354749186305
-0.0417064811175503,17.0367723802674
-0.0383363417493531,17.03803338287
-0.0351848734193163,17.0392578657417
-0.0322549053719492,17.0404454254864
-0.0295454085435198,17.0415955207346
-0.0270523026922876,17.0427075786531
-0.0247690720635923,17.0437810464326
-0.0226872944333129,17.0448154101281
-0.0207971191462197,17.0458101928058
-0.0190877036037524,17.0467649386195
-0.0175476063843704,17.0476791864916
-0.0160881327394951,17.048602758594
-0.0146912158701182,17.0495501258374
-0.0133611187811145,17.0505230464502
-0.0121017528636052,17.0515237042549
-0.010916812363556,17.052554668996
-0.00980971953642029,17.053618993453
-0.00878356804067974,17.0547203409785
-0.00784106298593227,17.0558631581469
-0.00698445707169892,17.0570529141229
-0.00621548165094611,17.0582964420176
-0.00553527052621436,17.0596024423256
-0.00494427264293878,17.0609822562804
-0.00444214649284513,17.0624511154271
-0.00402762274710342,17.0640302952707
-0.00371147679592743,17.0656692683381
-0.00348281249059608,17.0673598844039
-0.00332520065109688,17.0691205846197
-0.00322324750640863,17.0709742008233
-0.00316196434489936,17.0729516683572
-0.00312610540173954,17.07509771824
-0.00309903178178711,17.0774831541475
-0.00306017015658804,17.0802368173308
-0.00297653443744447,17.0836631556928
-0.00284606337281767,17.087034112799
-0.00268386047169308,17.0901482017942
-0.00249553319949612,17.0931450043979
-0.00228574864084859,17.0960986707197
-0.00205841698106992,17.0990537268711
-0.0018166469918156,17.1020414447337
-0.00156279690980357,17.1050863413936
-0.00129855996169603,17.1082092387044
-0.00102504501627064,17.1114289854386
-0.000742854108446222,17.1147634537241
-0.000452150986832881,17.118230220529
-0.000152716417093968,17.1218471407201
0.000156017945217295,17.1256329416565
0.000474977060535902,17.1296080480092
0.00080552617917642,17.133796013847
0.00114967963789944,17.1382261294138
0.00151047970729774,17.1429377007648
0.00189263742570856,17.1479869661402
0.00227856567020681,17.1531212947653
0.00263263272133955,17.1578344621217
0.00295038405944586,17.162046545582
0.0032554044866282,17.16605806554
0.003558614363046,17.1699983132041
0.00386682785578726,17.1739393864579
0.00418543635365094,17.1779307052117
0.00451946798877989,17.1820116701235
0.00487406096071359,17.1862163209058
0.00525485781115465,17.1905764284153
0.00566839926994017,17.1951235955592
0.00612260073173403,17.1998906693367
0.00662687252469978,17.2049072335349
0.00714931915971575,17.2098013164721
0.00770451970931592,17.2146761760134
0.00829238170295078,17.21948469958
0.00891881664796568,17.2242281946069
0.00958993153756803,17.2289017810908
0.0103155221841872,17.2335182767522
0.0111210768477632,17.2381665338203
0.0120212352113346,17.2428396617819
0.0130388662037623,17.2475569351515
0.0142055416742879,17.2523519977192
0.0155725942845705,17.2573020236241
0.0172462037105359,17.2626101338036
0.0196018374011499,17.2691045132073
0.0212677325398476,17.273261017076
0.0230047960522279,17.2774175209447
0.0245009578683287,17.2810217411359
0.0257562547341657,17.2842392889638
0.0268035175942553,17.287284668226
0.0276185937111226,17.2902248452026
0.0281657905504892,17.293049285686
0.0284419804580496,17.2958800877757
0.0284129514942657,17.2988800379234
0.0279534738338896,17.3024202639334
0.0271581055060001,17.3056787067066
0.0260645057471547,17.3089371494797
0.0249759995217739,17.3116513110159
0.0239023561555654,17.3140784058548
0.0228294600151189,17.3163674752774
0.0217563340203821,17.3185821265532
0.0206859243830354,17.3207562749776
0.0196219353209078,17.3229116062163
0.018568056212611,17.325063590064
0.0175277555530271,17.3272241233536
0.0165042280232345,17.3294029011447
0.015500391307165,17.3316082045433
0.014518887914347,17.3338474141961
0.0135621038387607,17.3361273322643
0.0126321717724257,17.3384544446609
0.0117309851940349,17.3408351004423
0.010860209577007,17.3432756599633
0.0100212831528109,17.3457826511484
0.00921543222392484,17.3483628763281
0.00844069285163798,17.3510342369526
0.00767841758701783,17.3538830573177
0.00693244137403536,17.3569292213124
0.0062065202711281,17.360196759313
0.00550461791745589,17.3637133909142
0.00483086574068452,17.3675112155354
0.0041894918239402,17.3716276242211
0.00358470477426732,17.3761066243429
0.00302051387286729,17.3810010274505
0.00250047547964844,17.3863764143489
0.00202742763986181,17.3923179763935
0.00160340226926526,17.3989400178867
0.00124132382671092,17.4061400471148
0.000939989888180435,17.41393697876
0.00069271559635992,17.4224611306569
0.000493297758702737,17.4318850387955
0.000345662108355016,17.4418850387955
0.000248296406932591,17.4518850387955
0.000181900517493929,17.4618850387955
0.000135728875234286,17.4718850387955
0.000103616058719546,17.4818850387955
8.15669896036848e-05,17.4918850387955
6.67043142136729e-05,17.5018850387955
5.68994772704113e-05,17.5118850387955
5.06151729230417e-05,17.5218850387955
4.67777384214783e-05,17.5318850387955
4.46536031210125e-05,17.5418850387955
4.37446846553302e-05,17.5518850387955
4.37115921261943e-05,17.5618850387955
4.43220773946199e-05,17.5718850387955
4.54174904496614e-05,17.5818850387955
4.68906213123677e-05,17.5918850387955
4.8670575619515e-05,17.6018850387955
5.07122088389008e-05,17.6118850387955
5.29887160711473e-05,17.6218850387955
5.54864883089676e-05,17.6318850387955
5.82016018609317e-05,17.6418850387955
6.11374716588255e-05,17.6518850387955
6.4303327896764e-05,17.6618850387955
6.77132783487568e-05,17.6718850387955
7.13857961873736e-05,17.6818850387955
7.53435283763001e-05,17.6918850387955
7.96133583952919e-05,17.7018850387955
8.42266847804066e-05,17.7118850387955
8.92198979974119e-05,17.7218850387955
9.46350554417473e-05,17.7318850387955
0.000100520769939123,17.7418850387955
0.000106933342674849,17.7518850387955
0.000113938188608226,17.7618850387955
0.000121611622905426,17.7718850387955
0.000130043102937109,17.7818850387955
0.000139338054845011,17.7918850387955
0.000149621460672203,17.8018850387955
0.000161042447537064,17.8118850387955
0.000173780213250431,17.8218850387955
0.000188051756831175,17.8318850387955
0.000204122078997372,17.8418850387955
0.00022231781109083,17.8518850387955
0.000243045676737454,17.8618850387955
0.000266817881658306,17.8718850387955
0.000294287621825526,17.8818850387955
0.000326299676230361,17.8918850387955
0.000363964008915572,17.9018850387955
0.00040876537950387,17.9118850387955
0.000458516411349629,17.9211541476531
0.000513066811553577,17.9296648166738
0.000572661978185585,17.9374792927212
0.00063760021681551,17.9446578789144
0.000708192912058244,17.9512556618773
0.000784753593277686,17.9573230214987
0.000867596644389073,17.9629063166268
0.000957031877442831,17.9680478190769
0.00105337330426944,17.9727864609596
0.00115693763313582,17.9771580023978
0.00126805041844094,17.9811952898347
0.00138705606915097,17.9849286447062
0.00151432131508154,17.9883859944518
0.0016502597108762,17.9915932174001
0.00179534506997263,17.9945743257009
0.00195014442407908,17.9973517432766
0.0021153640561579,17.9999465811249
0.00229190625181555,18.0023789247226
0.00248096642239267,18.0046682532795
0.00268417994860134,18.006833933556
0.00290386190633416,18.0088960205689
0.00314343136425901,18.0108765574931
0.00340823819861801,18.0128020292299
0.00370738521503574,18.0147087771558
0.00405863402382433,18.0166576651751
0.00450730420905021,18.0187914265805
0.00507816841267245,18.0210697165528
0.00554004595377418,18.0226410074831
0.00606949978468657,18.0242122984134
0.00662037046934525,18.0256409792711
0.00721908387354605,18.0270051331853
0.00791205652912627,18.0283901659792
0.0087740853390831,18.0298870536332
0.00981539873288203,18.0314411592297
0.0109806462096201,18.0329346072639
0.0123143627475702,18.0344101008979
0.0139574202051773,18.0359807355194
0.0162202206502379,18.0378396302373
0.0181546401815296,18.0392461586846
0.0202430714779021,18.0406526871318
0.0221149876094513,18.0418673744737
0.023768623214785,18.0429456278052
0.0252608079733338,18.0439628976882
0.0266025509560607,18.0449628383921
0.0277814869368368,18.045981418032
0.0287664890397429,18.0470621852486
0.029495784667862,18.0482812936291
0.0298060765469233,18.0498632042141
0.029428328422928,18.0514756523759
0.0284756823698888,18.0530881005377
0.0273433895769837,18.0544459159477
0.0260433454340352,18.0557708294361
0.0245765322976548,18.0571404414332
0.0229525494281423,18.0585966463611
0.0211776508918718,18.0601812089969
0.0204788294746379,18.0608136043008
0.0197952974317389,18.0614459996046
0.0172660105021845,18.0639827105267
0.0144309097099562,18.0673454354343
0.0123823938647263,18.0703348436791
0.0109020424635716,18.0730041184303
0.00979977265780204,18.0754860690676
0.00894298280620669,18.0779767570032
0.00831315219855738,18.0805268905224
0.0079261816196967,18.083105704894
0.00779598580711529,18.0854662476883
0.00787657629647006,18.0876608180812
0.00814534742694231,18.0897412881441
0.00860098958334761,18.0917658447535
0.00927303055449521,18.093820419477
0.0102530684525803,18.0960512833968
0.0117473351477293,18.0986816774848
0.0136874356964966,18.1014142921478
0.0152275472740501,18.1032511862515
0.0169899935057253,18.1050880803553
0.0188009766702442,18.1067324725654
0.0206985027655859,18.1082339544669
0.0227533723874351,18.1096474441946
0.0250114429329704,18.110992653426
0.0275192345081663,18.1122821608413
0.0303194844066016,18.1135217422407
0.0334563476308441,18.1147151144666
0.0369768261686907,18.1158650568422
0.0409325131246735,18.1169740846772
0.0453813365954686,18.1180447373719
0.0503894483916759,18.1190796841947
0.0560333412729,18.1200817428439
0.0624026157487061,18.1210539098523
0.0696025476035777,18.1219992659337
0.0777586131136761,18.1229210781548
0.0870215084603186,18.123822795086
0.0975739209701449,18.1247080873595
0.109640058007258,18.1255809442118
0.123498323790434,18.1264457668027
0.139499597839966,18.1273075361426
0.158094333032696,18.128172077589
0.179876557099589,18.1290465679462
0.20566811605803,18.129940737408
0.235694689531063,18.130841559855
0.270462975175326,18.131749086648
0.310931997375659,18.1326756634275
0.35863599568753,18.1336460342837
0.397063293362625,18.1343661255896
0.437109475911205,18.1350862168955
0.472641913398355,18.1357227831354
0.503778865033241,18.1363022020441
0.531214866304999,18.1368572502587
0.554987450031749,18.1374118868201
0.574622072924685,18.137990656035
0.588934654506881,18.1386305206339
0.594792244348349,18.1393627777492
0.588870919107148,18.1401173820671
0.569983433555404,18.1409170146611
0.538013981480525,18.1417422519521
0.493552295853722,18.1425830494
0.433622311213702,18.1434839917044
0.380143289759137,18.1441702856419
0.320866675556576,18.1448565795795
0.269877448065248,18.1454112764907
0.227651775990685,18.1458601544787
0.191315994248907,18.1462479200615
0.159154569978777,18.146599378739
0.130219201525553,18.1469286349533
0.103902395710554,18.147245314861
0.079737610184346,18.1475576056617
0.0572667353742665,18.1478747721752
0.0358138029738277,18.1482124836716
0.0132867845187395,18.1486224877549
0.00222818082413093,18.1488543539894
-0.00536969587890137,18.1490299031515
-0.0123284520596668,18.1492054523137
-0.0184049805393439,18.1493731060719
-0.0246487535349488,18.1495628859976
-0.030781633367664,18.149771399103
-0.0365986646308134,18.1499958676625
-0.0419829138206997,18.1502350813562
-0.0468711708041589,18.1504888759249
-0.0512326540095417,18.1507578142481
-0.055056487997659,18.1510430244357
-0.0583441362033018,18.151346134009
-0.0611046183134344,18.1516692672237
-0.0633457859977883,18.1520150917111
-0.0651072103793671,18.1523959016537
-0.0663156501766557,18.15279467814
-0.0670504297195745,18.1532281252406
-0.0673232974550818,18.1537027513459
-0.0671404316489138,18.1542267574328
-0.0664994346340127,18.1548115863791
-0.0653835158068888,18.1554733380253
-0.0637547311940783,18.1562348612717
-0.0615336778030628,18.1571335890975
-0.0585342206913389,18.1582448386533
-0.0544600340102072,18.1596845760926
-0.0504695458755894,18.1610735169943
-0.0466291293872312,18.1624218673564
-0.0429754551973893,18.1637325635122
-0.0395279687965129,18.165006683553
-0.0362969811161302,18.166244367593
-0.0332869800471059,18.1674453025493
-0.0304982158892315,18.1686089790911
-0.0279276296274153,18.1697348265862
-0.0255695192058652,18.1708222808311
-0.0234160922182684,18.1718708127611
-0.0214579605218533,18.1728799330137
-0.0196845915993526,18.1738491804904
-0.0180847175397044,18.174778099468
-0.0166041178630167,18.1756933889897
-0.0151842414744543,18.1766320698901
-0.0138297424315673,18.177595599884
-0.0125445952764546,18.1785860448059
-0.0113325785323975,18.179605826025
-0.0101972182203007,18.1806578104421
-0.0091417324267699,18.1817454254911
-0.0081689725889347,18.1828728136409
-0.00728136113128085,18.1840450446802
-0.00648082450761536,18.185268415245
-0.00576871997420153,18.1865508849643
-0.00514575285677365,18.1879027361015
-0.00461187859813218,18.1893376188548
-0.00416617900492611,18.1908743082842
-0.00381412291139703,18.1924992653173
-0.00355599946966192,18.1941692005882
-0.00337465183506775,18.1959023905041
-0.00325442422228882,18.1977195445459
-0.00318024454796918,18.19964822113
-0.00313705606079976,18.2017272530351
-0.00310890532841223,18.2040159095159
-0.00307710771587212,18.206615915013
-0.00301508091728223,18.2097409410582
-0.00289771213871566,18.2132679836046
-0.00274628774306048,18.2164561415952
-0.00256690713291876,18.2194846392671
-0.00236445023595943,18.2224478370014
-0.00214311447950432,18.2253982608624
-0.00190629798461235,18.2283709622561
-0.00165662362408297,18.2313924496337
-0.00139601639984733,18.2344846520661
-0.00112579002223657,18.2376669821039
-0.000846722148049385,18.2409575859585
-0.000559129312015385,18.2443740765558
-0.00026292648342135,18.2479341438559
4.23292086327185e-05,18.2516561187088
0.000357428090280046,18.2555596852598
0.000683558194102122,18.2596670271524
0.00102246335789048,18.2640049468015
0.00137675438347594,18.2686084775597
0.00175043399572697,18.2735266163384
0.00213275582745914,18.2786029486362
0.00251445819519592,18.2836882293997
0.00284135618935225,18.2880289114031
0.00314924256204875,18.292090949019
0.00345219323970845,18.2960461233944
0.0037580020354301,18.2999804953094
0.00407239921414136,18.3039494214231
0.00440045741901533,18.3079948796437
0.0047472442403907,18.3121525544643
0.00511817718435899,18.316454661862
0.00551943604963463,18.3209326890621
0.00595838927911523,18.3256188988218
0.0064441995827566,18.3305475657592
0.00695981697891556,18.3354852421494
0.00750305255103151,18.3403696469228
0.00807877395103082,18.3452027705353
0.00869083549538166,18.349970227181
0.00934521996821619,18.3546688822741
0.0100492038661323,18.3592981250585
0.0108247923026299,18.3639359273133
0.0116890237600141,18.3685985003919
0.0126618754915021,18.3732974570561
0.013771047938264,18.3780590980458
0.0150588542997975,18.3829403683693
0.0166042007378193,18.3880814616592
0.0186228764872349,18.3939394898643
0.0204788804751289,18.3987481561463
0.0220608810816976,18.4025935298512
0.0236740766121111,18.4064389035561
0.0250587476156782,18.4098396602013
0.0262245535263208,18.4129637311896
0.0271838643675511,18.4159813770203
0.0278841467109452,18.4188580905426
0.0283177628730096,18.4216691538664
0.028471105295541,18.4245469044402
0.0282855536783164,18.4277027642994
0.0275018280157806,18.4318560722867
0.0266463509811674,18.434727919603
0.0255855132575774,18.4375997669193
0.0245111160908115,18.4401498179145
0.0234388220724909,18.4425051531413
0.0223656081934855,18.4447565599098
0.0212932190248048,18.446950430047
0.0202251200070238,18.4491142058195
0.0191650563115705,18.4512664187418
0.018116632739383,18.4534207706551
0.0170832026831809,18.4555880796268
0.0160678409319192,18.4577773525082
0.0150733438517741,18.4599964334317
0.0141022440290398,18.462252412688
0.0131568137652116,18.4645519362542
0.0122390831739235,18.4669014054537
0.0113508468720347,18.4693071544969
0.0104936688198661,18.4717756063051
0.00966889659393419,18.4743133868393
0.00887766431944343,18.4769274644905
0.00810789244978264,18.4796735664039
0.00735224007420954,18.4826053706168
0.0066144910230188,18.4857445446606
0.00589849557327095,18.4891166441977
0.00520829692742539,18.4927511955044
0.00454807907075667,18.4966824695804
0.00392207945426526,18.5009505321624
0.0033344460156058,18.505602875363
0.00278902940013053,18.5106971923652
0.00228909660935421,18.5163066001829
0.00183713106450674,18.5225276562491
0.00143771383146724,18.5294360831204
0.00110292293702796,18.536883126484
0.00082594536813326,18.544978744051
0.000600260780353222,18.5538708722928
0.000419881756985888,18.5637552077431
0.00029706050082095,18.5737552077431
0.000220453281692018,18.5830488804063
0.000162623001111671,18.5930488804063
0.000122320448916142,18.6030488804063
9.43781423401495e-05,18.6130488804063
7.53062949644945e-05,18.6230488804063
6.25446606379799e-05,18.6330488804063
5.4205478439803e-05,18.6430488804063
4.89398917898986e-05,18.6530488804063
4.58141950366158e-05,18.6630488804063
4.41929457794371e-05,18.6730488804063
4.36446293260777e-05,18.6830488804063
4.38748032949462e-05,18.6930488804063
4.4681980048683e-05,18.7030488804063
4.5928919842982e-05,18.7130488804063
4.75234851683742e-05,18.7230488804063
4.94054494708791e-05,18.7330488804063
5.15372495202267e-05,18.7430488804063
5.38975134368284e-05,18.7530488804063
5.64765918122132e-05,18.7630488804063
5.92735287763188e-05,18.7730488804063
6.2294056221461e-05,18.7830488804063
6.5549312271764e-05,18.7930488804063
6.90550780074973e-05,18.8030488804063
7.28313950782473e-05,18.8130488804063
7.69024752880422e-05,18.8230488804063
8.12968472888778e-05,18.8330488804063
8.60477103411491e-05,18.8430488804063
9.11934844423676e-05,18.8530488804063
9.67785625506475e-05,18.8630488804063
0.000102854286011698,18.8730488804063
0.000109480180248587,18.8830488804063
0.000116725505930641,18.8930488804063
0.000124671203099156,18.9030488804063
0.00013341233450754,18.9130488804063
0.000143061173018532,18.9230488804063
0.000153751130980985,18.9330488804063
0.000165641804001435,18.9430488804063
0.000178925507893399,18.9530488804063
0.000193835841989753,18.9630488804063
0.000210659039901836,18.9730488804063
0.000229749211140872,18.9830488804063
0.000251549101022961,18.9930488804063
0.000276618814970933,19.0030488804063
0.000305676261464002,19.0130488804063
0.000339655210457668,19.0230488804063
0.000379790471012151,19.0330488804063
0.000426541337614087,19.042813262344
0.000478035908955576,19.0517967380088
0.000534409992996094,19.0600437312174
0.000595936776038885,19.0676173251439
0.000662921193386701,19.0745759087512
0.000735675208500239,19.0809727292061
0.000814513273676279,19.0868566689571
0.000899748168932914,19.0922725821025
0.000991690281896636,19.0972613723836
0.00109065457805393,19.1018608564528
0.00119696073783548,19.1061056188268
0.00131093921123835,19.1100276041679
0.00143294203371643,19.1136561812069
0.0015633517176585,19.117018529404
0.00170259888653083,19.1201397824984
0.00185119086389452,19.1230433608252
0.00200973770485772,19.1257511522307
0.00217900922430895,19.1282838618886
0.00236000414966104,19.1306612976185
0.0025540584472204,19.1329028251503
0.00276302185838507,19.1350279601308
0.00298955252612952,19.1370572900553
0.00323765276348013,19.1390141125489
0.00351375192925323,19.1409276498602
0.00382925906844198,19.1428406247979
0.00420819012033734,19.1448321787603
0.00472398484849458,19.1471302173526
0.0053251474223701,19.1493597874413
0.00591489653217095,19.1511994866469
0.00646518929771377,19.1526808973744
0.00704678676898178,19.154054018066
0.00770813090621305,19.1554252782407
0.00851274618351067,19.156879926078
0.00952455069799094,19.1584546181267
0.010653960464319,19.1599616879676
0.0119314396900918,19.1614316319745
0.0134752533835703,19.1629668826964
0.0155072848793565,19.1647076341491
0.0176018834057251,19.1662808022253
0.0199049516017609,19.1678539703016
0.0218448710881655,19.1691166544739
0.0235281329994681,19.1702106250863
0.0250434243287166,19.1712339489243
0.026408403964093,19.1722342050267
0.0276136070500434,19.1732475064198
0.0286310498535307,19.1743151889629
0.0294054567887728,19.1755053939032
0.0298021029912473,19.1769984824968
0.0295245384096202,19.1786600987987
0.0286132556220177,19.1803217151005
0.0275034591531157,19.1816938968314
0.026226206070516,19.1830168966928
0.0247809752126609,19.1843779316342
0.0231773089326488,19.1858204242499
0.0214223319446011,19.1873851448381
0.0201866935113256,19.1885043739887
0.0190071120327267,19.1896236031394
0.0164057130306346,19.1923559306994
0.0138339207143158,19.1955775540037
0.0119632844658862,19.1984581573648
0.0105924495483296,19.2010690188717
0.00956098879141968,19.2035365256105
0.0087618141166101,19.2060395284362
0.00819041453745037,19.2086086582231
0.00787242858914492,19.2111292847039
0.00779747096882108,19.2134444535862
0.0079257107678336,19.2156054880818
0.00823953060472453,19.2176651670281
0.00874394951431107,19.21968732017
0.00948081356030102,19.2217712391003
0.0105655681234432,19.2240822248096
0.0121636177746059,19.2267417579406
0.0142022192971803,19.2294794016628
0.0157440049587954,19.231240060497
0.01750288918879,19.2330007193313
0.0193295540734095,19.2345955977139
0.0212664744808182,19.2360687777639
0.0233722802502594,19.2374597272623
0.0256959013708167,19.2387877375954
0.0282818049525141,19.2400623737919
0.0311727898494401,19.2412884703558
0.034413509799435,19.2424692733701
0.0380519751908693,19.2436073794753
0.0421413227314965,19.2447052693698
0.0467416273146389,19.2457655209611
0.05192180160818,19.2467908578627
0.0577617483571408,19.2477841427704
0.064354998955753,19.2487483710922
0.0718123997794935,19.2496867188968
0.0802657871581475,19.2506024729056
0.0898742187038901,19.2514991479081
0.100831063236559,19.2523804941459
0.113374378531495,19.2532506031156
0.127801015315548,19.2541140239313
0.14448680099874,19.2549759422926
0.163917321883447,19.2558424969413
0.186739841941101,19.2567214172144
0.213826053629807,19.2576222856164
0.245130088233262,19.2585241188667
0.281417153096289,19.2594355197074
0.32375912120915,19.2603711800342
0.37400988619268,19.2613628999583
0.411089832104631,19.2620443003977
0.44920814840624,19.262725700837
0.483151459784544,19.2633384991951
0.513049853142526,19.2639070426982
0.53932158106923,19.2644594864507
0.561832924149125,19.2650189605991
0.579925165162632,19.265612307479
0.592026722655895,19.2662857336686
0.594231148087583,19.2670226083588
0.584358164443666,19.2677890951953
0.560979489469215,19.2686075375877
0.525352939015025,19.2694289880133
0.476174684578335,19.2702879309604
0.411601766342192,19.2712003640661
0.360856138319761,19.2718240875534
0.305699114093652,19.2724478110406
0.257744222749545,19.2729644732081
0.217377983744457,19.2733930659413
0.182294658158196,19.2737691970921
0.15107596180756,19.2741135491356
0.122896965365331,19.274438574527
0.0972027248160546,19.2747532733845
0.0735422169736337,19.2750658435366
0.0514313081911036,19.2753864798672
0.0300371651619974,19.2757349973369
0.0110064019085322,19.2760921256991
0.00127852678946679,19.2762993000762
-0.00752722052055452,19.2765064744534
-0.014259392114566,19.2766809341937
-0.0204209554855034,19.2768560462719
-0.0266585429613637,19.2770523205551
-0.0327065135553002,19.2772662161674
-0.0383930656738662,19.2774955322077
-0.0436217513028161,19.2777394451636
-0.0483416671433923,19.2779980519296
-0.0525295495740516,19.2782721105545
-0.0561791796777168,19.2785629145578
-0.0592948955468718,19.2788722500102
-0.0618874246167093,19.279202409716
-0.0640067616586399,19.2795655480688
-0.0655455399346374,19.2799435723089
-0.0666010068180665,19.2803527123575
-0.0671873499284694,19.2807985327983
-0.0673144113440434,19.2812879205492
-0.0669862418983539,19.2818298112145
-0.0661963152511869,19.2824372312695
-0.0649222663456714,19.2831278494904
-0.0631161296321775,19.2839280239467
-0.0606759810791223,19.284883159242
-0.057340752536242,19.2860952395769
-0.0532842184752789,19.2875174961304
-0.0493322763838248,19.2888942051569
-0.0455436239655268,19.2902314267515
-0.0419486025771433,19.2915314323704
-0.0385634922530668,19.2927949629447
-0.0353966861048232,19.2940219928135
-0.0324513202350206,19.295212134073
-0.0297266039840313,19.2963648505535
-0.0272186475943126,19.2974795693928
-0.0249210868428312,19.2985557354405
-0.0228256159471502,19.2995928318865
-0.0209224686648193,19.3005903795825
-0.0192008580628481,19.3015479219469
-0.0176493726467243,19.3024649992899
-0.0161858304992713,19.303386977706
-0.0147844983207465,19.3043326716364
-0.0134497125650851,19.3053037817244
-0.0121853971723304,19.3063024686023
-0.0109952629703875,19.3073312728309
-0.00988275253876535,19.3083932105669
-0.00885098383009059,19.3094918985859
-0.00790269045707277,19.3106317232768
-0.00704015812983242,19.3118180745321
-0.00626515610634683,19.3130576785975
-0.00557886159693275,19.3143590877394
-0.00498177339786447,19.3157334301513
-0.00447360785402246,19.3171956169987
-0.00405316433136618,19.3187664124447
-0.00373029866467161,19.3204025395332
-0.00349613400103676,19.3220890091531
-0.00333411282218304,19.3238442018303
-0.00322879526041755,19.3256905154649
-0.00316518271433292,19.3276581864452
-0.00312807568753246,19.3297907092026
-0.00310098750009616,19.3321564212242
-0.00306376582350533,19.3348781688115
-0.00298493757066639,19.3382388762825
-0.00285715809420076,19.3416374366588
-0.00269714062371963,19.3447650901491
-0.00251062075770838,19.3477676376085
-0.00230231581999189,19.3507227834134
-0.00207619632853095,19.353676524819
-0.00183543048990871,19.3566608451395
-0.00158243047735124,19.3597006403176
-0.00131893663510593,19.3628169435003
-0.00104609951609456,19.3660287091591
-0.000764556880414435,19.3693538586324
-0.000474503593954842,19.3728099701997
-0.000175747906767718,19.3764148582576
0.00013225243319909,19.3801871594196
0.000450393652647378,19.3841471305775
0.00078000208470353,19.3883180147511
0.0011230319661437,19.3927285410774
0.00148242963845475,19.3974170602779
0.00186274752964747,19.4024381852053
0.00224764537157633,19.4075570074505
0.00260663629614008,19.412336802506
0.00292612911125097,19.4165738711851
0.00323166668270467,19.4205952658886
0.00353474265163433,19.4245380647823
0.00384235907492041,19.4284771024267
0.00415997074109446,19.4324629832176
0.00449261134157649,19.4365356450355
0.00484539798979279,19.4407294489033
0.00522391914449205,19.445076247124
0.00563463001403746,19.4496076017593
0.00608531666914824,19.454356216441
0.00658576956636977,19.4593570638795
0.00710652556518588,19.4642596805753
0.00765904886954736,19.4691372296277
0.00824412348621088,19.4739512097429
0.0088672710757917,19.4787001146436
0.00953455011586207,19.4833792842539
0.0102543106744637,19.4879932106634
0.0110530650172034,19.4926400079158
0.0119448333421305,19.4973104345758
0.0129520154844518,19.5020232696266
0.0141051797511159,19.5068100664533
0.0154533528419714,19.5117428059209
0.0170953616200869,19.5170076196555
0.0193572756086482,19.5233178144234
0.0210622448568113,19.5276087755239
0.0228510984947858,19.5318997366244
0.0243762380747451,19.5355631890552
0.0256515184611328,19.5388058398988
0.0267173760991547,19.541860351635
0.0275569683681111,19.5448170397165
0.0281278999148973,19.5476471801766
0.0284290124693065,19.5504718604812
0.0284300064264135,19.5534473132334
0.028020690788099,19.5569070135658
0.0272364667786201,19.5602563078945
0.0261315121975013,19.5636056022232
0.0250387584118344,19.5663515746207
0.0239645910894108,19.5687904688225
0.0228917314007649,19.5710853736077
0.0218185507259842,19.5733032353367
0.0207478824709238,19.5754790504306
0.0196834167792274,19.5776349984978
0.0186288525576105,19.5797868178892
0.0175876726010681,19.581946568534
0.0165630883477007,19.5841240464864
0.0155580331536223,19.5863275995185
0.0145751653098267,19.5885646497217
0.013616885826026,19.590842024306
0.0126853408230124,19.5931662242336
0.0117824380038246,19.5955436005779
0.0109098562782635,19.5979805079236
0.0100690459378866,19.6004834634135
0.00926124586595447,19.6030592486732
0.00848587861392742,19.6057207844412
0.00772275537533111,19.6085587038355
0.00697571792715204,19.6115926590667
0.00624850887022453,19.6148464849225
0.00554508127972293,19.6183476639916
0.00486955814199242,19.622128017315
0.00422616442524063,19.6262245954578
0.00361911397513792,19.6306809708475
0.00305243442932306,19.6355493508839
0.0025297171054136,19.6408944053732
0.00205384701921376,19.6467999343128
0.00162690012339108,19.6533782519306
0.00126101200070889,19.6605461418315
0.000956268787295883,19.6683044629515
0.000705970006203538,19.6767812006229
0.000503881222865817,19.686146044712
0.000352709295235446,19.696146044712
0.00025307836780769,19.706146044712
0.000185193569119724,19.716146044712
0.000138006236316511,19.726146044712
0.000105181707720607,19.736146044712
8.26301599637728e-05,19.746146044712
6.74143693797647e-05,19.756146044712
5.73630033004571e-05,19.766146044712
5.09069504916801e-05,19.776146044712
4.69493927486012e-05,19.786146044712
4.47404857702913e-05,19.796146044712
4.37709797327604e-05,19.806146044712
4.36938653873771e-05,19.816146044712
4.42716601668642e-05,19.826146044712
4.53420769264592e-05,19.836146044712
4.67953556249756e-05,19.846146044712
4.8558803864392e-05,19.856146044712
5.05860028582903e-05,19.866146044712
5.28492369325101e-05,19.876146044712
5.53342358856172e-05,19.886146044712
5.80365836002327e-05,19.896146044712
6.0959314200685e-05,19.906146044712
6.41113481417974e-05,19.916146044712
6.75065253415135e-05,19.926146044712
7.11630714167966e-05,19.936146044712
7.51033894343133e-05,19.946146044712
7.93541090339116e-05,19.956146044712
8.39463529989905e-05,19.966146044712
8.89162026812561e-05,19.976146044712
9.43053611231521e-05,19.9861460447121
9.83682867773209e-05,19.993073022356
0.00010264398174975,20
