ecg,time
0.000361143441259929,15.0020748846511
0.000292520628958278,15.0120748846511
0.000246854424939016,15.0220748846511
0.000217217262291283,15.0320748846511
0.000198755734239622,15.0420748846511
0.000188157764882368,15.0520748846511
0.000183195514304975,15.0620748846511
0.000182380184520424,15.0720748846511
0.000184726347473019,15.0820748846511
0.000189599377841968,15.0920748846511
0.000196617821208624,15.1020748846511
0.000205590653256989,15.1120748846511
0.000216477791342005,15.1220748846511
0.000229367750107121,15.1320748846511
0.000244469434142765,15.1420748846511
0.000262116995952631,15.1520748846511
0.000282788409805072,15.1620748846511
0.000307140505249683,15.1720748846511
0.000336066184515924,15.1820748846511
0.000370784216167655,15.1920748846511
0.000412979869135791,15.2020748846511
0.000463892305932813,15.21187546575
0.000522254311481625,15.2209444307191
0.000588937787555523,15.2293164246055
0.000665077299351668,15.2370445303212
0.000751982782296118,15.2441788605043
0.000851142060684516,15.2507660072856
0.000964238198866178,15.2568492793844
0.001093173919035,15.2624689391455
0.00124010060711759,15.267662416121
0.00140745150352582,15.272464504611
0.00159797998507251,15.2769075522967
0.00181480493206701,15.2810216427133
0.0020614648365295,15.2848347707429
0.00234198343705376,15.2883730146738
0.00266095144174035,15.2916607104974
0.00302362947499279,15.2947206326952
0.00343608174903529,15.2975741855498
0.00390535356608219,15.3002416156049
0.004439714875411,15.302742261606
0.00504900707963893,15.3050948667164
0.00574515829598195,15.3073180003126
0.00651442755947349,15.3093614405769
0.00736549681451469,15.31125827109
0.00831191458379743,15.3130424212359
0.00937429205839332,15.3147489180794
0.010587739207347,15.3164205917341
0.0120452207399547,15.3181497347161
0.0140521366125598,15.3201937626915
0.0157712975058431,15.3217424540989
0.0176276218775243,15.3232911455062
0.0192859801900308,15.3246251469891
0.0207436127865722,15.3258055009923
0.0220506726537075,15.3269155313187
0.0232157316153892,15.3280026509555
0.0242258876577953,15.3291048497964
0.0250507171169061,15.3302666088887
0.0256311816643314,15.3315625348589
0.0258186439521882,15.3331958542526
0.0253831667402593,15.3349305340049
0.0243990667004932,15.3366652137573
0.0232657003121479,15.3381073785541
0.0219914524353029,15.3394936580978
0.0205737999108917,15.3409090313076
0.0190211551152141,15.3423956255746
0.017339761349637,15.3439917696185
0.0155613921491618,15.3457471122453
0.0138972514089808,15.3475298324869
0.0114522431283976,15.3504826382069
0.009464574217272,15.3532887858031
0.0078932964721939,15.3558763098673
0.00659164904862836,15.3583658109518
0.00545360128009648,15.3608971742044
0.00445307335363017,15.3634992515679
0.00357172108786768,15.3661952427561
0.00279467242130471,15.3690085873022
0.0021093033351442,15.3719645795685
0.00154987876753106,15.3748363425415
0.00108880613702881,15.3776278850434
0.000694543810253449,15.3804213732755
0.000353829244367832,15.3832286890546
6.72779562629752e-05,15.3859472875987
-0.000169344396704253,15.3884932031202
-0.000368398702076621,15.3908823629143
-0.000541449266491844,15.393166629549
-0.000697242349220032,15.3954024552651
-0.000843352739726249,15.3976617753403
-0.000989820491162751,15.4000870107611
-0.00117080527054895,15.4032990773821
-0.00126670296963096,15.4050904581357
-0.00135977737955488,15.4068818388894
-0.00144312079872688,15.4085248637284
-0.00152143971265833,15.4100977015441
-0.00159995169181691,15.4116979675247
-0.0016840393238754,15.4134329701766
-0.00178355099162046,15.4155074025301
-0.00194348260410687,15.4188713685912
-0.00210467852750322,15.4222804529681
-0.0022420836917206,15.4251948159448
-0.00238316597145029,15.4282002008245
-0.00254818475811981,15.4317564526218
-0.00276003035198628,15.4364909493319
-0.00296931614740803,15.441742304823
-0.0031089091799408,15.4465324423128
-0.00315945159207953,15.4507728455712
-0.00311868836477015,15.4545025967401
-0.00298225900202422,15.4580142477083
-0.00273190000897255,15.4614467063858
-0.00238312094679994,15.4645426706267
-0.00193890195088509,15.467381932252
-0.00139563014692347,15.4700372093568
-0.000736486899614279,15.4725966547174
8.64064316698171e-05,15.4752003965607
0.0011898701401562,15.4780921647482
0.0026074144623409,15.4812420730333
0.00419088933055271,15.4843495317686
0.00588607089180748,15.4873800754329
0.00710647545118344,15.4893967993251
0.0084270801494589,15.4914135232172
0.00975136287038861,15.493251112333
0.0111267850231452,15.4949635459812
0.0126083469582363,15.4965994284364
0.0142246235397203,15.4981666942875
0.0160201090383987,15.4996841184193
0.0180130717388837,15.5011439824937
0.0202405767591036,15.5025533227323
0.0227262944267233,15.5039087840346
0.0255054486497523,15.5052135428565
0.0286152896817936,15.506469982903
0.0320963713050149,15.5076802690412
0.035992597816981,15.508846277958
0.0403620780645739,15.5099722910518
0.0452691994629464,15.5110616476333
0.0507898061724944,15.5121178409446
0.0570137623942487,15.5131444808991
0.0640490628843683,15.5141454093519
0.0720278559839372,15.5151248664907
0.0811123123182827,15.5160873975756
0.09150585455566,15.5170381449475
0.10346919226356,15.5179831365015
0.117346537998659,15.5189298087835
0.133609292709337,15.5198878343261
0.152937423494903,15.5208707414697
0.175524760555887,15.5218640362576
0.201745780719511,15.5228663974821
0.232356252146943,15.5238910224592
0.268425820274224,15.5249580619633
0.311390095892155,15.5260968470042
0.345895748175039,15.5269459727035
0.381640626357648,15.5277950984028
0.413464604483165,15.5285513731376
0.44132874286918,15.5292409397493
0.465606130647955,15.5298955636769
0.486237636051195,15.5305388488287
0.502770343648055,15.5311926230867
0.514234840931665,15.5318831621088
0.518648685861817,15.5326523538184
0.512917131659967,15.533468219375
0.495548932676171,15.5343074478779
0.465109103117404,15.5351845457293
0.419841968248997,15.5361097151329
0.373075406037727,15.5368700367162
0.318583771972278,15.5376303582994
0.280234184347241,15.5381191299525
0.240122030339099,15.5386079016055
0.204077660858116,15.5390389019693
0.172095252165294,15.5394233263403
0.143335416197692,15.539777597956
0.117201971430184,15.540113047161
0.0932670226443058,15.5404381994147
0.0711702040670345,15.5407608849834
0.050519966493218,15.5410906447108
0.0306670714104102,15.5414449106845
0.00925418223234419,15.5418891831846
0.000340692791827887,15.542102068904
-0.00773955710640667,15.5423149546234
-0.0141605243367341,15.5425013426457
-0.0201086791440014,15.5426912826775
-0.0260577262624069,15.5429024380262
-0.0317741834003783,15.5431313812764
-0.0371109784508328,15.5433760968816
-0.041987188063698,15.5436359305313
-0.0463613343665471,15.543911133709
-0.0502146082041939,15.5442026134933
-0.0537810923779482,15.5445380925974
-0.0565036179522303,15.5448660613396
-0.0587130507678121,15.5452157582965
-0.0604264907741206,15.5455906237652
-0.0616582120122559,15.5459944417092
-0.0624215542957987,15.5464318862691
-0.0627274331774216,15.5469087972604
-0.0625826343155967,15.5474325884253
-0.061987160693729,15.5480132225806
-0.0609287985285438,15.5486649617694
-0.0593792191128716,15.5494068413978
-0.0572812175173866,15.5502681181957
-0.0545139571602896,15.5513007610039
-0.0507500253457394,15.5526305818413
-0.0467443512420227,15.5540158770392
-0.0428844163896895,15.5553562497675
-0.039212989093484,15.5566558009613
-0.0357507214151915,15.5579166084312
-0.0325078218874393,15.559139425131
-0.0294881577722793,15.5603243331146
-0.0266911863054786,15.5614710926329
-0.024113056515611,15.5625793255027
-0.0217473665839365,15.5636486085648
-0.0195857636456238,15.5646785160625
-0.0176184581098634,15.5656686313041
-0.015834677949402,15.5666185386275
-0.0142230704349057,15.5675278016993
-0.0126768452499757,15.5684547688641
-0.0111918570378972,15.5694056625011
-0.00977222662496922,15.5703823552721
-0.00842183862889423,15.5713870806281
-0.00714436279839791,15.5724224691968
-0.00594320349145145,15.5734916489393
-0.0048214474295694,15.5745983778091
-0.00378180931405872,15.5757472238069
-0.0028265751613933,15.5769438154328
-0.00195754275656415,15.5781952002714
-0.00117595785627639,15.579510376401
-0.000482443409193623,15.5809011136037
0.000123083591859565,15.5823832902952
0.000641518595847911,15.583979220477
0.00105364098110301,15.5856242910863
0.00137264195170838,15.587323543754
0.00161385016888928,15.589095597136
0.00179138883258198,15.5909641777093
0.00191862331201154,15.5929616695729
0.00200863309085451,15.5951353873637
0.00207497045390769,15.5975613628239
0.00213332378694093,15.6003814955198
0.00220735087362078,15.6039501895428
0.00230447778196157,15.607736668784
0.00244130975245483,15.6119521376419
0.00259391600362712,15.6159247154633
0.00275585506947762,15.6197389039565
0.00292501889996296,15.6234985867909
0.00310054791977149,15.6272668746993
0.00328271402764173,15.6310885239014
0.00347272521289813,15.6349996246196
0.00367253311155779,15.6390321456271
0.00388468426582173,15.643216560245
0.00411222543118756,15.6475835799486
0.00435868830577801,15.6521654980579
0.00462821160196425,15.656997603488
0.00492586436164884,15.6621195515587
0.00525826012644697,15.6675765850277
0.00560009604314474,15.6728935955203
0.00595891595268381,15.6781571054841
0.00633455753866433,15.6833204213848
0.00673130297414035,15.6883988223589
0.00715313296290315,15.6933968018733
0.00760479476999168,15.6983229044968
0.00809130711415108,15.7031824819424
0.0086181077865191,15.7079787909658
0.00919109463738876,15.7127127211301
0.0098167351897354,15.7173832939661
0.0105021895349169,15.7219882957005
0.0112709392635769,15.7266135559966
0.0121383891484668,15.7312601663665
0.0131253455907107,15.7359399301124
0.0142608544704499,15.7406796468555
0.0155911937612545,15.7455431081975
0.0172078779444453,15.7506950571
0.0193926759247921,15.7567274329701
0.0211680957182937,15.7611158694613
0.023050249091851,15.7655043059525
0.0246359965116981,15.7691739732168
0.0259584908071587,15.7723863751787
0.027068976831107,15.7753944113952
0.0279579680526902,15.7783074910768
0.0285768204110614,15.7810829504298
0.0289272377909682,15.7838378545478
0.0289843004514995,15.7867162256804
0.028656734411679,15.7899991161163
0.0276461378573544,15.7942907253544
0.0267550908340853,15.7969111886409
0.0257026200256887,15.7995316519273
0.02463490241773,15.8019232552469
0.0235647728985939,15.8041714263059
0.022492935060722,15.8063393201023
0.0214222761553549,15.8084624306848
0.0203564728431329,15.8105631567054
0.019299215343212,15.8126572501748
0.0182539758080597,15.8147566869385
0.0172239469450664,15.8168711384655
0.0162120359363286,15.819008811726
0.0152208734208313,15.8211769757379
0.0142528254736685,15.823382318559
0.0133100089990083,15.8256311981367
0.0123943003602525,15.82792984827
0.0115073470781527,15.8302845422611
0.0106505807618354,15.832701732537
0.00982522121998049,15.8351882065894
0.00902798480837668,15.8377656611351
0.008241084305607,15.8405131507153
0.0074682970209932,15.8434499929805
0.00671338848393528,15.8465994232716
0.00598037427623472,15.8499883164266
0.00527349653023377,15.8536478690706
0.00459717447411237,15.8576144642167
0.00395592338184499,15.8619307930232
0.00335421043119059,15.8666475790845
0.00279619622706798,15.8718268958232
0.00228543964987404,15.8775479234978
0.00182462154042368,15.8839169446063
0.0014291909942257,15.8908112188032
0.00117755571003894,15.8962734239789
0.000978284562950704,15.9017356291546
0.000767700814884068,15.9093733286564
0.000593195727074954,15.9179687351934
0.000454500153525984,15.9274217784723
0.000351893006779658,15.9374217784723
0.000282055379517553,15.9474217784723
0.000235554465795781,15.9574217784723
0.000205534205829094,15.9674217784723
0.000187111093832692,15.9774217784723
0.000176913643791868,15.9874217784723
0.000172671261216368,15.9974217784723
0.000172880069751936,16.0074217784723
0.000176562121030817,16.0174217784723
0.000183106047059125,16.0274217784723
0.000192166113075654,16.0374217784723
0.000203599611036818,16.0474217784723
0.000217429784852769,16.0574217784723
0.000233827572025755,16.0674217784723
0.000253109349527927,16.0774217784723
0.000275750441983038,16.0874217784723
0.000302416472674811,16.0974217784723
0.000334017594470141,16.1074217784723
0.000371795123019051,16.1174217784723
0.000417457503411413,16.1274217784723
0.000473395539623699,16.1374217784723
0.000538611070641926,16.1468428164308
0.000613093118013443,16.1555285946296
0.000698007538670773,16.1635308491123
0.000794771907865441,16.170904994675
0.00090501220757447,16.1777024472339
0.00103057475427714,16.1839707203403
0.00117355209050996,16.1897537714227
0.00133631593077984,16.1950923058824
0.00152155681091405,16.2000240403574
0.00173232902304697,16.2045839520699
0.00197210679557995,16.2088045181734
0.00224485066756686,16.212715944449
0.00255509197545827,16.2163463836685
0.00290803916421851,16.21972216249
0.00330971773169173,16.2228680279139
0.00376715949022189,16.2258074204329
0.00428866481724792,16.228562798309
0.00488418521993541,16.2311560585535
0.00556590684490093,16.2336091254104
0.00632595800759862,16.23588146321
0.00717168741962917,16.2380000133162
0.00812012045251013,16.2400071807362
0.00919955914800293,16.2419515671571
0.0104653405561667,16.2439044210553
0.0120819605270873,16.2460463716485
0.0136919772166259,16.2479199525686
0.0154567971075315,16.2497935334888
0.0169790282102741,16.2513358361875
0.0182906526590308,16.2526652372211
0.0194578651393707,16.2538991325484
0.0204937962344549,16.255095085904
0.021389094515404,16.2562942081329
0.0221189561308099,16.2575399956004
0.0226365728458399,16.2588977412706
0.0228382256130898,16.2605156828655
0.0222973758752876,16.2629815621062
0.0215021136013408,16.2645273983473
0.0204425495488893,16.2660732345883
0.0192634048239069,16.2675376517459
0.0179669831000185,16.2690102947542
0.0165625617529581,16.2705351194033
0.0153677559171206,16.2718154010701
0.0142004314608662,16.273095682737
0.0131005456843767,16.2743738297734
0.0109250504893705,16.2771698421431
0.0090841762418337,16.2799081540706
0.00760143331520403,16.2824642066745
0.00633984576029108,16.2849810947609
0.0052315477474182,16.2875486928477
0.00426890014005422,16.2901497603894
0.00347958981432162,16.2926329126618
0.00282157449702606,16.2950273496316
0.002260552982207,16.2973763171276
0.00176706806213102,16.2997472280516
0.00130827827188907,16.3022825761034
0.000799544949205235,16.3055843719811
0.000544918579436376,16.3074851849995
0.000313887914461483,16.309385998018
0.000120691431049732,16.3111247588091
-4.94169365815691e-05,16.3127839363061
-0.000209479855354113,16.3144680227971
-0.00036993014421031,16.3162889497249
-0.000545866313079286,16.318454694424
-0.000795826687735989,16.3218707549791
-0.00102806294645078,16.3254435033725
-0.00120733181218689,16.3284908448817
-0.00137622190705211,16.33160956577
-0.00155848445920181,16.3352651424352
-0.00177428085451341,16.3400388657186
-0.00199200202123521,16.3455893816042
-0.00214040441885012,16.3504355447394
-0.00222125274636205,16.3548341289122
-0.00222475096739804,16.3587995955038
-0.00214325195636513,16.3623852566122
-0.00197113159714526,16.365642220596
-0.00170376678143669,16.3686294572165
-0.0013344957749126,16.3714141382038
-0.000850282479588598,16.3740728464341
-0.000223216619294447,16.3767061855874
0.000612510594881457,16.37948113714
0.00175035130331235,16.3825516231397
0.00322457279555958,16.3858970058918
0.00506495635646569,16.3895204749905
0.00625269253600502,16.3916188234805
0.00755439016911443,16.3937171719705
0.00884406511278908,16.3955895726835
0.0102067725095293,16.3973545692908
0.0116516461449406,16.3990078650095
0.013236480402073,16.4005974360324
0.0149859955883226,16.4021250986159
0.0169319855160424,16.4035973327086
0.0190999823149135,16.4050138037291
0.0215225877934683,16.4063780667611
0.0242253522454821,16.4076885844256
0.0272478856328946,16.4089500339431
0.0306294348512709,16.4101646855207
0.0344148440931934,16.4113351832496
0.0386540517800232,16.4124639890334
0.0434107033249744,16.4135551647519
0.0487566143309815,16.4146120960341
0.0547766698183865,16.4156382924678
0.0615721864895111,16.4166374261484
0.0692644456145148,16.4176132765978
0.0780033776538876,16.4185701606721
0.0879738533189861,16.4195127254836
0.0994092413621847,16.4204462823983
0.112610999359476,16.4213771415422
0.127979774673962,16.4223131346478
0.146070349432696,16.4232646291578
0.16758941574841,16.4242419688914
0.192500149173988,16.4252218279927
0.221448560837749,16.42621424278
0.255298164151269,16.4272334888861
0.295325519042573,16.4283031923724
0.342257100872628,16.4294365423619
0.383303294752604,16.4303689473881
0.417330250285824,16.4311325523785
0.446788012625115,16.4318138086138
0.472533447001168,16.4324547214461
0.494659304704893,16.4330810871959
0.512813919323891,16.4337152087868
0.526144538900083,16.4343831248607
0.532860546350368,16.4351260553113
0.529707225852304,16.4359268046474
0.514933738034532,16.4367509193062
0.487123124948426,16.4376147724616
0.444432194819249,16.4385302019975
0.384830897636978,16.4395055203467
0.340093618122112,16.4401252258327
0.290938510583864,16.4407449313186
0.247221839989589,16.4412656288035
0.209716864265728,16.4417028969969
0.176747750114035,16.442088903443
0.147208468524151,16.442443076678
0.120426907089752,16.4427774596985
0.0959387542549229,16.4431008339316
0.0733630930263587,16.4434210789122
0.0522989446248669,16.4437475517034
0.0321086414384691,16.444096813618
0.0106383589529759,16.4445272285933
0.000936544998684961,16.4447510406123
-0.00780922681264998,16.4449748526313
-0.0143338983998988,16.4451593819421
-0.0203263958528613,16.4453457193811
-0.0263380635660358,16.4455532969863
-0.0321279725985984,16.4457786618852
-0.0375427076590455,16.4460197336476
-0.0424974249778083,16.4462758052426
-0.046948288705842,16.4465470837741
-0.0508761699055129,16.4468344356489
-0.0542708901759868,16.4471392662237
-0.0571578415158382,16.4474671869268
-0.0594675161404457,16.4478104583801
-0.0612752100094351,16.4481782138973
-0.0625960143887402,16.44857419574
-0.0634437227255483,16.4490029379168
-0.0638298801198271,16.4494701010726
-0.0637620895161237,16.4499828634423
-0.0632417393519042,16.450550617296
-0.0622582534323018,16.4511872792764
-0.0607854699424823,16.4519110561744
-0.0587700473719397,16.4527496532116
-0.0561003430447538,16.4537513376082
-0.0524860065881212,16.4550276084623
-0.0484243507377319,16.4564248006796
-0.0444962591615534,16.4577765596752
-0.0407503315219756,16.4590875276153
-0.0372102668050139,16.4603599716984
-0.0338881579848005,16.4615947165287
-0.0307892449101501,16.4627918570931
-0.0279140733639329,16.4639511382869
-0.0252596782523172,16.4650721546379
-0.0228203711162361,16.4661544530482
-0.0205883535536508,16.4671975808841
-0.0185542416127123,16.468201101484
-0.0167075312248934,16.469164588971
-0.0150370130847712,16.4700876089122
-0.0134699312225605,16.4710066887562
-0.011962371185535,16.4719493105409
-0.0105188282439361,16.4729170635287
-0.00914324231835472,16.4739120665847
-0.00783935755945314,16.4749368064732
-0.00661066979989064,16.4759942309009
-0.00546037488835054,16.4770878688227
-0.00439131483504288,16.4782219925529
-0.00340592173327149,16.4794018413296
-0.0025061590107623,16.4806339381556
-0.00169345890989186,16.4819265536348
-0.000968653940489721,16.483290412098
-0.000331897893153384,16.4847398197606
0.000217432433539508,16.4862945809837
0.000667013975629281,16.4879256062559
0.00101765012888112,16.4896044331207
0.00128547108772138,16.4913493797441
0.00148494978058858,16.4931820387514
0.00162967972871961,16.4951313569854
0.00173279432718891,16.4972385649147
0.00180759884552154,16.4995675462714
0.00186880406694263,16.5022305868707
0.00193611393184759,16.5054747291645
0.00202656699204523,16.5092158797145
0.00214353989954307,16.5130650165355
0.00228099439235719,16.5168400427325
0.00243535112835447,16.5206073437725
0.00260298074326261,16.5244159291503
0.00278134094575729,16.5283040388451
0.00296928204502207,16.5323046930841
0.0031669720070708,16.5364487759897
0.00337569528594043,16.5407669905651
0.00359763700243651,16.5452912975185
0.00383573901131672,16.5500562881423
0.00409371896974215,16.5551006439862
0.00437634045170158,16.5604684907514
0.00468853807696683,16.5661837202929
0.00500259306053515,16.5716742501612
0.00532979237564886,16.5771043974027
0.00566914500694489,16.5824092518705
0.00602529471602677,16.5876188896372
0.00640165894954728,16.5927394587624
0.00680231801453911,16.5977830727904
0.00723135065950972,16.6027567356152
0.00769311925332081,16.6076653908988
0.00819232447801303,16.6125115860073
0.00873414648232786,16.6172961376773
0.00932434144732513,16.6220182973598
0.00996934562439987,16.6266760906939
0.0106781850344774,16.6312779230965
0.0114760036957168,16.6359111790064
0.01237738051481,16.640565975315
0.0134052901653726,16.6452593862039
0.0145922874144953,16.6500254485461
0.0159930158504396,16.6549465957257
0.0177257572062085,16.6602476124888
0.020191706420152,16.6667745209671
0.0218382544025804,16.6707233187554
0.0235476787885624,16.6746721165436
0.0250376191095941,16.6781494043942
0.0262945430179154,16.6812806420163
0.0273441736929076,16.6842590988351
0.0281528036264702,16.6871194054708
0.0286939670469872,16.6898767352982
0.0289630271969322,16.6926511247672
0.0289227077196629,16.695606839753
0.0284348766394365,16.6991400666658
0.0276409545345218,16.7022610492135
0.0265630699182728,16.7053820317613
0.0254823282244455,16.708011579218
0.024412405096024,16.7103731563383
0.023341661098978,16.7126030623096
0.0222696480378537,16.714761180751
0.0211994177281598,16.7168798483155
0.0201346796237617,16.7189798520674
0.0190790879730822,16.721076076331
0.0180360569222582,16.7231800044824
0.0170087171722691,16.7253010258531
0.0159999130844083,16.7274472026678
0.015012215151248,16.7296257532889
0.0140479318834561,16.7318433895957
0.0131091228690822,16.7341065636181
0.0121976140988331,16.7364216544495
0.0113150019474171,16.7387951519545
0.0104626697687334,16.7412337941595
0.00964179589601918,16.7437447216181
0.00884659474089785,16.7463587347128
0.00806248876635541,16.7491469833578
0.00729326958524774,16.7521295528842
0.00654275143317182,16.7553304729802
0.00581499467841875,16.7587775657561
0.00511427529964232,16.7625031800139
0.00444503489329466,16.7665450836809
0.00381178658857871,16.7709476946707
0.00321894774871312,16.7757640759286
0.0026705779753334,16.7810595935035
0.00217005665959266,16.786918637901
0.0017198566213547,16.7934554786596
0.00133894111224144,16.8004658031139
0.00109902469456379,16.8063477161822
0.000860995545577542,16.8140992062345
0.000671045480569663,16.8224346731382
0.000518704953997979,16.8315534429592
0.000400896822956623,16.8415534429592
0.000320638992081937,16.8515534429592
0.000267022831064368,16.8615534429592
0.00023210978937874,16.8715534429592
0.000210266542434691,16.8815534429592
0.000197616486009262,16.8915534429592
0.000191547547849962,16.9015534429592
0.000190319512739384,16.9115534429592
0.000192786042728422,16.9215534429592
0.000198212388383608,16.9315534429592
0.000206159578681758,16.9415534429592
0.000216411368776368,16.9515534429592
0.000228929311657839,16.9615534429592
0.000243828288809469,16.9715534429592
0.000261369028535021,16.9815534429592
0.000281966769743543,16.9915534429592
0.000306217526995053,17.0015534429592
0.000334946272013686,17.0115534429593
0.000369285606838352,17.0215534429593
0.000410800458176043,17.0315534429593
0.000461686457324025,17.0415534429593
0.000520386139884512,17.050876442198
0.000587407026302996,17.0594807847205
0.000663846340145252,17.0674190613743
0.000751002653283027,17.0747435821072
0.000850358341845479,17.0815029787152
0.000963592553676142,17.0877423769915
0.00109260473374133,17.0935036681278
0.001239543632143,17.0988257516257
0.00140684113065975,17.1037447538653
0.00159725062803546,17.1082942343368
0.00181389325072551,17.1125053833964
0.00206031224617704,17.1164072118513
0.00234053997578014,17.1200267344945
0.00265918065792366,17.1233891551702
0.00302151550635689,17.1265180594396
0.00343363973798888,17.129435618988
0.00390264494953925,17.1321628190511
0.00443687126169095,17.1347197281606
0.00504626863323786,17.1371258388379
0.00574286429380581,17.1394003134559
0.00651316148277874,17.1414923311179
0.00736662661867017,17.1434371702138
0.00831784410892393,17.145270674918
0.00938951235982858,17.1470308588946
0.0106217531744044,17.1487665766511
0.0121250476391157,17.1505893213706
0.0143251142848284,17.1528720850512
0.0159105143515226,17.1543379461427
0.0175945977720905,17.1558038072341
0.0191359311206562,17.1571146426193
0.0205060233315953,17.1583005604613
0.0217338775760057,17.1594283686699
0.0228206530078036,17.1605417625543
0.0237493556408576,17.1616794889433
0.0244847953477793,17.1628907980331
0.0249571929057329,17.1642660328552
0.0249631744688808,17.1660989225995
0.0243990407765215,17.1677532431211
0.0233931497301364,17.1694075636427
0.0222499264828707,17.1708460376676
0.0209688074170006,17.1722516396955
0.0195530097828967,17.1736926629443
0.018011645738661,17.175208459337
0.0168734265451679,17.1763220491941
0.0157597292539163,17.1774356390512
0.0146564002545886,17.1785958366661
0.0122398080585445,17.1813947320136
0.0100958806878294,17.1842766596535
0.00840277870275615,17.1869325761601
0.00703640015351825,17.1894207301492
0.00584460164289344,17.1919388302999
0.00479723475930322,17.194519580828
0.00387443707130586,17.1971866474514
0.00306037857264314,17.1999632527721
0.00234178065231329,17.2028739944088
0.00174251503945164,17.2057594105284
0.00125703970100902,17.2085149641685
0.00085089886664843,17.2112035835865
0.000503343027949019,17.2138639698468
0.000205365981249234,17.2164779669218
-4.84564613072505e-05,17.2190014588877
-0.000266885852728221,17.2214317512519
-0.000460806043987676,17.2238185222468
-0.00064155478545579,17.2262577075152
-0.000826357044272595,17.2289804400363
-0.000970372048409155,17.2312672653311
-0.0011061612091237,17.2335540906259
-0.00121469798466029,17.2354688700977
-0.0013080315573244,17.2371727514001
-0.0013961083601868,17.2388249751043
-0.00148487758999114,17.2405291098429
-0.00158087614210985,17.2424102844701
-0.00169775068422328,17.2447451841565
-0.00191712309204101,17.2492247497803
-0.00211564366030052,17.2533595899065
-0.00228150325018992,17.2568727329637
-0.00245424917023939,17.2606182701419
-0.00266389850235397,17.2654101216508
-0.00286133621491589,17.270622598366
-0.00298628502023683,17.2754287503695
-0.00301777101341112,17.2795420134822
-0.00295836600183801,17.2832055209126
-0.00279867297155254,17.2866981792
-0.00252533453603234,17.290055108328
-0.00214755358263056,17.2931401773364
-0.00166865800471762,17.2959964866869
-0.00108448037487308,17.2986873132123
-0.000375123486610203,17.3013030190508
0.000507175626682261,17.3039711404711
0.00170281966505098,17.3069797041532
0.00320230710717385,17.3101867035159
0.00483506496612126,17.3132596677748
0.00618196830520184,17.3155642030285
0.00765334957529792,17.3178687382821
0.00907343321626702,17.3198826502835
0.0105056571513659,17.3217071294708
0.0119860924891103,17.3233859370566
0.0136019941417206,17.3250031017538
0.015354170272362,17.3265381771102
0.0172992480701509,17.3280214696485
0.0194558793457608,17.329446475108
0.0218625908051973,17.3308204126402
0.0245507050492691,17.3321437190261
0.0275511201480309,17.3334161976369
0.030908393896956,17.3346423933399
0.0346678904491209,17.3358248161384
0.0388812746982418,17.336966158659
0.0436094511787781,17.3380696109596
0.0489264087995314,17.3391390430566
0.0549180736950591,17.3401780633606
0.0616873370238404,17.3411904866495
0.0693583545396263,17.3421803380242
0.0780846908047529,17.3431521565915
0.0880583910217253,17.3441110388291
0.0995246754876419,17.3450629119317
0.112805880781446,17.3460150316531
0.128341265446365,17.3469767715086
0.146761404204211,17.3479611886824
0.168403218699479,17.3489608654871
0.193516001645446,17.34996818589
0.222814590696427,17.3509960032762
0.257299909520328,17.3520635323868
0.298591273990514,17.3532055580038
0.333357067205431,17.3540932379838
0.369631840382215,17.3549809179638
0.401934182582502,17.3557658955205
0.430201146723679,17.356475714414
0.454875774863359,17.357144522903
0.475961068131798,17.3577967372566
0.493082024148388,17.3584537432646
0.505408732213834,17.3591395996498
0.511299106852073,17.3598894085315
0.507772962013292,17.360708251119
0.49297420396076,17.3615452285866
0.465589464274558,17.3624152324022
0.423976432320312,17.3633290163082
0.366339125946379,17.3642959006805
0.324409361636549,17.3648934774225
0.278554053781166,17.3654910541645
0.237438007639637,17.3659989524341
0.201769469974547,17.3664310105378
0.17018046737473,17.366815667688
0.141746201323822,17.3671705204894
0.115886036390149,17.3675068251598
0.092185920865504,17.3678330324065
0.0702945961471242,17.3681569488708
0.0498267147001364,17.3684881473635
0.0301364655694056,17.3688442339273
0.00884566203628372,17.3692921158942
9.55452474050895e-05,17.3695040106602
-0.00784355921222069,17.3697159054261
-0.0142274987890228,17.3699035615541
-0.0201510800524831,17.3700951636656
-0.0260683804614779,17.3703079925527
-0.0317492061511166,17.3705386319267
-0.0370490175432084,17.3707850872033
-0.0418884534872127,17.3710467227493
-0.0462269703656347,17.3713238069573
-0.0500438929758289,17.3716172631979
-0.0534840957397061,17.3719455087387
-0.0561881276004415,17.3722749365499
-0.0583820638999049,17.3726262863047
-0.0600816896060338,17.3730028788793
-0.0613011362998846,17.3734084991926
-0.0620536186326002,17.3738478219254
-0.0623499458511979,17.374326683858
-0.0621968336453416,17.3748524891889
-0.0615942405716196,17.3754352064693
-0.0605300347461316,17.3760890451308
-0.0589761972161902,17.3768329559471
-0.0568762884071389,17.3776960021819
-0.0541115207916643,17.3787296123787
-0.0503626768483814,17.3800571878992
-0.0463741761992334,17.3814402728537
-0.0425328848224248,17.3827781355155
-0.0388810370628554,17.384074914879
-0.0354388817758305,17.385332739652
-0.0322163052148154,17.3865524011167
-0.0292168935588471,17.3877340115288
-0.026439855920789,17.3888773556536
-0.0238811273602705,17.389982075353
-0.0215341284992351,17.3910477636008
-0.0193903668199867,17.3920740070416
-0.0174399506979657,17.3930603976108
-0.0156720419354593,17.3940065243221
-0.0140737878810482,17.3949128083472
-0.0125320299107299,17.3958420221091
-0.0110519460985252,17.3967952813425
-0.00963756738694563,17.3977745308944
-0.00829276006224433,17.3987820380272
-0.00702116969388536,17.3998204756877
-0.00582617092033371,17.4008930249179
-0.00471081489758854,17.4020035112437
-0.00367777455256191,17.403156590178
-0.00272928742873266,17.4043580058906
-0.00186709543646556,17.4056149626521
-0.00109237996349907,17.406936677259
-0.000405689291564618,17.4083352364654
0.000193147672589282,17.4098270006186
0.000705133710713805,17.411435064439
0.0011092180197423,17.4130844573431
0.00142183173562155,17.4147898835278
0.00165812871610715,17.4165701094082
0.00183217604956191,17.4184495270011
0.00195733291658742,17.42046161218
0.00204674979074989,17.4226556531193
0.0021141945584852,17.4251117542888
0.0021759395082928,17.4279823412007
0.00225782811137706,17.4316654346463
0.00236278554767596,17.4354729636177
0.00249268786668125,17.4392808803487
0.00264200703544451,17.4430429027503
0.00280698591437084,17.4468176261859
0.00298456700968398,17.4506489382218
0.00317302823634561,17.4545725398039
0.00337205950027804,17.4586202535957
0.00358261651350621,17.4628226131478
0.00380671252393956,17.4672105220966
0.00404724120766652,17.471816604185
0.00430791992304562,17.4766766179765
0.00459344196790438,17.4818308292101
0.00490994483711129,17.4873253583695
0.00523827826353761,17.4927624356539
0.00557903408862686,17.498111625521
0.00593429175274015,17.5033622307766
0.00630732990751603,17.508518280072
0.0067020986819683,17.5135892709496
0.00712288397127595,17.5185843796511
0.00757423459563773,17.5235106523228
0.00806100097164652,17.5283726341737
0.00858841559718765,17.5331724666755
0.00916220413267987,17.5379102953941
0.00978869846985438,17.5425847032359
0.0104749597083321,17.5471932764214
0.011243816396064,17.551818446945
0.0121111807314006,17.5564653086329
0.0130976334551836,17.5611448490869
0.0142320714739019,17.565883704208
0.0155604291640218,17.5707449603096
0.0171732180496006,17.5758911274612
0.0193465517552218,17.5819013394891
0.0211296503025718,17.5863139682096
0.0230216714072089,17.5907265969301
0.0246120824537782,17.5944054227413
0.0259375062933196,17.5976214818939
0.027050625851736,17.6006309983979
0.0279430914697324,17.6035466846146
0.0285652412698911,17.6063233674526
0.0289190260526196,17.6090780707268
0.0289799648660187,17.6119542352211
0.0286581675526206,17.6152296944015
0.0276530662291171,17.6195249033016
0.0267634386861128,17.6221499461686
0.0257112763763777,17.6247749890355
0.0246436638700571,17.6271694430729
0.0235736137991369,17.6294193701858
0.0225017782813176,17.6315884946796
0.0214310279341555,17.6337125597236
0.0203650378606708,17.6358140895723
0.0193075002903073,17.6379089132349
0.018261889613991,17.6400090624758
0.0172314005263357,17.6421242548229
0.0162189414576071,17.6442627403588
0.0152271440471082,17.6464318312267
0.0142583748370106,17.6486382623022
0.0133147511095772,17.6508884438225
0.0123981496194012,17.653188669786
0.0115102182626844,17.6555452846066
0.010652389504302,17.6579648247793
0.00982588441636607,17.6604541788501
0.0090286104001345,17.6630311749131
0.00824163071566831,17.6657782021039
0.00746873399408699,17.6687145297846
0.00671368203558298,17.6718633919847
0.00598048663945416,17.6752516632933
0.00527338624550848,17.6789105415271
0.00459679680668386,17.6828764117551
0.00395523133337868,17.6871919647282
0.00335315644629804,17.6919079129218
0.0027947355711572,17.6970862792262
0.00228353150799642,17.7028061371048
0.00182222934086551,17.7091735518766
0.00142624576936168,17.7160665296405
0.00109963264016966,17.7234974379408
0.000890375814722503,17.73002407732
0.000687928986872306,17.7384259233118
0.000529266032327036,17.7474504711616
0.00040455019234961,17.7574504711616
0.000318999066696637,17.7674504711616
0.000261348133008585,17.7774504711616
0.000223410617312201,17.7874504711616
0.000199299981918028,17.7974504711616
0.000184910055894545,17.8074504711616
0.000177451944911194,17.8174504711616
0.000175062527050107,17.8274504711616
0.000176512280969838,17.8374504711616
0.000181007460667592,17.8474504711616
0.00018806302323778,17.8574504711616
0.000197422458899873,17.8674504711616
0.000209008015633927,17.8774504711616
0.000222892032972595,17.8874504711616
0.000239284874683705,17.8974504711616
0.000258537828627838,17.9074504711616
0.000281161476505759,17.9174504711616
0.000307862349481535,17.9274504711616
0.000339603911482682,17.9374504711616
0.000377702969236029,17.9474504711616
0.000423981132204322,17.9574504711616
0.000480240790103101,17.9673277378883
0.000544698635947612,17.976457627488
0.000618263067327065,17.9848745437119
0.000702152454886811,17.9926345245765
0.000797783152809649,17.9997902866988
0.000906768752444719,18.0063906236019
0.00103093792289519,18.0124807190441
0.001172361282432,18.0181024480427
0.001333384048542,18.0232946385696
0.00151666391608625,18.0280933079417
0.00172521503192764,18.0325318873118
0.0019624612464502,18.0366414371684
0.0022323003808063,18.0404508521129
0.00253918354419365,18.0439870609515
0.00288821644004521,18.0472752338687
0.00328528992899057,18.0503390032233
0.00373725489839432,18.053200704751
0.00425216258856348,18.0558816606057
0.00483960837111568,18.0584025364047
0.00551124655730799,18.0607838248044
0.00626123846529661,18.0629918690375
0.00709318836607182,18.0650421657038
0.0080213817963019,18.0669729453866
0.00906843383491515,18.068825295139
0.0102746579281058,18.0706522082872
0.0117342436244541,18.0725536532127
0.0139002943194081,18.0749669968392
0.0154144071250864,18.0764722728758
0.0170176942869512,18.0779775489125
0.0184806477625583,18.0793238844367
0.0197809853130678,18.0805457982843
0.0209437367787483,18.0817096719543
0.0219683662647588,18.0828595596676
0.0228372366061945,18.0840350904821
0.0235148103814296,18.0852871185043
0.0239305604575176,18.0867097978233
0.0238746957874453,18.0886154836595
0.0232877400407307,18.0902888453093
0.022289673162903,18.091962206959
0.0211621952844194,18.0934279312679
0.019905864948843,18.0948591031496
0.0185249170146037,18.0963223632533
0.0170287186476899,18.0978565854616
0.0161090619596335,18.0987949349605
0.0152060660131816,18.0997332844595
0.014190357384677,18.1008378220589
0.0118815228590873,18.1035958182045
0.00982859545756749,18.1064336472046
0.00819361973572985,18.109063625533
0.00685424588834031,18.1115610971244
0.00568317933488291,18.1140940797679
0.00465257784967701,18.116693524117
0.00374346773565862,18.119383014854
0.00294084285436198,18.1221849424543
0.00229907098868126,18.1248219972148
0.00177686915843327,18.127319013035
0.00134234848304084,18.1297123970111
0.000971927649481813,18.1320429366054
0.000647886202228755,18.1343566210361
0.000355551293814373,18.1367153647226
7.81843336257659e-05,18.1392427305956
-0.000229217620317155,18.1424421662235
-0.000395526204855289,18.1443776127399
-0.000549490253398886,18.1463130592562
-0.000679891874176756,18.1480683754032
-0.000795632275084085,18.1497201777226
-0.000905759802706324,18.1513765314038
-0.00101741551102845,18.1531416464778
-0.00114050666041376,18.1551878874031
-0.00130561698406876,18.1580947793286
-0.00150496314046418,18.1618397328902
-0.00166223458469409,18.1649645392052
-0.00180838863622054,18.167995086576
-0.00196839356344601,18.171452462717
-0.00216094121213751,18.1758363120041
-0.0023827616108879,18.1813927348362
-0.00254435687483864,18.1864205589701
-0.00263159956342275,18.190937160865
-0.0026327160298765,18.1949866925759
-0.00254050663096155,18.1986221545009
-0.00235136133951338,18.2019158641986
-0.00206260165631869,18.2049377293971
-0.00166976514638251,18.2077550046136
-0.00116356832529617,18.2104344667146
-0.000525009363059215,18.2130518178643
0.000295546909038348,18.2157423247888
0.00141760810841431,18.2187507615728
0.00284759206679937,18.2219767163834
0.0045579260544126,18.225342782385
0.00586979272459952,18.2276779926118
0.00730387069444762,18.2300132028387
0.00863813827243047,18.2319789542065
0.0100129097216342,18.233797706877
0.0114409339384144,18.2354771744297
0.0129949079341977,18.2370878566448
0.0147002745216201,18.2386331396839
0.016590627463342,18.2401217962876
0.0186942082937105,18.2415554343047
0.0210428475507527,18.2429368840929
0.0236615688154137,18.2442641732642
0.0265896261943859,18.2455420954063
0.0298647083607461,18.2467725418834
0.0335271877418016,18.2479571277226
0.0376303898839518,18.2490999681183
0.042233297153392,18.2502043196117
0.0474046759301374,18.251273515358
0.0532258002337677,18.2523110522691
0.0597922765906811,18.2533204091577
0.0672217744875311,18.2543056639565
0.0756563703891762,18.2552709887877
0.0852716850888779,18.2562209818213
0.0962888814734471,18.2571608821882
0.108992494243858,18.2580968638406
0.123760434065316,18.2590366256593
0.141112988154214,18.2599902357405
0.161806952926065,18.260971941277
0.185793418648772,18.2619566679538
0.213655905069659,18.2629525658786
0.246213550749084,18.2639734264295
0.284652190630307,18.265041236211
0.329973597872466,18.2661747759422
0.372150510161902,18.2671593627408
0.406967257499499,18.2679553803102
0.436975112114056,18.2686567942964
0.463209496699201,18.2693108774564
0.48585334502571,18.2699450439917
0.504636325073285,18.2705815242718
0.518832674829188,18.2712445297802
0.526946943827495,18.2719692516528
0.525960288884961,18.2727722848749
0.513666254964679,18.2735936654374
0.488771782653515,18.2744501256932
0.449553990644551,18.2753541281108
0.39406510721139,18.2763143089516
0.348806940326072,18.2769677033565
0.298387329045499,18.2776210977615
0.253574700220824,18.2781643261585
0.215356617177601,18.2786149255707
0.181890464405482,18.2790093692347
0.15196861249569,18.2793692030146
0.124875264863863,18.2797073865034
0.100128850025047,18.2800330650146
0.0773471786301665,18.2803541063367
0.056149182313947,18.2806793053583
0.0359838438757249,18.2810228876885
0.0153260777478772,18.2814264214233
0.00196174738630965,18.2817288826764
-0.00541508650263321,18.2819155483134
-0.0121577925611932,18.2821022139504
-0.018037293294777,18.2822806286748
-0.0240506282820884,18.2824821551305
-0.0299179877310501,18.2827027014031
-0.0354535266811096,18.2829395345253
-0.0405531593038334,18.28319153412
-0.0451616282288699,18.2834586324709
-0.0492528645420016,18.2837414920832
-0.0528142336789063,18.2840413458448
-0.0559389006014531,18.284371953583
-0.0583975980261043,18.2847094712941
-0.0603502800652695,18.2850704284653
-0.061812746661481,18.2854584397939
-0.0627990976817397,18.285877748488
-0.0633216723413602,18.2863336292667
-0.0633894509720999,18.2868327314267
-0.0630060952354792,18.2873836032259
-0.0621653399408093,18.2879986794165
-0.0608467394395702,18.2886944381805
-0.0590077879925236,18.2894948390759
-0.0565618222178877,18.2904394412407
-0.0533052027911936,18.2916093472324
-0.0492295505683106,18.2930221184241
-0.0452689944715325,18.2943855053683
-0.0414803953139714,18.2957067167956
-0.037892429023582,18.2969887482009
-0.0345197771582868,18.2982327984141
-0.0313692590330146,18.2994391562092
-0.0284425116044229,18.3006076645152
-0.0257373808489583,18.3017379647333
-0.02324879836016,18.3028296237804
-0.0209694366555986,18.3038821960527
-0.0188902565498554,18.3048952472864
-0.0170009885058882,18.305868354705
-0.015290561007304,18.3068010913402
-0.0137110001672128,18.3077147458289
-0.0121897254431285,18.3086516793092
-0.0107315114356417,18.3096132821554
-0.00934033807241442,18.3106015976179
-0.0080200029156386,18.3116190172063
-0.0067740672386442,18.3126683693204
-0.00560580499813022,18.3137530316415
-0.00451814958355119,18.3148770818268
-0.00351363840721999,18.316045504104
-0.00259435501187041,18.3172644800395
-0.00176186780645131,18.3185418106931
-0.00101716355068666,18.3198875528566
-0.000360571905299832,18.3213150229049
0.000208326273663192,18.3228424747295
0.000682829194371455,18.3244648005731
0.00105416154195149,18.3261305844777
0.00133908325412928,18.3278581374592
0.00155231575611576,18.32966773619
0.00170761936510635,18.3315862597417
0.00181817844350766,18.3336513730382
0.00189716319707586,18.3359201252012
0.00195874552391541,18.3384892798858
0.0020207409416285,18.3415576211714
0.00210510575693907,18.3452909087487
0.00221730311776868,18.3492091011602
0.00235021822716327,18.3530084867884
0.00250051191675483,18.3567704342436
0.00266447411872564,18.3605524971706
0.00283938277153431,18.3643969992646
0.00302390026725305,18.3683388811047
0.0032180245179796,18.3724097045386
0.00342289606351266,18.3766400203738
0.00364058185947758,18.381060996758
0.00387390615788577,18.3857057457046
0.00412641660563388,18.3906107860421
0.00440256272784563,18.3958174004881
0.00470819040675298,18.4013730539853
0.00502582406297052,18.406893214667
0.005353910798842,18.4123079408458
0.005695176834275,18.4176193091084
0.00605260457478141,18.4228294518001
0.00643004225385547,18.427950510938
0.00683149942434651,18.4329925631767
0.00726121094451502,18.437963744191
0.00772363976802499,18.4428693468297
0.00822358693236065,18.4477122796141
0.00876630638335559,18.4524934705034
0.00935761990109869,18.4572122447415
0.0100040213247242,18.461866660715
0.0107153688787911,18.4664699008346
0.0115161864591928,18.4711037905233
0.012421393149416,18.4757597696151
0.0134542193100952,18.4804552115876
0.0146477768384834,18.4852253221968
0.0160580408582346,18.4901554849061
0.0178078583521343,18.495480730497
0.0202742758957541,18.501980233562
0.0219105550881579,18.5058949937445
0.0236060741587591,18.5098097539269
0.0250865717790644,18.5132696123012
0.0263362900844935,18.5163930047022
0.0273789629086296,18.5193688315918
0.0281784514534281,18.5222236851893
0.0287106690003434,18.5249793861759
0.028970182532504,18.5277565476315
0.0289180234346844,18.5307223982027
0.0284088880955905,18.5342913174677
0.0276102746573227,18.5373811220257
0.0265354468815476,18.5404709265837
0.0254559738119063,18.5430880694786
0.0243861694099851,18.5454444626555
0.0233153918016669,18.5476715802955
0.0222434214746669,18.5498280068619
0.0211733517812736,18.5519456209435
0.0201088963644317,18.5540449902164
0.0190537051360581,18.5561408729093
0.0180111859339755,18.5582446710623
0.0169844630035478,18.5603657165319
0.0159763746157092,18.5625120274099
0.0149894855237888,18.5646907855568
0.0140260990549485,18.5669086697127
0.0130882697430051,18.5691721002783
0.0121778188138803,18.5714874236107
0.0112963381383546,18.5738610937254
0.0104452061082054,18.5762998096193
0.00962559665452104,18.5788106647079
0.00883059998611115,18.5814282693497
0.00804679710495321,18.5842204806219
0.0072779724288372,18.5872074881252
0.0065279476612877,18.5904133902744
0.00580079072892509,18.5938660873904
0.00510078394114969,18.5975980217037
0.00443237407642194,18.6016470693082
0.00380007642237169,18.606057782221
0.003208305154435,18.6108834087418
0.00266110964258804,18.6161895988164
0.00216185152447423,18.6220612135012
0.00171310191207833,18.6286113371099
0.00133381039865877,18.6356327915573
0.00102332683461599,18.643490810934
0.000826680033097508,18.6503441576076
0.000638198333485937,18.659043408303
0.000495560511573103,18.6680932149536
0.000384282556816545,18.6780932149536
0.000308574948440017,18.6880932149536
0.000258138264200061,18.6980932149537
0.000225469149675176,18.7080932149537
0.000205242178099591,18.7180932149537
0.000193795847001297,18.7280932149537
0.000188668136379931,18.7380932149537
0.000188224977847857,18.7480932149537
0.000191397334427335,18.7580932149537
0.000197509245141584,18.7680932149537
0.000206169174253702,18.7780932149537
0.000217202201353886,18.7880932149537
0.000230609299640258,18.7980932149537
0.000246546663303888,18.8080932149537
0.000265322142207745,18.8180932149537
0.000287408513775385,18.8280932149537
0.000313475801816383,18.8380932149537
0.000344448085915761,18.8480932149537
0.000381595211411767,18.8580932149537
0.000426678095810754,18.8680932149537
0.00048144679400387,18.8779721289968
0.000544175057065185,18.8871071830663
0.000615747769895725,18.8955320066238
0.000697352826666526,18.9033019019339
0.00079037147555546,18.9104689700168
0.00089637677795418,18.9170814915277
0.00101715056141244,18.9231842200695
0.00115470937817273,18.9288186667912
0.00131133598585354,18.934023349891
0.0014896157495997,18.9388340207549
0.00169247872949541,18.943283878248
0.00192325033793245,18.9474037743868
0.00218571216060535,18.9512224105043
0.00248417672435005,18.9547665289683
0.00282358210235766,18.9580611098651
0.00320961301695249,18.9611295786223
0.00364886146261575,18.9639940305433
0.00414904497896873,18.9666754894097
0.00471931478908157,18.9691942263386
0.00537070978824546,18.9715701807734
0.0061031008806264,18.9737856142185
0.00691424136362058,18.9758354904384
0.00781644247590388,18.9777564185265
0.00882877875887532,18.9795864961944
0.00998334299546644,18.9813709191649
0.0113448247781191,18.9831799985728
0.0131706086855179,18.9852643106771
0.0147981876615212,18.9869047919948
0.0165648287481125,18.9885452733125
0.0181707535763099,18.989974836829
0.0195725372301108,18.9912245371428
0.0208251274643028,18.992389919497
0.0219405794183531,18.9935236438827
0.0229085673496794,18.9946650901705
0.0237023049093778,18.995857439559
0.024270603651823,18.9971681389547
0.0244952627307917,18.9987601141223
0.024126727289112,19.0006176182625
0.0231741807474268,19.0024751224027
0.0220740770758786,19.0039806302952
0.020849104672055,19.005401460359
0.0194930694562304,19.0068381952183
0.0180140553462971,19.0083355403011
0.0164196193295793,19.0099304704429
0.0147471473372154,19.0116680483517
0.0130774685342553,19.0135561058205
0.0108330553433966,19.0164201075561
0.00899487467567002,19.0191503529788
0.00752182615678174,19.0216925956636
0.0062690685983612,19.0241996664919
0.00517004010603583,19.0267584429609
0.00420197805879335,19.0293951513014
0.00334784771657552,19.0321330074337
0.00259358612991041,19.0349960014906
0.0019672599563367,19.0378128719713
0.00146209285135875,19.0404810149931
0.00104356627631859,19.0430474014573
0.000687948414365824,19.0455552006045
0.000380481817834944,19.0480283065888
0.000111723878387124,19.0504742246714
-0.000127235753901525,19.0529151626808
-0.00034856573780083,19.0554364254991
-0.000575847699294107,19.0583216963216
-0.000733089455511796,19.0605103285047
-0.000879614012636898,19.0626989606878
-0.00099921235130524,19.0645937461916
-0.00110250843421306,19.0663078306125
-0.001199617729976,19.0679828557707
-0.00129704171307793,19.0697223274893
-0.00140213631137646,19.071660606281
-0.00153112645673469,19.0741189704667
-0.00175774396490262,19.078615309401
-0.00194968229598193,19.0825718562076
-0.0021101588639781,19.085976278776
-0.00227930403842715,19.0896767050404
-0.00248356236196504,19.0943952225775
-0.00268365542290484,19.0996706384129
-0.00281611760159555,19.1045431836197
-0.00285917922765198,19.1088720779011
-0.00280807977674178,19.1126422952676
-0.00265630025289836,19.1161648988355
-0.00239865907215607,19.1194338202487
-0.00203455873631517,19.122470429465
-0.00156359778356338,19.125310546332
-0.000979975484715767,19.128007295042
-0.000261383916457825,19.1306499381537
0.000644896570723768,19.1333714545882
0.00186954141068982,19.1364260926061
0.00340317161314787,19.1396789984659
0.00507060570559383,19.1427880468978
0.00635651822903746,19.1449637763812
0.00776181307844692,19.1471395058646
0.00916464014742338,19.1491033300248
0.0106097070225722,19.1509156361616
0.012106025122174,19.1525817574195
0.0137414466391377,19.1541858646499
0.0155220600554739,19.155712747151
0.0174991569579151,19.1571869991915
0.0196923895609982,19.1586031933965
0.0221399699572593,19.159968209726
0.0248729846951677,19.1612824054305
0.0279240999075624,19.1625463618069
0.0313378543119851,19.1637643196968
0.0351605287676934,19.164938884345
0.0394444879853788,19.1660727066779
0.0442528892925435,19.1671692460009
0.0496608313147379,19.1682322360594
0.0557561507118074,19.1692652845379
0.0626441204824271,19.1702722082784
0.0704518281669103,19.1712570316827
0.0793367469957112,19.1722243152713
0.0894958745633202,19.1731791708952
0.101181091871487,19.1741275600093
0.114723912752295,19.1750767935073
0.130576772859739,19.1760363349382
0.149390253292001,19.177019392111
0.171444881560437,19.1780156722347
0.197040247792031,19.1790201437885
0.226907573043839,19.1800457424168
0.262074002062065,19.1811119494553
0.30420732901177,19.1822543347285
0.33891419881873,19.1831249305785
0.375021823353458,19.1839955264285
0.407167447851757,19.1847675114778
0.435300661925354,19.1854678636685
0.459841003577424,19.1861297901274
0.480768285014631,19.1867773813719
0.497676619267811,19.1874322072347
0.509679760566168,19.1881192408546
0.514999216786389,19.1888763429188
0.510581675635416,19.1896932648694
0.494733066147273,19.1905306381334
0.466087325085957,19.1914032473849
0.42294942988878,19.1923216425386
0.36347790834948,19.1932951968588
0.32160042490063,19.1938809129337
0.276040397088888,19.1944666290085
0.235202019070431,19.1949662235091
0.199716738548402,19.1953930368518
0.168257584636632,19.1957741663274
0.139924724583054,19.1961265331846
0.114147681292266,19.1964610941326
0.0905151928885434,19.1967861929294
0.0686730063901052,19.1971096899991
0.0482220946484944,19.1974415063884
0.0284613639494816,19.1978007210312
0.00648536980611982,19.1982686291027
-0.00147982655188175,19.1984645058065
-0.008751521369702,19.1986603825102
-0.0150077738572274,19.1988452978852
-0.0209597641419407,19.1990389856552
-0.0268747328893182,19.1992533975508
-0.0325316563276109,19.1994852543423
-0.0377950610269716,19.1997327585385
-0.0425909730832051,19.1999954006626
-0.0468820623445184,19.2002735342487
-0.050649434317829,19.2005681473115
-0.0540254318534084,19.2008965488412
-0.0566816977500938,19.2012274316542
-0.0588285224686594,19.2015805227525
-0.0604817029265778,19.201959194885
-0.061655407704857,19.2023673188531
-0.0623627226787937,19.2028096810134
-0.0626141457864761,19.2032922682363
-0.062415853380907,19.2038226941506
-0.0617667133960632,19.2044113793453
-0.0606530871977329,19.2050729254919
-0.0590444661279189,19.2058271447619
-0.0568794659893905,19.2067048140987
-0.054026770255585,19.2077617373953
-0.0501139062596182,19.2091400676853
-0.0461297820163154,19.210518340542
-0.0422997948965738,19.211852134476
-0.0386622508434046,19.2131453595594
-0.0352359101570887,19.2143998963933
-0.0320298630789382,19.2156164016501
-0.0290472012156563,19.2167949152838
-0.0262867932015944,19.2179351833428
-0.023744325579583,19.2190368272275
-0.0214130341515639,19.2200994292351
-0.0192842909530284,19.2211225702204
-0.0173481098350864,19.2221058382417
-0.0155935929981883,19.2230488184342
-0.0139995058522079,19.2239568335564
-0.0124623394068949,19.2248878589182
-0.0109871745961898,19.2258430750844
-0.00957803029062523,19.226824449567
-0.00823875645290937,19.2278342782508
-0.00697297857701689,19.2288752698565
-0.00578404724876882,19.2299506506129
-0.00467498539505625,19.2310643038782
-0.0036484333333714,19.2322209603896
-0.00270659138295346,19.2334264641261
-0.00185115929251221,19.2346881550547
-0.00108327085302373,19.2360154401168
-0.000403420466292746,19.2374206828228
0.000188624667779675,19.23892066652
0.000692738721729612,19.2405347924864
0.00108911347188908,19.2421878944403
0.00139528419653257,19.2438984532312
0.00162628033620785,19.2456854949606
0.00179609929068525,19.2475739759973
0.00191806369782745,19.2495983103675
0.0020053363816909,19.2518094990265
0.00207179045226135,19.2542912354709
0.00213405812154115,19.2572054802056
0.00221855594062439,19.2609503838695
0.00232630398380471,19.2647796740646
0.00245694649251878,19.2685520622394
0.00260775423628456,19.2723179044629
0.00277499688523264,19.2761256737139
0.00295556577605104,19.2800134402073
0.00314769245772429,19.2840141440565
0.00335105686931897,19.2881585834378
0.00356665346305664,19.2924774135379
0.00379658561976161,19.2970025503079
0.00404390937586786,19.3017685425558
0.00431263233934132,19.3068140034206
0.00460797383382015,19.312182932433
0.00492842644796709,19.3177779002741
0.00525424033734183,19.3231959039905
0.00559405413283717,19.3285444050395
0.0059481670711875,19.3337809278563
0.00632101111302321,19.3389273716422
0.00671634263686034,19.3439906331658
0.00713846605955153,19.3489806644184
0.0075918126793799,19.3539034867525
0.00808114216447085,19.3587629275892
0.00861161347731629,19.363560528696
0.00918891337244753,19.3682960918239
0.00981936288182486,19.3729680118346
0.0105100349045132,19.3775737884805
0.0112847950760826,19.382200931067
0.0121589475396506,19.386849305518
0.0131535701420698,19.3915314244724
0.0142981964948888,19.3962751707859
0.0156402716595117,19.4011469952338
0.0172748738576607,19.4063196529176
0.0195044269097091,19.4124314140831
0.0212574277860899,19.4167414156272
0.0231095631895066,19.4210514171714
0.0246812849956674,19.4246908917723
0.0259951982783414,19.4278914206186
0.0270980211755859,19.4308949889795
0.0279768477945117,19.4338009232119
0.0285859598026825,19.4365738196912
0.0289262753230526,19.4393309168311
0.0289714417281875,19.4422183312375
0.0286255791056249,19.4455284581005
0.0278597522791871,19.4489237463557
0.0269892630785285,19.4516397446294
0.0259346246446236,19.454355742903
0.0248660016901593,19.4567970911215
0.0237963374068594,19.4590714630868
0.0227246339874968,19.4612543886855
0.0216532857924129,19.4633861790691
0.0205858872733374,19.4654914301273
0.0195261553418686,19.4675870794239
0.0184776167643591,19.4696858181876
0.0174435251627006,19.4717977810118
0.0164268465706081,19.4739314937763
0.0154302681287918,19.4760944528882
0.0144562090430896,19.4782935162166
0.013506835318673,19.4805351764554
0.0125840724990483,19.4828257717414
0.0116896130871078,19.4851716697807
0.010824933187969,19.4875794068656
0.00999129573198119,19.4900558525225
0.00918976802047977,19.4926083361221
0.00840038744629191,19.4953192229915
0.00762430949776219,19.498215180561
0.00686527460623634,19.5013186698425
0.00612724300197067,19.5046557791499
0.00541440652143554,19.5082567793442
0.00473114799146837,19.5121569362376
0.00408196682586035,19.5163975746579
0.00347135182705758,19.521027632402
0.002903557739398,19.5261064576023
0.00238229675698004,19.5317090243323
0.00191044055480682,19.5379349963629
0.00150025832400669,19.544728761797
0.00116031776669131,19.5520410370235
0.000951963287842728,19.5581333377988
0.000739325487975915,19.5663207295018
0.000568753222426151,19.5752748548736
0.000433295099294257,19.5852748548736
0.000340221444955097,19.5952748548736
0.000277343820998804,19.6052748548736
0.000235809475628044,19.6152748548736
0.000209234904533691,19.6252748548736
0.000193153052725839,19.6352748548736
0.000184522722336033,19.6452748548736
0.000181308378733839,19.6552748548736
0.000182162880315813,19.6652748548736
0.000186211128304262,19.6752748548736
0.000192910673741632,19.6852748548736
0.000201963629309677,19.6952748548736
0.00021326167718079,19.7052748548736
0.000226853772990348,19.7152748548736
0.000242931412002133,19.7252748548736
0.000261829472038484,19.7352748548736
0.000284042895413656,19.7452748548736
0.0003102618219813,19.7552748548736
0.000341431011940991,19.7652748548736
0.000378844424745555,19.7752748548736
0.000424294268867514,19.7852748548736
0.000479393826670575,19.7951254463284
0.000542512604637387,19.8042327639316
0.000614550398977334,19.8126315508675
0.000696705360605386,19.8203770974405
0.000790368589265708,19.8275214467789
0.000897123922649742,19.8341128184174
0.00101876557421419,19.8401959035628
0.00115732438939811,19.845812150333
0.00131509960414247,19.851000013707
0.00149469552516577,19.8557951825798
0.00169906410091703,19.8602307952023
0.00193155610997782,19.8643376460522
0.00219598283377748,19.8681443829276
0.0024966918027217,19.8716776997852
0.00283866294657802,19.8749625350353
0.00322763180806345,19.8780222811717
0.00367025324995336,19.880879011917
0.00417432454466888,19.8835537449438
0.00474910108730253,19.8860667672917
0.00540576308302412,19.8884380672145
0.00614264833679771,19.8906456316946
0.00695895582545784,19.8926897618348
0.00786738137462185,19.8946072402237
0.00888764557267915,19.8964365267406
0.0100532753619817,19.8982239563775
0.0114331129771606,19.9000435285638
0.0133133579699484,19.9021726221067
0.0148941718647782,19.9037574000905
0.016601175460242,19.9053421780744
0.0181882747467883,19.9067589282254
0.019580656891194,19.9080057567502
0.020825499055521,19.9091709316378
0.0219333095743486,19.9103059177688
0.0228931309922209,19.9114500013855
0.0236775388012109,19.9126468277984
0.0242341059546871,19.9139654562814
0.0244400064231593,19.9155761480094
0.0240514761446839,19.9174240332629
0.0230911149784974,19.9192719185164
0.021988281165967,19.9207743567518
0.0207607491024901,19.9221960057636
0.0194027639898438,19.9236349079807
0.0179225057556787,19.9251352383185
0.0163274353093129,19.9267339916287
0.0146568961271094,19.928476574353
0.0126623869705722,19.9307652610428
0.0104734813406103,19.9336328836941
0.00870754607951474,19.936327202908
0.00728727726889399,19.9388427526208
0.00606321145560147,19.9413565540816
0.00498809324304265,19.943927446913
0.00404069665007681,19.9465803286682
0.0032046110394118,19.9493384210945
0.00246676851618761,19.9522234819715
0.00187954716920729,19.9549364258063
0.00140201038185444,19.9575108159271
0.00100336250046,19.9599917410264
0.000662691235317162,19.9624175536879
0.000366326621803955,19.9648136810971
0.000104501549296545,19.9672002031666
-0.000132779142336649,19.9696232641291
-0.000361035569298857,19.9722262624864
-0.000571193840070259,19.974890853499
-0.000714876926616717,19.9768744434379
-0.000849462868572524,19.9788580333767
-0.000962712368742789,19.9806233483617
-0.00106434715129629,19.9822824684475
-0.00116227943089374,19.9839469267674
-0.00126290181700792,19.9857220055024
-0.00137557084049529,19.9877833677323
-0.00153031133705081,19.9907301748752
-0.00171763363443331,19.9944530258182
-0.00185255304994475,19.9972265129091
-0.00198418355803829,20
