ecg,time
0.000288082469136422,15.0061276563783
0.000317200648361673,15.0161276563783
0.000353849930889806,15.0261276563783
0.000399632472857061,15.0361276563783
0.000455259069848548,15.0458435463041
0.00051933930629383,15.0548070583104
0.000592651144072156,15.0630610394197
0.000676319914704272,15.0706635182068
0.000771698664680686,15.077668346495
0.000880351937242576,15.0841249756872
0.00100406576344166,15.0900789067722
0.00114486964327236,15.0955720817036
0.00130506624107779,15.100643202001
0.00148726591783397,15.1053280118447
0.00169442892260012,15.1096595614548
0.00192991528206471,15.1136684525206
0.00219754663965153,15.117383057056
0.00250168005684427,15.1208297261697
0.00284730373962494,15.1240330040075
0.00324015869084233,15.1270158465104
0.00368689868746751,15.1297998474035
0.00419530901341613,15.1324054967627
0.00477461338622564,15.1348524937611
0.0054359236901301,15.1371601477423
0.00617562798783614,15.1393022427459
0.00699371010110478,15.1412833736325
0.00790209955576115,15.1431383312405
0.00891891207263496,15.1449025955363
0.0100739496927122,15.1466171493511
0.0114249892025724,15.1483426630744
0.013197608981527,15.1502904145649
0.0149886295476132,15.1520164667351
0.0169560414747707,15.1537425189052
0.0186519423824932,15.1551597807511
0.0201167714009316,15.1563819753081
0.0214262986028123,15.1575186402168
0.0225961347051731,15.1586234021479
0.0236169660139271,15.1597351562231
0.0244625714760155,15.1608961007136
0.0250825200806348,15.1621716351713
0.0253614403505463,15.1637179326724
0.0250336665163775,15.1655571602956
0.0240901227345811,15.1673963879189
0.0229859894152223,15.168880662902
0.0217496560606756,15.1702819691027
0.0203742881113585,15.1717025613663
0.0188677031977417,15.1731877639446
0.0172370446893997,15.1747755519479
0.0166126838050822,15.1753876182364
0.016000824258001,15.175999684525
0.0136218892048404,15.1785643325584
0.0115382988576581,15.1811221355499
0.00982243627177174,15.1835330607601
0.00840215931739771,15.1858141291405
0.00721505608023159,15.1879879153738
0.00621049187929055,15.1900797317062
0.0053468201766926,15.1921208476213
0.00458774517377307,15.194156221345
0.00389590923303989,15.1962675440002
0.00320902145939133,15.1986828115462
0.00273298551264994,15.2006015494206
0.0023109114640599,15.202520287295
0.00198873608525202,15.2041573037916
0.00172467682178266,15.2056356463479
0.00148886147360166,15.2070808151791
0.00126514314082026,15.2085817265682
0.00103899805256251,15.2102528962583
0.000784389513963523,15.2123614207723
0.000397925686418577,15.2161710334291
8.21481668118234e-05,15.2200715539929
-0.00016702162476618,15.2239188973952
-0.00040444158431842,15.2285861666416
-0.000617488391668633,15.2342203526582
-0.000759892251141432,15.2396664334299
-0.000835790132704926,15.244582278846
-0.000853767951845444,15.2489937280396
-0.000816748042044698,15.2529436741632
-0.000724565397233175,15.2564831560829
-0.000575246131263191,15.2596665505891
-0.000364985692786522,15.2625555954645
-8.76953764877517e-05,15.2652129757319
0.000267849555075654,15.2677142519655
0.000723532012393294,15.2701560949527
0.00133057579626757,15.2727034994453
0.00215277628897822,15.27548458026
0.00295279387718202,15.2778054404571
0.0038300472500591,15.2801263006541
0.00475575772429664,15.2824352221848
0.00576402680203822,15.2848268537649
0.00684471521172237,15.287218485345
0.00782932075855127,15.2891963260283
0.00882837281790285,15.2909837290133
0.00990341798838403,15.2926692445057
0.0111037439821828,15.2942969533428
0.0124702820135462,15.2958845474302
0.0140126175920687,15.2974113147322
0.015774092507637,15.2988941074109
0.017775254696729,15.3003256541945
0.0200308225760482,15.3016982589861
0.0225781047940199,15.3030192353309
0.0254477442013298,15.3042895450685
0.0286750176732274,15.3055111754563
0.032297598536833,15.3066857321511
0.036367329018347,15.3078176868417
0.0409411297499873,15.3089103613822
0.0460857964025071,15.3099671505431
0.0518801111769426,15.3109915046806
0.0584175765979799,15.3119869464573
0.0658109838362151,15.3129572340014
0.0741963681046454,15.313906252374
0.0837403129593166,15.3148381850826
0.0946497677890196,15.3157576577186
0.107186353330129,15.3166699463218
0.121688342032939,15.3175813138537
0.138604854818663,15.3184994979351
0.15855503806194,15.319434638803
0.182146292606416,15.3203900516522
0.209454680798846,15.3213489515248
0.241183897930139,15.3223211645705
0.278283947327637,15.3233212643133
0.322231892287877,15.3243758388797
0.359526654004863,15.3251985949203
0.398587135096477,15.3260213509609
0.433143374170328,15.3267424456278
0.46324549473143,15.3273908486921
0.489611497727399,15.3280035369055
0.512334665553906,15.3286059228297
0.531037923675486,15.32922096033
0.544785281414341,15.3298773680464
0.551487214739232,15.33062608048
0.54755796748667,15.3314113721759
0.531584498161551,15.332226743639
0.501995109567308,15.3330897469194
0.456698178824601,15.3340132373709
0.395762745385944,15.3349715516933
0.34877266309523,15.3356005038932
0.297172537812264,15.3362294560932
0.251649452484402,15.3367540003693
0.212905350080249,15.3371913563846
0.17901972172111,15.3375757986626
0.148753933849234,15.3379276971806
0.121370304540145,15.33825946873
0.0963675045885032,15.3385800597629
0.0733397456679749,15.3388974413081
0.0518643100524913,15.3392210619465
0.0312709093396104,15.3395677363109
0.00925253045475155,15.3399981225613
-0.000342670010673885,15.3402140859094
-0.009010566870064,15.3404300492575
-0.0155815870485811,15.3406107086076
-0.0216323443435762,15.3407934908951
-0.0277149946521069,15.3409974076553
-0.0335818750789467,15.3412189946901
-0.0390749764532591,15.3414561586619
-0.0441065261677,15.3417081712871
-0.0486308928274343,15.3419752146528
-0.0526278973191747,15.3422581276837
-0.0560929817269726,15.3425582856713
-0.0591060434819239,15.3428880815035
-0.0614683319284115,15.343226595057
-0.0633229270184087,15.3435892139535
-0.0646858808827346,15.3439797285691
-0.0655712983993987,15.3444026358746
-0.0659910314621211,15.344863555146
-0.065952955055405,15.3453696205746
-0.0654587553143687,15.3459300919653
-0.0644980328837762,15.3465588528356
-0.063044405893382,15.347274067593
-0.0610438037451702,15.3481033972346
-0.0583826523263553,15.3490951367734
-0.0547643463180471,15.350361329978
-0.0506371202589157,15.3517657114264
-0.0466376726020042,15.3531250567353
-0.0428170355775829,15.3544441667493
-0.0392005500257061,15.355725247499
-0.0358014641853854,15.3569690618623
-0.0326259610007839,15.3581756462482
-0.0296753975420351,15.3593446916086
-0.0269475058872516,15.3604757442379
-0.0244371808361008,15.3615683094349
-0.0221370914094495,15.3626219005294
-0.0200382061240416,15.3636360553794
-0.018130263246251,15.3646103322255
-0.0164021940118938,15.3655442914629
-0.0148094019204467,15.3664570104842
-0.0132745599183671,15.3673929813969
-0.0118024750482542,15.3683535638549
-0.0103971191299463,15.3693407883346
-0.00906228221448572,15.3703570309839
-0.00780151770555442,15.3714051015668
-0.00661809057864471,15.3724883546793
-0.00551492316891316,15.3736108387806
-0.00449453849432875,15.3747775003478
-0.00355900063411441,15.3759944709353
-0.00270985101302453,15.3772694834543
-0.00194803826729098,15.3786124986519
-0.00127383717221152,15.3800366917819
-0.000686747649894822,15.3815600980159
-0.000192709027078839,15.3831810446381
0.00019744142652388,15.3848448187883
0.000500675562352989,15.3865697344219
0.00073185620397666,15.3883758774369
0.000904895005741313,15.390289832894
0.00103314654941844,15.39234876685
0.00112999068905988,15.3946087913489
0.0012098922160455,15.3971646077537
0.00129115481767055,15.4002089731634
0.001396490269108,15.4039423144028
0.00152676356323001,15.407846307245
0.0017010230607801,15.412281807697
0.00188799415540319,15.4165517925988
0.00208655625937442,15.4208415047392
0.0023055703159533,15.4254664802722
0.00254293956846488,15.4304527806106
0.00277713510802615,15.4353687173057
0.00300766745203349,15.4401914324707
0.00320665984090612,15.444310989943
0.0033952433087967,15.4481608957543
0.00358206173731199,15.4519046633832
0.00377192576589365,15.4556235697719
0.00396838757522138,15.4593699441265
0.00417457104305266,15.4631833896041
0.00439352330268657,15.4670969729906
0.00462845726728278,15.4711409353421
0.00488293578786144,15.4753448651269
0.00516104660769421,15.4797390687046
0.00546763639376817,15.4843557575918
0.00580869907457404,15.4892304188029
0.00619200770528059,15.4944030307293
0.00659693221388095,15.4995328055171
0.00702486370191167,15.5046017313601
0.00747837800186872,15.5095986541396
0.00796150517059319,15.5145216427455
0.00847948151445344,15.5193738369483
0.00903847618979737,15.5241595665961
0.0096453907350405,15.5288818242389
0.010307816962273,15.5335416485623
0.0110448808045349,15.5382034028716
0.0118750597279775,15.5428945933976
0.0128173716695558,15.547621918962
0.0138988447471654,15.5524099379143
0.0151609354063999,15.5573141854179
0.0166815049493311,15.5624744589007
0.0186746049793534,15.5683492223342
0.0205051181073263,15.5731518615972
0.0224678916689003,15.5779545008602
0.0240640422349482,15.5818026046296
0.0253792616554789,15.5851143461151
0.0264818210328478,15.5881932614021
0.027375632677323,15.5911931272822
0.0280003351038991,15.5940377969196
0.0283594080459819,15.5968466873052
0.028431578715011,15.5997619726498
0.0281372149657598,15.6030422177025
0.0271583971501308,15.6074512591464
0.0262723340494434,15.6101676920953
0.0252181242760641,15.6128841250442
0.0241504096439005,15.6153503672914
0.0230827378801795,15.6176599520656
0.0220148581551797,15.6198827723109
0.0209492656093368,15.6220573382391
0.0198894826939364,15.6242076031593
0.0188391328241638,15.6263502532615
0.0178016551119726,15.6284978949948
0.0167802283418421,15.630660652237
0.015777753532445,15.6328470782048
0.0147968596203803,15.6350647154052
0.0138399151905881,15.637320467182
0.0129090365217447,15.6396208725055
0.0120061011158484,15.6419723035009
0.0111327565558953,15.6443811341978
0.0102904274141014,15.6468538930622
0.00948032806956968,15.6493973886378
0.00870323966507115,15.6520196556638
0.00793740908145867,15.6548144343645
0.0071866295959641,15.6578009169986
0.00645459160781311,15.6610024543835
0.00574521258270584,15.6644459853075
0.00506259975960531,15.6681627412252
0.00441099716874669,15.6721890974244
0.00379468933847429,15.6765677796099
0.003217843216308,15.6813497994774
0.00268428615267971,15.6865977774049
0.0021972031025874,15.692392300426
0.00175898850881292,15.6988411616203
0.00138050158997067,15.7058970911571
0.00106485345471001,15.7135198626906
0.000808639417986629,15.7218294998043
0.00065510182775788,15.7289227501676
0.000511240573862395,15.7380713614609
0.000405786584213234,15.7477003151564
0.000331756984120039,15.7577003151564
0.00028410667229005,15.7677003151564
0.000255760585880143,15.7777003151564
0.000241637365275422,15.7877003151564
0.000238189963973897,15.7977003151564
0.000243099758925362,15.8077003151564
0.000255005255943209,15.8177003151564
0.000273285273831994,15.8277003151564
0.000297923210457044,15.8377003151564
0.000329459008841552,15.8477003151564
0.000369029037397094,15.8577003151564
0.000418505261698636,15.8677003151564
0.000477044689804741,15.8771539184684
0.000544282110335787,15.8858661994367
0.000621131551842649,15.8938891602296
0.00070880077922342,15.9012795319037
0.000808716956464341,15.9080896410633
0.000922520894435099,15.9143675659368
0.00105208217787655,15.9201575717878
0.00119952386284528,15.9255004771893
0.00136725440969871,15.9304339558103
0.00155800379749357,15.9349928135558
0.00177486940316508,15.9392092468649
0.0020213687465969,15.9431130802302
0.00230150597820751,15.9467319787697
0.00261985261128318,15.9500916588593
0.00298165104879694,15.9532161051375
0.00339294949136763,15.9561277905474
0.00386077958216117,15.9588479118597
0.00439340263726857,15.961396666014
0.0050006609070105,15.9637935895668
0.00569450004778439,15.9660580104909
0.00646160158540494,15.9681399004254
0.00731080384581838,15.9700731328397
0.00825607510872207,15.9718928790528
0.00931888215192769,15.9736358451861
0.0105363868574225,15.9753478439448
0.0120048296677675,15.9771256760506
0.0140757372288288,15.9792757022449
0.0156838481092705,15.9807588497562
0.0174064378219439,15.9822419972676
0.0190109960205526,15.9835797511288
0.0204308937474625,15.9847741207302
0.021704158605866,15.9858999416324
0.0228372455148966,15.9870039092126
0.0238165755116729,15.988124367362
0.0246112614347926,15.9893068041051
0.0251613638928582,15.9906284826728
0.0253133092675702,15.992304583863
0.0248547555731772,15.9940489478184
0.0238701782215243,15.9957933117738
0.0227456994141751,15.9972484569606
0.0214853762568415,15.9986491143294
0.0200871325712215,16.000078939201
0.0185595031719729,16.0015799398692
0.0169087956717047,16.0031906710708
0.0151650652980921,16.0049613850043
0.0136326604253643,16.0066485184692
0.0115680969601112,16.0091799224013
0.0098500013464225,16.0115887952212
0.00842691395751011,16.0138689342654
0.00723699299098615,16.0160423638017
0.00622961969229077,16.0181345345675
0.00536308789605347,16.020177008866
0.00460093275394147,16.0222154122881
0.00390530708618919,16.0243334047777
0.00321156696986419,16.0267690729429
0.00273952103516936,16.0286689402633
0.00232047816877567,16.0305688075838
0.00199823725676773,16.0322004990871
0.0017332752825562,16.0336784874157
0.001496302540849,16.0351255095877
0.00127121190176911,16.0366304404101
0.00104331281449477,16.0383093754004
0.000785767797390802,16.0404373378273
0.000398760252966024,16.0442456142482
8.54029229424817e-05,16.0481048202276
-0.000159960484481242,16.0518689412307
-0.000390560116879885,16.0563379562464
-0.000606300336640511,16.0619141103779
-0.000753701456057963,16.0673850382032
-0.000833798207697879,16.0723309830405
-0.000855506587998581,16.07676958319
-0.000822055750608448,16.0807443757963
-0.000733429648332252,16.0843063445759
-0.000587797354365325,16.0875083417617
-0.000381414852523848,16.0904132979362
-0.00010836807162722,16.0930831957883
0.000242097112040523,16.095592128862
0.000690808652680704,16.0980344042753
0.0012861941405562,16.1005690146107
0.00209524911778747,16.103340109406
0.00289305531764038,16.105676023518
0.00377062812294273,16.1080119376301
0.00468790247171018,16.1103103458461
0.00570426296412405,16.1127322104203
0.00679336714913203,16.1151540749946
0.00778984229438951,16.1171654640176
0.00878471653904216,16.1189537303935
0.00985848058774433,16.120645715825
0.0110540472020355,16.1222753452261
0.012414173424502,16.1238640029245
0.0139507832843256,16.125393496796
0.0157053732658311,16.126878670983
0.0176953593205159,16.1283102151916
0.0199420974416522,16.1296852105195
0.0224796157010489,16.1310085168891
0.0253382539781805,16.132281005611
0.02855207866901,16.1335042887337
0.0321601615087648,16.1346806095682
0.0362135289706911,16.1358142139885
0.0407687678933001,16.136908416247
0.045892302121534,16.1379666118568
0.0516621694347467,16.1389922014432
0.0581717962749669,16.1399887948828
0.0655331030130062,16.1409601130221
0.0738812447560649,16.1419100352546
0.0833816788120236,16.1428427375006
0.094239794666364,16.1437628273114
0.106715353654999,16.144675574978
0.12114381703305,16.1455872127147
0.137970337855942,16.1465054380864
0.157808004547468,16.1474403241784
0.181283862353048,16.1483961288998
0.208456894746883,16.1493552114889
0.240025482695376,16.1503273252902
0.276930372661321,16.151326874138
0.320625362535541,16.1523799197767
0.358036312127989,16.1532080409806
0.397268570950629,16.1540361621844
0.431964983472243,16.1547608193861
0.462169713043087,16.1554112259289
0.488627395766956,16.156024995168
0.511446604005342,16.1566277476945
0.530263735230128,16.157242391249
0.544164350651763,16.1578972906315
0.551115550348193,16.1586421081492
0.547541338948891,16.1594270538208
0.531967549924976,16.1602413913441
0.502842624897403,16.1611027660418
0.458091667501906,16.1620241752844
0.397482905192117,16.1629841835096
0.350337380490165,16.1636182621097
0.298468765061003,16.1642523407098
0.252726555076923,16.1647802336066
0.213839549848493,16.1652195043227
0.179853755915968,16.1656051093241
0.149510840972109,16.1659577514326
0.122064465468567,16.1662899893902
0.0970096038506791,16.1666108249072
0.0739396559299546,16.1669282258182
0.0524346846004465,16.1672515501275
0.0318386197681253,16.167597225201
0.00996567936176352,16.1680227227405
2.35618359200874e-05,16.1682453760256
-0.00893189354958307,16.1684680293107
-0.0155241483398838,16.1686491936686
-0.0215726155515001,16.1688318351959
-0.0276550511670634,16.1690356396824
-0.0335234143864855,16.1692571422179
-0.0390189929944011,16.1694942351979
-0.0440535891599636,16.1697461810436
-0.048581317607198,16.1700131556317
-0.0525818436971213,16.1702959932544
-0.0560505122477419,16.1705960652549
-0.0590713331098216,16.1709262737071
-0.0614363075774786,16.1712647132302
-0.0632935096917467,16.17162723415
-0.0646590374093295,16.1720176283447
-0.0655470002892483,16.1724403867933
-0.0659692651609052,16.1729011206177
-0.0659337351440844,16.1734069526293
-0.0654421430536043,16.1739671260374
-0.0644841868006419,16.1745954894465
-0.0630336172866197,16.1753101680175
-0.061036628208089,16.1761387342636
-0.0583802875147665,16.1771292664987
-0.0547704462799754,16.1783929701829
-0.0506432821687693,16.179797609445
-0.0466435428238607,16.1811571373592
-0.0428224341475372,16.1824763975111
-0.039205387091542,16.1837576112476
-0.0358056945370619,16.1850015496004
-0.0326295649104699,16.1862082534097
-0.029678371730265,16.1873774160528
-0.0269498586173266,16.1885085851501
-0.0244389288406992,16.1896012667195
-0.0221382576864835,16.1906549744822
-0.0200388181869279,16.1916692465249
-0.0181303516632709,16.1926436412566
-0.0164017911604365,16.1935777192482
-0.0148088476854522,16.1944903737552
-0.0132738393712213,16.1954262769779
-0.0118015767763887,16.1963867861665
-0.0103960322042054,16.1973739309187
-0.00906099634708473,16.1983900862706
-0.00780002339037193,16.1994380605923
-0.00661637924070335,16.2005212067119
-0.00551298732216559,16.2016435708163
-0.00449237190906762,16.202810096412
-0.0035565985150006,16.204026911088
-0.00270721019275575,16.2053017423249
-0.00194515742584916,16.2066445431912
-0.00127071709930289,16.2080684776361
-0.000683391588504804,16.209591563293
-0.000189044593708469,16.2112124124716
0.000201361897842611,16.2128760372941
0.000504808213532526,16.2146007529714
0.000736160474382153,16.2164066305292
0.000909332729475002,16.2183202319745
0.00103768068209746,16.2203786841184
0.00113458334335754,16.2226380252585
0.00121450055576016,16.2251927948057
0.00129571804863834,16.2282352795345
0.00140101814756872,16.2319686737655
0.00153120557856429,16.2358715756865
0.00170479564901195,16.2402919117667
0.00189150618363853,16.2445571096906
0.00209044102238898,16.2488546192476
0.00231094124203431,16.2535095413014
0.00254797146655884,16.2584858353633
0.00278243803941308,16.263404258131
0.00301058471328526,16.2681728140315
0.00320886761358348,16.2722746933187
0.00339724969747242,16.276117688193
0.00358408716731985,16.2798590823041
0.00377410834483319,16.2835782743011
0.00397083704296921,16.2873268365683
0.00417738748136181,16.2911439961873
0.00439680659409688,16.2950626279644
0.00463231491645566,16.299112917086
0.00488748770195961,16.3033244581286
0.00516643116141737,16.3077276176438
0.00547402007177686,16.3123547207463
0.0058162941400913,16.3172414328398
0.00620110079492247,16.3224279513258
0.00660614971445702,16.3275522994594
0.00703467921691487,16.3326210977907
0.00748870474345563,16.3376157913235
0.00797249995176583,16.3425370689869
0.00849127912247327,16.3473875858792
0.00905124973114609,16.3521718423748
0.00965932324232839,16.3568927271608
0.010323105488744,16.3615512212584
0.0110621399591169,16.3662138936504
0.0118946277888463,16.370905774407
0.0128397774596818,16.3756342025901
0.0139248261367118,16.3804241127536
0.0151917177378157,16.3853321526045
0.0167196941784219,16.3905013419773
0.0187294992611203,16.3964058289138
0.0205465036644346,16.4011615088385
0.0224916729313294,16.4059171887631
0.0240818434775774,16.4097516180484
0.0253940780025038,16.4130588084797
0.0264941010704176,16.4161359596757
0.027384540819929,16.4191330927218
0.028006050936103,16.4219765781652
0.0283618630595564,16.4247858231318
0.0284302805494798,16.4277035362619
0.0281304266778882,16.4309912227097
0.0271465243770535,16.4353964341673
0.0262593794799176,16.4381081391906
0.025205214557941,16.4408198442138
0.0241375685538938,16.443283491188
0.0230698958672312,16.4455917185852
0.0220020268806992,16.4478137863621
0.0209364829677623,16.4499879493332
0.019876791369591,16.4521380440879
0.0188265743207832,16.4542806944947
0.0177892680745328,16.4564284703153
0.0167680480472298,16.4585914728152
0.0157658120348794,16.4607782405707
0.0147851856680316,16.4629963072567
0.0138285344863608,16.4652525708887
0.0128979718202832,16.4675535680262
0.0119953721609645,16.4699056711702
0.0111223806089889,16.4723152556658
0.0102804189537413,16.4747888542579
0.00947069916585662,16.4773332809097
0.00869372760611615,16.4799575341606
0.00792805795856338,16.482754517703
0.00717748244937334,16.4857434697687
0.00644569432772973,16.4889477811013
0.00573661343378997,16.4923944386901
0.00505434904470273,16.4961147305949
0.00440314631050461,16.5001451007451
0.00378728931678431,16.5045283615812
0.00321094219292834,16.5093156417783
0.00267792637945687,16.5145697316033
0.00219141746641211,16.5203714840522
0.00175380002858027,16.5268290855857
0.00137610744100745,16.5338913332623
0.00106116993987766,16.5415216780437
0.000805838607300552,16.5498405793048
0.00065108693108462,16.5570345852534
0.000508829924078925,16.5661508004501
0.000403785607583736,16.5758105340579
0.00033036441613126,16.5858105340579
0.000283143993983955,16.5958105340579
0.000255098277998514,16.6058105340579
0.000241180561872188,16.6158105340579
0.000237870585134475,16.6258105340579
0.000242869824763512,16.6358105340579
0.000254830927828417,16.6458105340579
0.000273142094728665,16.6558105340579
0.000297792633454056,16.6658105340579
0.000329325923383636,16.6758105340579
0.000368879887724373,16.6858105340579
0.000418326388663034,16.6958105340579
0.000476822157470324,16.705263940265
0.00054400488447473,16.713976203414
0.000620788458786323,16.7219992986663
0.000708379794784572,16.7293899206376
0.000808204773463263,16.7362003652579
0.000921902572748811,16.7424786852539
0.00105134081778273,16.7482691245855
0.00119864026978864,16.7536124839289
0.00136620672827814,16.7585464217999
0.00155676709303589,16.7631057311585
0.0017734151702375,16.7673225972545
0.00201966431469996,16.7712268347506
0.00229951377923258,16.7748460998921
0.00261752924984405,16.7782061007274
0.00297894609792724,16.7813308136766
0.00338980388738062,16.7842427030535
0.00385712341657956,16.7869629558882
0.00438915201519083,16.7895117572899
0.00499571328724392,16.7919086284077
0.00568872698551321,16.7941728757639
0.00645512431836345,16.7962550781814
0.00730349069941472,16.7981883317498
0.00824771520535245,16.8000077495786
0.00930912234769587,16.8017499276005
0.0105245448791651,16.8034603921061
0.011988543234165,16.8052343016135
0.0140456801294406,16.807372206496
0.0156533384152625,16.8088560243565
0.017376886048357,16.8103398422171
0.0189880723953833,16.8116816281779
0.0204130362692756,16.8128777247319
0.0216907574208776,16.8140039108761
0.0228283550465965,16.8151073144952
0.0238126519953609,16.8162262770411
0.0246132329197877,16.8174059020206
0.0251711754740506,16.8187221096659
0.0253374427656875,16.8203828902568
0.024892070352843,16.8221352817357
0.0239120546625189,16.8238876732146
0.0227899325241551,16.8253449384503
0.0215320105635525,16.8267451235342
0.0201358455181101,16.8281735105348
0.0186099328393138,16.8296723999273
0.0169606775379372,16.831280268664
0.0152169456022294,16.8330470055731
0.0137641731008802,16.834638302948
0.0116792238144502,16.837174844617
0.0099424960539777,16.8395907315836
0.00850445142726574,16.8418769770309
0.00730261165703595,16.8440554774248
0.00628578002544914,16.8461515392795
0.0054118219305039,16.848196390734
0.00464403921298388,16.8502348375674
0.00394476477332214,16.8523480479745
0.00325174049712449,16.8547610507247
0.00276810444388796,16.856691950457
0.00233963512535366,16.8586228501893
0.00201388815138,16.8602646109142
0.00174724240339196,16.8617457866707
0.00150925918403323,16.8631931889917
0.00128360085322938,16.864695952942
0.00105563716896713,16.8663684688448
0.000799276564045155,16.8684766087443
0.000411098771874807,16.8722760771739
9.48306851628317e-05,16.8761528250974
-0.000152721708033394,16.8799387258272
-0.000384956908127194,16.8844342515239
-0.000600421908903002,16.8900064085652
-0.000747568458464964,16.895479430976
-0.000827239881160841,16.900425856319
-0.000848470623824662,16.9048653050733
-0.000814523004422686,16.9088410198254
-0.000725410715851117,16.9124037949476
-0.00057930696861872,16.9156068673352
-0.000372493458036372,16.9185127102617
-9.90728129601629e-05,16.9211833127429
0.000251755280049983,16.9236931652895
0.000700905500617495,16.9261368050254
0.00129678077935275,16.9286727781898
0.00210619513541396,16.9314445260615
0.00290538157930545,16.933783822867
0.00378461723509351,16.9361231196725
0.00470388466478654,16.9384250714517
0.00572464077016346,16.9408549292641
0.00681906966647226,16.9432847870764
0.00780953223272507,16.9452801480913
0.00880737434389778,16.9470704439762
0.00988040514581829,16.9487579298515
0.0110782677536461,16.9503875120021
0.012439869870457,16.951974695954
0.01397888720397,16.9535034792113
0.0157362281100446,16.9549879099351
0.0177290805977832,16.9564185261122
0.019979155588543,16.9577926767345
0.0225204731545066,16.9591151700397
0.025383452787254,16.9603868901586
0.0286021834586686,16.9616094325918
0.0322159793001573,16.9627850977129
0.0362759164703558,16.9639181019838
0.0408387169591196,16.9650117588827
0.0459709704903831,16.9660694640799
0.0517509089353284,16.9670946174322
0.0582722273235629,16.9680908329841
0.0656471607793601,16.969061832962
0.0740112784254155,16.97001150099
0.0835305830201627,16.9709440194298
0.0944111969457022,16.9718640051773
0.106913902893084,16.9727767427886
0.121375619576765,16.9736884853104
0.138243687278762,16.9746069630562
0.158134694837736,16.9755423040527
0.181662695728567,16.9764981659147
0.208897526503058,16.9774574480249
0.240540583223385,16.9784299601292
0.277537957143925,16.9794302214414
0.321356772187583,16.9804846168488
0.358690919237901,16.9813101979391
0.397814547508994,16.9821357790295
0.432422295556229,16.9828588630612
0.4625608387047,16.9835085226747
0.48895886134089,16.9841220148948
0.511716182790807,16.9847248450502
0.530461890167131,16.9853399387401
0.544270391288941,16.9859958257591
0.551080791065371,16.9867427512464
0.547315253815869,16.9875280767265
0.531530051958766,16.9883431011909
0.502164215822661,16.9892054018137
0.457136617014657,16.9901278805011
0.396339668150179,16.9910873958458
0.349311907562827,16.9917183931735
0.297628800470824,16.9923493905012
0.252035051206236,16.9928753025596
0.213245268171554,16.9933134682247
0.179328041321751,16.9936984220991
0.149038108806362,16.9940506628665
0.121634944553996,16.9943826627416
0.0966161110706982,16.9947033894899
0.0735757880627923,16.9950208114202
0.0520927285411683,16.9953443368313
0.0315031941982912,16.9956906097539
0.00955509079855083,16.9961188660962
-0.000186345060383445,16.9963377070805
-0.00897560879523634,16.9965565480647
-0.0155559634768884,16.9967374738206
-0.0216048211169217,16.9969202118355
-0.0276866365833797,16.9971241026097
-0.0335535513939292,16.9973456800991
-0.0390472141348945,16.9975828431953
-0.0440796477466656,16.9978348587117
-0.0486050992737387,16.9981019055678
-0.0526033145857667,16.9983848204129
-0.0560696877938205,16.9986849766638
-0.0590930016625022,16.999015896205
-0.0614548022523907,16.99935449159
-0.0633088704337585,16.9997171811379
-0.0646713607129489,17.0001077686989
-0.0655563730942585,17.0005307512407
-0.0659757546334907,17.0009917476667
-0.0659373772393616,17.0014978914242
-0.0654429270252908,17.0020584409202
-0.0644820076875313,17.0026872782929
-0.0630282527885578,17.0034025624179
-0.061027629042872,17.0042319435686
-0.0583666617467355,17.005223688315
-0.0547491314988671,17.0064897229595
-0.0506225568049952,17.0078940219754
-0.0466238234475646,17.0092532688587
-0.0428039464697545,17.0105722670798
-0.0391882514148243,17.0118532256935
-0.0357899736462592,17.0130969096543
-0.0326152842453463,17.0143033569041
-0.02966552934294,17.0154722595894
-0.0269384312037434,17.0166031649645
-0.024428876173346,17.0176955791048
-0.0221295263366016,17.0187490159539
-0.0200313448547162,17.0197630138276
-0.0181240662016113,17.0207371312637
-0.0163966192990711,17.0216709287852
-0.0148039750095178,17.022583742516
-0.0132693007088573,17.0235198123209
-0.0117973985814495,17.024480501278
-0.01039223974416,17.0254678411542
-0.00905761327834423,17.02648420971
-0.00779707137250954,17.027532418716
-0.00661387752561966,17.0286158252989
-0.00551095231669432,17.0297384811582
-0.0044908167054872,17.0309053369972
-0.00355553237869766,17.0321225300013
-0.00270663798688871,17.0333978007848
-0.0019450789364604,17.0347411209786
-0.00127112619305111,17.0361656818518
-0.000684275069710395,17.0376895434161
-0.000190571108671446,17.039310632193
0.000199320351746256,17.0409746215797
0.000502360695695271,17.0426998240679
0.000733409653308238,17.0445063467529
0.000906377515282269,17.0464208075086
0.0010346200769693,17.048480428205
0.00113152261264178,17.0507414257451
0.00121156409208477,17.0532987318365
0.0012930883425914,17.0563457732277
0.00139872458164506,17.06007905365
0.00152939514520433,17.0639846059478
0.00170314429939759,17.0683989329781
0.00189008528169605,17.0726623166553
0.0020894509184257,17.0769633961883
0.00231083289671617,17.0816316316864
0.00254792517002991,17.0866039312824
0.00278268564018459,17.0915236532567
0.0030099929788386,17.0962697871961
0.00320809511234107,17.1003641643815
0.00339649818377108,17.1042042020992
0.00358344361408819,17.1079445854591
0.00377362702335765,17.1116639151754
0.00397056127155556,17.1154134391153
0.00417735710286577,17.1192322213184
0.00439706187547738,17.1231530540692
0.00463289972222123,17.1272060975526
0.00488845146017692,17.1314209480024
0.00516783139628936,17.1358279966978
0.0054759265314544,17.1404596163252
0.00581879640012443,17.1453515470428
0.00620432064184826,17.1505440778241
0.00660948573525246,17.1556660793803
0.00703832990559624,17.1607348082319
0.00749262826136156,17.1657285349683
0.00797675971186146,17.1706490705731
0.00849592967595125,17.1754988621658
0.00905636244064637,17.1802824810971
0.00966497417512625,17.1850027711226
0.0103293771123613,17.1896606881012
0.011069297422637,17.1943237592622
0.0119028163595962,17.1990159407814
0.0128492257218706,17.2037448501638
0.0139358547159522,17.2085355882029
0.0152048621922759,17.2134452928068
0.0167361018733138,17.2186184106445
0.018753323739661,17.2245361319868
0.0205645791153234,17.2292717339444
0.0225022423660035,17.234007335902
0.0240897776697424,17.2378357354001
0.0254006662346233,17.2411408743745
0.0264995392562038,17.2442172277082
0.0273884397191777,17.2472131191137
0.0280084866270416,17.2500560683205
0.0283628048536348,17.252865480011
0.0284295025988891,17.2557843109886
0.0281271268247527,17.2590754302821
0.0271408978602356,17.2634789066168
0.0262532589798665,17.2661884550022
0.0251991139749374,17.2688980033877
0.0241315000207205,17.2713604629594
0.0230638284646345,17.2736680669116
0.0219959663846644,17.2758897873558
0.0209304470210193,17.2780637625789
0.0198707997732469,17.2802137757363
0.0188206463220045,17.282356422075
0.0177834216112897,17.2845042544193
0.0167622995167991,17.2866673635135
0.0157601763624627,17.2888542810284
0.0147796762753707,17.2910725363391
0.0138231633985843,17.2933290247452
0.0128927497217969,17.2956302813379
0.0119903083674235,17.2979826783438
0.0111174832932091,17.3003925912057
0.0102756950224924,17.3028665539599
0.00946615440958401,17.3054113822877
0.00868923557392951,17.3080365381606
0.00792363862137469,17.3108345231334
0.00717315517353175,17.313824596506
0.00644147973507959,17.3170301669495
0.00573253317293161,17.3204782430341
0.00505042561927119,17.3242001380659
0.0043994026362962,17.3282323264575
0.00378374797685625,17.3326176589974
0.00320762430451537,17.3374073159446
0.0026748501122602,17.342664162431
0.00218859639195662,17.3484691683682
0.00175124277710836,17.3549306916749
0.00137389728136642,17.3619958096468
0.00105926608621356,17.3696295992998
0.00080425649015544,17.3779527199446
0.000649249734199315,17.3851743651296
0.0005074423193748,17.394284977866
0.000402535270184011,17.4039548104057
0.000329291886817731,17.4139548104057
0.000282169271814695,17.4239548104057
0.000254159016291272,17.4339548104057
0.00024022584957207,17.4439548104057
0.000236856624383288,17.4539548104057
0.000241755938028185,17.4639548104057
0.000253575606489216,17.4739548104057
0.000271698935364683,17.4839548104057
0.000296105759889647,17.4939548104057
0.000327324176460487,17.5039548104057
0.0003664686545233,17.5139548104057
0.00041537524238737,17.5239548104057
0.000473421459361024,17.5334426764557
0.000540104528758448,17.5421881567752
0.000616320713076153,17.5502419826616
0.000703265472034084,17.5576609742781
0.000802353457544626,17.5644975908136
0.000915211698085478,17.5708000349154
0.00104369419303252,17.5766126877501
0.00118990624631462,17.5819764767927
0.0013562360658301,17.5869291780471
0.00154539050495143,17.5915056927817
0.00176044033257238,17.5957383054459
0.00200487227585051,17.5996569214788
0.00228265465376487,17.6032892796292
0.00259831662237316,17.6066611613952
0.00295705002035714,17.6097966066622
0.00336484156691612,17.6127181323662
0.00382864658595416,17.6154469650278
0.00435662932263068,17.6180033124071
0.00495850450185944,17.6204066958167
0.00564604352078979,17.6226763890815
0.00640781798230731,17.6247668357517
0.00725087437539366,17.6267063314171
0.0081887131966887,17.6285298528358
0.00924199292363785,17.6302736577211
0.0104460390859257,17.6319821752661
0.0118867247710078,17.6337422792831
0.013879792540629,17.6358324757935
0.0156054782379974,17.6374327417261
0.0174677993586855,17.6390330076587
0.0190831297651078,17.6403748202473
0.0205022823018916,17.6415653464396
0.0217744963243994,17.6426884330026
0.022906217986606,17.6437907846551
0.0238834426719475,17.6449107233567
0.0246747149764349,17.646094141773
0.0252188335828939,17.6474198364197
0.0253564973622096,17.6491117154965
0.0248836089491696,17.6508445993634
0.0238930946008507,17.6525774832303
0.0227646197879589,17.6540282023174
0.0214996593748423,17.6554277886182
0.0200965140928511,17.6568579949253
0.0185637377011388,17.6583605013744
0.0169074732313566,17.6599740231563
0.0151586071288113,17.6617494039437
0.0135307401777993,17.6635468175911
0.0114816908825508,17.6660743150605
0.00977852811796662,17.6684770296348
0.00836742594786483,17.6707519462115
0.00718700470000297,17.6729212723035
0.00618708400337471,17.6750106712138
0.00532625950325091,17.6770521694971
0.00456816283884282,17.6790924928928
0.00387452945788338,17.6812186160895
0.00317723902026747,17.683686532084
0.00271746073755022,17.6855521439711
0.00230846072273272,17.6874177558583
0.0019899634399467,17.68903807779
0.0017266598261806,17.6905131702587
0.00149056291789913,17.691961099224
0.00126582286217943,17.6934705801837
0.00103763030415037,17.6951603379676
0.000778019074300214,17.697319377951
0.000393157416936429,17.7011366926587
8.48301817504204e-05,17.7049633585247
-0.000155947187907767,17.7086794500225
-0.00038170060311251,17.7130696445959
-0.0005965177862278,17.7186347334712
-0.000743407942863351,17.7241119323305
-0.000822776586940179,17.7290620376045
-0.000843704154637731,17.7335047411625
-0.000809475427472651,17.7374834232076
-0.000720116089409654,17.7410488478396
-0.000573842197150645,17.7442535469931
-0.000366926462110695,17.7471607727945
-9.34609235301862e-05,17.7498325995976
0.000257140579843386,17.752342057733
0.000705369126346765,17.7547824931174
0.00129898649754865,17.7573115317683
0.00210658084719891,17.760079793841
0.00290657372815924,17.762422258047
0.00378730769014351,17.7647647222531
0.00470620673917997,17.7670641380923
0.0057172045690076,17.7694701064528
0.00680003148686934,17.7718760748133
0.00781023631082527,17.7739141167456
0.00880366148884867,17.7756981413571
0.0098819775487954,17.777395875442
0.011077579371026,17.7790239412669
0.012438967745387,17.7806125462564
0.0139762499781309,17.7821411807225
0.0157314776512966,17.7836253650277
0.0177221345030635,17.7850558584708
0.0199702688428325,17.7864301576419
0.0225095902435429,17.7877528174094
0.0253704896762472,17.7890247017965
0.0285869617076158,17.7902473725374
0.032198350254851,17.7914231534318
0.0362557040985404,17.7925562617271
0.0408156990546542,17.7936500081971
0.0459448678860923,17.794707786539
0.0517213579691599,17.7957329925084
0.0582387892518511,17.7967292412828
0.065609282597253,17.7977002528017
0.073968257779554,17.7986499077958
0.0834815162656586,17.7995823846373
0.094354899357759,17.8005022944185
0.106848789843046,17.801414913597
0.121299506228173,17.8023264828268
0.138153444879362,17.8032447129781
0.158025605362795,17.8041796994634
0.181536707906575,17.8051353972626
0.208751219439672,17.8060944406983
0.24036919379666,17.8070666069962
0.277334291582711,17.8080663544623
0.321107606721921,17.8091199112892
0.358480066972503,17.8099463442017
0.397656161276543,17.8107727771141
0.432307615065124,17.8114963347964
0.462479496257254,17.812146132952
0.488907858904632,17.8127595812651
0.511696443161229,17.8133622341441
0.53047744489453,17.81397701255
0.544329774644995,17.8146323886651
0.551203239002313,17.815378409598
0.54751862519111,17.8161634724632
0.531820852335723,17.8169781374084
0.502552188387855,17.8178400199015
0.45763268330432,17.8187620721353
0.396920894810054,17.8197215853523
0.349825702120999,17.820354044613
0.298043191344978,17.8209865038737
0.252371043051479,17.8215133421216
0.213529705816271,17.8219520121269
0.179575917422032,17.8223372538169
0.149257646446185,17.8226896645162
0.121831324470049,17.8230217580377
0.0967931158933101,17.8233425185485
0.0737367002433615,17.8236599146305
0.0522413049450901,17.8239833320786
0.0316465197440011,17.8243293170612
0.009729969928212,17.8247563045508
-0.00010110753446334,17.8249768119419
-0.00896476491449388,17.825197319333
-0.0155510855283343,17.8253783338914
-0.0216000063671637,17.8255609987298
-0.0276825382268555,17.825764822104
-0.0335506611492436,17.8259863378467
-0.0390457988135006,17.8262234411771
-0.0440798361313903,17.8264753963695
-0.0486069370876729,17.8267423805278
-0.0526067971526492,17.8270252288503
-0.0560747799419377,17.8273253134449
-0.0590932875228681,17.8276553344413
-0.0614579025714608,17.8279937751908
-0.0633147575175308,17.8283563019707
-0.0646799313465872,17.828746704881
-0.0655675327360993,17.829169475728
-0.0659894260222725,17.8296302268015
-0.0659535095474113,17.8301360825667
-0.0654615080787253,17.8306962886785
-0.0645031033949491,17.8313246987167
-0.063052023220762,17.8320394438622
-0.061054415913358,17.8328681100081
-0.0583972417845283,17.8338588084387
-0.0547859532163797,17.8351228726812
-0.050658486380708,17.8365274852274
-0.0466584882507102,17.8378869986156
-0.042837143247429,17.8392062501955
-0.0392198722505449,17.8404874588635
-0.0358199641238077,17.8417313942958
-0.0326436257695282,17.842938096552
-0.0296922302533217,17.8441072585432
-0.0269635212010156,17.8452384276013
-0.0244524020756921,17.8463311095602
-0.0221515484126733,17.8473848180197
-0.0200519334874085,17.8483990909849
-0.018143298833307,17.8493734868089
-0.0164145776686756,17.8503075660244
-0.0148214825243497,17.8512202191179
-0.0132863190765889,17.8521561209101
-0.0118138978484987,17.8531166286098
-0.0104081909733505,17.8541037717957
-0.00907298894030956,17.8551199254817
-0.00781184568804439,17.8561678980117
-0.00662802682036783,17.8572510421825
-0.0055244553859752,17.8583734041416
-0.00450365518890253,17.8595399273457
-0.00356769114668847,17.8607567393182
-0.00271810554561264,17.8620315674508
-0.00195584786511623,17.8633743646876
-0.00128119364318217,17.8647982947954
-0.000693643389043031,17.8663213751266
-0.000199060747363231,17.8679422222906
0.00019158186792253,17.8696058443005
0.000495266884623112,17.8713305563578
0.000726862440731695,17.873136429235
0.000900285128100431,17.8750500245527
0.00102889405868617,17.8771084684712
0.00112607323001581,17.8793677980721
0.00120629072773394,17.8819225501068
0.00128784888887854,17.8849650036526
0.00139354406169072,17.8886983977107
0.00152411689117807,17.8926012808057
0.00169817439596349,17.8970230855603
0.00188527313094527,17.9012887724733
0.00208451346112726,17.9055855735467
0.00230521312706014,17.9102376724282
0.00254260688601507,17.9152149026926
0.00277734453964026,17.9201330869217
0.00300596767788392,17.9249065791855
0.003204516815442,17.9290100915453
0.00339308753868452,17.932853722119
0.00358007233038794,17.9365953248607
0.00377021151832067,17.9403144720277
0.00396703370289847,17.9440628057873
0.00417365492842583,17.9478795873233
0.0043931222057645,17.9517977078015
0.00462865471576487,17.9558473556485
0.00488382521780146,17.9600581222919
0.00516273608101958,17.9644603653591
0.00547025635975712,17.9690863950445
0.00581241706415478,17.9739718545066
0.00619705234971449,17.9791569136471
0.00660208257243856,17.984282300232
0.00703050467451648,17.9893514185849
0.00748440737592885,17.9943466816211
0.00796803287152263,17.9992684497126
0.00848659769624994,18.0041194506331
0.00904630272154217,18.0089041691063
0.00965405558113608,18.0136255108076
0.0103174569614186,18.0182844652835
0.0110559134844371,18.0229468701491
0.0118877167060077,18.0276385599006
0.0128320130830075,18.0323666631494
0.0139159727306035,18.037155993109
0.0151813840164378,18.0420628422265
0.0167070482513215,18.0472292009353
0.0187115594445708,18.0531241733158
0.0205328360920566,18.0578946116217
0.0224835646347957,18.0626650499275
0.0240756685460307,18.0665038415107
0.025388887508437,18.0698124983984
0.0264897505911275,18.0728902173282
0.0273812901484007,18.0758882361259
0.0280038332734208,18.0787321038617
0.028360704331986,18.0815412298092
0.0284303444137086,18.0844581468037
0.028132284791962,18.0877433943414
0.0271500442219447,18.0921498484685
0.0262632553937961,18.0948630915906
0.0252090801966087,18.0975763347127
0.0241414158606151,18.1000408260426
0.0230737472933388,18.1023494944672
0.0220058785344312,18.1045718057685
0.0209403224351331,18.106746097886
0.0198806046773671,18.1088962453944
0.0188303478764282,18.1110388924136
0.0177929892132067,18.1131866205813
0.0167717051945667,18.1153495384349
0.0157693946626106,18.1175361891913
0.0147886843157057,18.119754109253
0.013831940681019,18.1220101981725
0.0129012780411257,18.1243109930568
0.0119985718543287,18.1266628660021
0.0111254680227628,18.1290721915532
0.0102833892233054,18.1315455006303
0.00947354819831509,18.1340896048674
0.00869653709942158,18.1367132009203
0.00793081295884066,18.1395094542539
0.00718016820818756,18.14249758786
0.00644829506206235,18.1457009789042
0.00573911245999719,18.1491465978806
0.0050567288631819,18.1528657132741
0.00440538887075581,18.1568947449972
0.00378937647812925,18.1612764747669
0.00321285643218593,18.1660619893449
0.00267965169587485,18.171314017622
0.00219294035517449,18.1771133158798
0.00175510938491461,18.1835679249863
0.0013771266995379,18.1906280742452
0.00106192142851874,18.198255909533
0.000806198927578474,18.2065717469291
0.000652135941857688,18.2137133079962
0.000509030959073186,18.2228497441679
0.000403755703343302,18.2324959603122
0.000329989479833377,18.2424959603122
0.000282475997646807,18.2524959603122
0.000254166811870319,18.2624959603122
0.000239997380987788,18.2724959603122
0.00023643081310641,18.2824959603122
0.000241152300161439,18.2924959603122
0.000252797652903176,18.3024959603122
0.000270736095594434,18.3124959603122
0.000294933483862261,18.3224959603122
0.000325901984711198,18.3324959603122
0.000364735684188102,18.3424959603122
0.000413242239510773,18.3524959603122
0.000470971244319952,18.3620113823532
0.000537307682917698,18.3707832788199
0.000613133815080403,18.3788614153197
0.000699636618344503,18.386302743026
0.000798222885131402,18.393159877105
0.00091051139685286,18.3994811611036
0.00103834703726676,18.4053111033574
0.00118382484860887,18.410690747289
0.00134932140901736,18.4156579751361
0.00153753037719152,18.4202477852461
0.00175150738647371,18.4244925504315
0.00199472172488205,18.4284222566506
0.00227112150231273,18.4320647158211
0.00258521206724469,18.4354457749998
0.00294215698559328,18.4385895316512
0.00334790876115677,18.4415185520892
0.00380938049570032,18.4442541028327
0.00433468311080182,18.4468164201923
0.00493346181528677,18.4492250394527
0.00561739388215484,18.4514992278726
0.00637612939163668,18.4535959916524
0.00721572231626755,18.4555404665399
0.0081494381664307,18.4573675750323
0.00919754179258277,18.4591134124475
0.0103944814416235,18.4608218137834
0.011820891242522,18.4625746467692
0.0137773480190234,18.4646393535531
0.0154343683649679,18.466186870999
0.0172240005906071,18.467734388445
0.0188662891391579,18.46910074121
0.0203092589626594,18.4703059746879
0.0216021187832904,18.4714353122123
0.0227550820057957,18.4725381028492
0.023756578536261,18.4736528000175
0.0245780147663119,18.4748231371211
0.0251642774276765,18.4761201696538
0.025382310966714,18.4777269493746
0.0249868122019945,18.4795162558169
0.0240212376409809,18.4813055622591
0.0229067504334365,18.4827730802582
0.0216577200341853,18.4841727976763
0.0202697814609307,18.4855970275908
0.0187511702374432,18.4870892887925
0.0171086186371805,18.4886878153291
0.0157279361866061,18.4900661764578
0.0144296640422189,18.4914445375865
0.0122290072784912,18.4940227590277
0.0103934197772944,18.4964816970076
0.0088773489783634,18.4988045155415
0.00761455744323811,18.5010124193689
0.00655062078779668,18.5031296181749
0.00564111636401193,18.5051849340733
0.00484831354425742,18.5072175491946
0.0041361411682281,18.5092926383931
0.00345615687802748,18.5115625041094
0.00288000026049842,18.5137767943662
0.00248867353146345,18.5154781660509
0.00213689659205934,18.5171795377356
0.00185134725277833,18.5187070885812
0.00160428254809087,18.5201567601585
0.00137598999688844,18.5216223453168
0.00115228248450329,18.5231987283621
0.000915077680203973,18.5250536560818
0.000607101354641053,18.5278185312448
0.000298763218768208,18.5311303628825
7.25101243151092e-05,18.5340462026663
-0.000118870473911096,18.5369642490801
-0.000307513715390692,18.540413683393
-0.00051658257803027,18.5452533816187
-0.000693967809095219,18.5509011615546
-0.000799266219019341,18.5560749067755
-0.000843078785072148,18.560717749586
-0.00083091971598429,18.5648783842043
-0.000763910655529346,18.5686037704793
-0.000640890215965756,18.5719468031389
-0.000458963215153959,18.5749665427772
-0.000213236629876219,18.5777250087503
0.000104512532257892,18.5802895196342
0.000509856479204092,18.5827436745474
0.00103558513428516,18.5852085534173
0.00176078271805853,18.5879072533144
0.00272403141425243,18.5908562155483
0.00366215200369547,18.5933861126842
0.00456440257419848,18.595659557533
0.00577685990204437,18.5985507910881
0.00666827593029207,18.600539123635
0.00763757691199109,18.6025274561819
0.00861000525556998,18.6043145799136
0.00966961681286715,18.6060274409061
0.0108390615758229,18.6076656786053
0.0121617742711656,18.6092559713899
0.0136658071789015,18.6107983150713
0.0153791768660782,18.6122924079366
0.017319662585452,18.6137303891493
0.0195198852036797,18.6151171186468
0.0220056983409018,18.6164514501823
0.0248003415892786,18.6177313881382
0.0279442157520391,18.618962279443
0.0314776234269128,18.6201468300068
0.0354473536029488,18.6212880611766
0.0399077467432675,18.6223891124044
0.0449227064760637,18.6234532966477
0.0505693285782088,18.6244843288821
0.0569379938844543,18.6254857520252
0.0641367587457661,18.6264612196727
0.0722959725109968,18.6274145536165
0.0815749030502741,18.6283498615421
0.0921710267927762,18.6292716813723
0.104332876217875,18.6301851364092
0.118379985985937,18.6310962420665
0.134733963978239,18.6320123635739
0.153970866038269,18.6329430251085
0.176850357765526,18.633898853235
0.203319548130682,18.6348564643569
0.234044807801503,18.6358250489488
0.26991181434559,18.6368178743999
0.312241628907806,18.6378578448957
0.350868479298973,18.6387242141725
0.391705759957757,18.6395905834492
0.427293793883513,18.6403325434018
0.458111742923269,18.6409909429492
0.485110747346725,18.6416080516374
0.508486638560917,18.6422107587481
0.527943232734684,18.6428218873652
0.542665171516338,18.6434683825163
0.550860116170244,18.6441949065636
0.549023300934505,18.6449769103855
0.535368796139523,18.6457853807618
0.508433805249692,18.6466385230735
0.466208575686736,18.6475501616182
0.407432102492782,18.6485136520379
0.359264025046577,18.6491763758545
0.305730507584278,18.649839099671
0.258662346052471,18.6503852264883
0.218917592978763,18.6508345919036
0.184333871993586,18.6512261236197
0.153532054402292,18.651582432871
0.125712697547398,18.6519168811565
0.100347268494491,18.6522387898275
0.0770216511116063,18.652556144593
0.0553257659447137,18.6528779116771
0.0346629414247166,18.6532188352852
0.013314859618911,18.6536239626057
0.0010740687075115,18.6538921425824
-0.00642498430774979,18.6540745569574
-0.0132840039885458,18.6542569713325
-0.0192562312988969,18.6544309276758
-0.0253572979502832,18.6546269643054
-0.0313321191780173,18.6548419963325
-0.0369846718528654,18.6550732322166
-0.0422037716092456,18.6553194741777
-0.0469298095510111,18.655580587972
-0.0511341107071969,18.6558571757032
-0.0548068835267045,18.6561504111271
-0.0579453293831694,18.6564619732685
-0.0606211973278008,18.6568047504186
-0.0626706164363289,18.6571577807502
-0.0642216430183589,18.6575370579753
-0.0652898725925632,18.6579468730051
-0.0658882211120999,18.6583923745902
-0.0660263259764472,18.6588800536856
-0.0657085748502658,18.6594182559725
-0.0649299926859438,18.6600188680261
-0.0636711062985023,18.6606980987867
-0.0618907185859083,18.661479178789
-0.0595046477616917,18.662400191961
-0.0563173297644431,18.6635379805384
-0.0521588361647044,18.6649635283394
-0.0481037436693371,18.666338761059
-0.0442130575003219,18.6676723293059
-0.0405190376610018,18.6689672814844
-0.0370385436391733,18.6702248028812
-0.0337800089896296,18.6714451385831
-0.0307463941023119,18.6726280755664
-0.0279366612316572,18.6737731969662
-0.0253466737588317,18.6748800149012
-0.022969856915742,18.6759480362165
-0.0207977490907944,18.6769767891541
-0.0188204906317617,18.6779658258179
-0.0170272641408913,18.6789147085836
-0.0154066883123756,18.6798229849355
-0.0138493482612429,18.68075017454
-0.0123531804098032,18.6817013252787
-0.0109222704672208,18.6826783222292
-0.00956048359489254,18.6836834024758
-0.00827146746321813,18.6847192021271
-0.00705860094100145,18.6857888567787
-0.00592494076151239,18.6868961347695
-0.00487316578280405,18.6880456181421
-0.00390551853514209,18.689242954491
-0.00302374319763435,18.6904952177575
-0.00222901819862934,18.69181144327
-0.00152187989938875,18.6932034552307
-0.000902130435168935,18.6946872152085
-0.000368715435961421,18.6962851722576
5.8039569649935e-05,18.6979307830261
0.000391955318810645,18.6996309094817
0.000648428108799677,18.7014041828228
0.000841686837561891,18.703274437026
0.000985240224919563,18.7052742349507
0.00109237550736629,18.7074512162771
0.00117697830913219,18.7098820831011
0.00125537201620023,18.7127104538946
0.00135292758669251,18.7162976714009
0.00147175052337932,18.7200869990946
0.00162928557436251,18.7243131700285
0.00181174355718646,18.7286172743263
0.00200572655266906,18.732871129586
0.00221574475537884,18.7373256135287
0.00245775769857054,18.7424084631352
0.00269247066800125,18.7473276615349
0.00293189432653994,18.7523398858173
0.00313766481070622,18.7566101055807
0.00332848249556388,18.7605216894914
0.00351537079636456,18.7642885363197
0.00370392640867816,18.7680088389444
0.00389797957670399,18.7717416214099
0.00410074219760159,18.7755296367547
0.00431525785775933,18.779407605963
0.00454466019272605,18.7834063497447
0.00479237832021403,18.7875555101425
0.00506230400290598,18.7918850261515
0.00535899952084669,18.7964263615547
0.00568802268766118,18.8012137826627
0.0060564713803195,18.8062857277309
0.0064568591415002,18.8114704517537
0.00687586702092212,18.8165499397256
0.00732064291451035,18.8215752829331
0.00779312637102374,18.8265221079476
0.00829868023267068,18.8313979703148
0.00884304982725569,18.8362057189404
0.00943293998313839,18.8409493171238
0.0100756938849815,18.8456303484666
0.0107842880337747,18.8502793524242
0.0115813110933583,18.8549618582067
0.0124830229249543,18.859674871261
0.0135136701904178,18.864438318746
0.014708415345679,18.8692935442411
0.0161283105261956,18.8743412278289
0.0179156066051249,18.8798716772353
0.0203357909768291,18.8863876272001
0.0218966932271191,18.8902406422638
0.0234983838740154,18.8940936573274
0.0248984591277376,18.8975379724913
0.0260796604214542,18.9006823124939
0.0270568756592798,18.9037017268157
0.0277855339375348,18.9065915237662
0.0282498445051004,18.9093993662004
0.0284397971005358,18.9122523250495
0.0283066103196592,18.9153400649326
0.027655943368913,18.9192110124812
0.0268230542427653,18.9222079957235
0.0257558951927211,18.9252049789658
0.0246809712280106,18.9278098769558
0.023612797475594,18.9301873156486
0.022544797729063,18.9324471911963
0.0214776535056644,18.9346421532187
0.0204145264634523,18.9368021145566
0.0193590472965996,18.9389468170483
0.0183147627887833,18.9410906302944
0.0172849858522759,18.9432447663403
0.0162727545643996,18.9454184748491
0.015280832429665,18.9476197436837
0.0143117155384887,18.9498557560962
0.0133676433599627,18.9521332053171
0.0124506123157899,18.9544585198597
0.0115623817701717,18.956838056583
0.0107044847415348,18.9592782532209
0.00987824138493597,18.9617857552965
0.00908475972106892,18.9643675746302
0.00831297445259002,18.9670748907568
0.00755433892353478,18.9699641130521
0.00681259486136858,18.9730564578951
0.00609155175622058,18.9763770105015
0.00539522598469813,18.9799547988933
0.00472780330687143,18.9838235342613
0.00409356391822981,18.9880226200726
0.0034967579019316,18.9925986540748
0.0029414096797292,18.9976079879434
0.00243105330658277,19.003121364305
0.00196848138489413,19.009231757663
0.00155670282713491,19.0160465025509
0.00121113306245351,19.0233803738814
0.000925034386903175,19.0313372903673
0.000702364518103634,19.0400569796765
0.000567168616858534,19.0476892545889
0.000443480087264992,19.0573870793099
0.000357551114606418,19.0672670923619
0.000300095835559933,19.0772670923619
0.000264419865691932,19.0872670923619
0.000244798413777453,19.0972670923619
0.000237127454167312,19.1072670923619
0.000238613634711747,19.1172670923619
0.000247516161905025,19.1272670923619
0.000262913894796163,19.1372670923619
0.000284534400529076,19.1472670923619
0.00031266597423602,19.1572670923619
0.000348156046489905,19.1672670923619
0.000392500606285578,19.1772670923619
0.000446979260992086,19.1870912159502
0.000509824120422141,19.1961583965724
0.000581757389512255,19.2045077004471
0.000663869729216555,19.2121976985843
0.000757483986347075,19.219282877313
0.000864134328847974,19.2258132579292
0.000985573772195975,19.2318348530159
0.00112379503745904,19.2373900683295
0.00128105926013426,19.2425180298396
0.00145993004714437,19.2472548693341
0.00166331408779073,19.2516339901311
0.0018945102186557,19.2556863151598
0.00215726911411658,19.259440509229
0.00245586498630288,19.2629231873919
0.00279518806733354,19.2661591276629
0.00318086141643131,19.269171489362
0.00361939477897347,19.2719820362938
0.00411839305191475,19.274611388972
0.0046868475112976,19.2770793278497
0.00533556025176282,19.2794051772475
0.00606466016563747,19.2815727426798
0.00687078653330521,19.2835743630716
0.00776514768918344,19.2854447563811
0.00876474115647228,19.28721913049
0.00989703255085126,19.288937071258
0.0112136756650763,19.2906546052601
0.0129007710133697,19.2925488757759
0.0148106097177742,19.2944172362467
0.0164255506531678,19.2958527748364
0.0181288217323211,19.2972883134261
0.0196516463417713,19.2985526260844
0.0210100828951778,19.2997098712342
0.0222276513069329,19.3008203976032
0.0233012410542835,19.3019252003519
0.0242104176774637,19.3030636989166
0.0249147762560207,19.3042900759097
0.0253307350726059,19.3057137102103
0.0251565407644079,19.3077874138581
0.0244905702244447,19.3093213365619
0.023465945068404,19.3108552592657
0.0222923096702072,19.3122643158443
0.0209747085075058,19.3136690425972
0.0195215138503169,19.3151224595714
0.0179416665542216,19.3166623874517
0.0169043554672352,19.3176741219695
0.0158903668023048,19.3186858564873
0.0147633901632083,19.3198673956093
0.0125076115645694,19.3224628461751
0.0106225942989518,19.3249421010065
0.00906715576021746,19.327282390957
0.00777334565373638,19.3295046041076
0.00668515830105779,19.3316325571674
0.00575698827729561,19.3336941956201
0.00495043636719344,19.3357266766655
0.00422968666631953,19.3377897504781
0.00354995563568072,19.3400146518168
0.00281133178270178,19.3428465407278
0.00243780054432893,19.3444968276617
0.00210092097160482,19.3461471145957
0.00182131055373613,19.3476588285471
0.00157712842349919,19.3491058896816
0.00135004839719425,19.3505782923736
0.00112596461498662,19.3521742420737
0.000885469379032244,19.3540787050768
0.000556002776063567,19.357099814396
0.000257477670515634,19.3603978632376
3.77134066736881e-05,19.3633077219101
-0.00015262676507356,19.3662932845779
-0.000343392627754949,19.3699036725885
-0.000561910388168599,19.3752360002467
-0.000723774621103901,19.3808022345279
-0.000815947790838524,19.3858615985868
-0.000848361125425833,19.3904022198736
-0.000825286989198197,19.3944702616121
-0.000747270577207461,19.3981126197985
-0.000612768285660702,19.4013845092749
-0.000418546060696858,19.4043451982355
-0.000159232859740484,19.4070572691686
0.000174860653599066,19.409593427016
0.000602062075207272,19.4120424188235
0.00116424624260603,19.4145493694022
0.00193039618391288,19.4172784765494
0.00273102983086558,19.4196860642636
0.00362285841874282,19.4220936519777
0.00452001636534674,19.4243598892381
0.00569608760876171,19.4271737636199
0.00657264370419916,19.4291424614388
0.00752234835288293,19.4311111592577
0.00850570961803806,19.4329420010704
0.00955120537547693,19.4346557417907
0.0107030870387103,19.4362948068931
0.0120123675575653,19.4378951491224
0.0134931386978549,19.4394394686066
0.0151837140138746,19.4409393020436
0.017097331684161,19.4423821215714
0.0192668213791749,19.4437733043638
0.0217193641925123,19.445112591709
0.0244838299893567,19.4464003512247
0.0275881958531047,19.4476362318232
0.0310770950918216,19.4488254126138
0.034996825107129,19.4499709783182
0.0394013182684975,19.4510761645083
0.0443537529290184,19.4521443027251
0.0499282121412965,19.4531787420702
0.0562141099830742,19.4541831834415
0.0633174161243268,19.4551612692771
0.0713659008758055,19.4561168105123
0.0805153613611782,19.4570538775756
0.0909583411389423,19.4579769278268
0.102937182338905,19.458891023751
0.116762518383845,19.4598020667658
0.132842976515193,19.4607172492173
0.151734402102034,19.4616458060797
0.174230608528207,19.4626004974998
0.200284758469876,19.4635575418274
0.230514652698989,19.4645244221966
0.265776342556193,19.4655138193633
0.307323314971194,19.4665470619359
0.346728988661675,19.4674385321254
0.388592745281793,19.4683300023149
0.424694157381615,19.4690825709906
0.455842379375652,19.4697457918204
0.483125105622557,19.4703650623671
0.506788768496054,19.470968085637
0.526572718591481,19.4715777042462
0.541710811709167,19.4722202043372
0.550524110360881,19.4729379269809
0.549579148767508,19.4737186906062
0.536907348625273,19.474524356774
0.511092758673846,19.4753733883746
0.470163267155929,19.4762800136604
0.412398607078743,19.4772446389277
0.363727058330956,19.4779226149796
0.309338544586413,19.4786005910314
0.261593526230894,19.479156294546
0.221417553643816,19.4796108982272
0.186537819356822,19.4800054809363
0.155510861223234,19.4803636795324
0.127509343328767,19.4806992822733
0.10199245605364,19.4810217830527
0.0785418468687116,19.4813391907057
0.0567512055497515,19.4816603089796
0.0360484251488189,19.4819991800267
0.0148875868178496,19.4823962658088
0.000832225640029628,19.4827023610142
-0.00663299360863651,19.4828844401324
-0.0134613764829748,19.4830665192507
-0.0194112085327589,19.4832402752506
-0.0255115953701529,19.4834368379328
-0.0314799801456541,19.4836523220119
-0.0371222999319552,19.4838839616762
-0.0423290683205089,19.4841305923449
-0.0470416997991544,19.484392102271
-0.0512321400271932,19.4846691100768
-0.0548909797202587,19.4849628032943
-0.0580153322436194,19.4852748739115
-0.0606669713906092,19.4856167643318
-0.0627051518621239,19.4859703221655
-0.0642453918169994,19.4863502259688
-0.0653031464050062,19.4867607693109
-0.0658912770140001,19.4872071262586
-0.0660193288043187,19.4876958222573
-0.0656915472018189,19.4882352515635
-0.0649026759898324,19.4888374068013
-0.0636328797144963,19.4895185958367
-0.0618403177510744,19.4903022707376
-0.0594394129581857,19.4912270003778
-0.0562303040423035,19.4923711256858
-0.0520733354647936,19.4937954366148
-0.0480210952352879,19.4951698061733
-0.0441341200506234,19.4965025959892
-0.040444252587013,19.4977968052997
-0.0369681414586239,19.4990535945931
-0.0337140920491043,19.5002731966481
-0.0306849748263118,19.5014553927196
-0.0278796834994167,19.5025997636839
-0.0252940274714052,19.5037058211712
-0.0229213896483918,19.5047730723463
-0.0207532762414918,19.5058010459996
-0.0187798045540866,19.5067892946385
-0.016990142373894,19.5077373806397
-0.0153729008764168,19.5086448508877
-0.0138167191783078,19.5095724928287
-0.0123218074972231,19.51052411927
-0.0108922302444178,19.5115016315557
-0.00953184907863207,19.5125072735406
-0.00824430708353406,19.5135436898644
-0.00703297756028658,19.5146140268555
-0.00590091065030968,19.5157220665424
-0.00485077755473228,19.5168724087186
-0.00388481203142718,19.5180707244558
-0.00300474830129077,19.5193241195034
-0.00221175353481854,19.5206416735852
-0.00150635133995813,19.5220352752113
-0.000888329235980033,19.5235209836434
-0.000356615648021519,19.5251214059911
6.80817332248684e-05,19.5267678833764
0.00040026878524739,19.5284692540195
0.000655299650490034,19.5302441775738
0.000847384823737156,19.5321166223242
0.000990022394299435,19.5341193711687
0.00109650054145683,19.5363004607618
0.0011807273497385,19.5387374095768
0.00125910585661305,19.5415759320471
0.00135735656725504,19.5451859113644
0.00147666207521757,19.5489793277245
0.00163514492293291,19.5532191301304
0.00181778718078213,19.5575203682416
0.00201194590098714,19.5617754558571
0.00222236503655611,19.566238576031
0.00246395429507149,19.5713141615388
0.0026985145677654,19.5762321624109
0.00293809716425463,19.5812491570314
0.00314330855615668,19.5855080436851
0.00333390134850922,19.5894147939594
0.00352073109463183,19.5931797583751
0.00370933111244561,19.5968997854009
0.00390350885940743,19.6006333737725
0.00410646858937342,19.6044230354418
0.00432125342478871,19.6083033688225
0.00455100173031752,19.6123051450949
0.00479915138465856,19.6164579982578
0.00506960718131257,19.6207918895263
0.00536695024426245,19.6253383308963
0.00569676707094803,19.6301316693016
0.00606619988013923,19.6352104483486
0.00646688328068298,19.6403913869308
0.00688648788138461,19.6454701737878
0.00733184565983161,19.6504935184864
0.00780504320799412,19.6554386649069
0.00831143408128423,19.660312851556
0.00885679371141552,19.6651190426411
0.00944784074280999,19.6698611356107
0.0100919355625882,19.6745406755619
0.0108024708634628,19.6791905678383
0.0116017519550885,19.6838736481253
0.0125062242442483,19.688587598007
0.0135403094846388,19.6933526125512
0.0147395582478079,19.6982109010676
0.0161660074526938,19.7032654293743
0.0179656609995637,19.7088152896125
0.0203862324996319,19.7153144404247
0.0219431797167473,19.7191523383117
0.0235387259490751,19.7229902361986
0.0249323580099375,19.7264232752295
0.0261081184853678,19.7295623244395
0.0270798728325337,19.7325803473593
0.0278014384654792,19.7354664894646
0.0282586718727708,19.7382737750603
0.0284408909155048,19.7411300226001
0.0282976801712516,19.7442282769803
0.0276251786708575,19.7481418295135
0.0267885113086506,19.7511153144763
0.0257231225968051,19.7540887994392
0.0246490148173006,19.7566831798977
0.0235809300033034,19.7590558377914
0.0225129264357814,19.7613131665633
0.021445851446098,19.7635067150499
0.0203828998138457,19.7656659674401
0.0193277045801554,19.7678104543622
0.0182838067798349,19.7699544261262
0.0172545114239744,19.7721090219796
0.0162428483066707,19.774283445295
0.0152515727434829,19.776485654308
0.0142831730920709,19.7787228133985
0.0133398813068364,19.7810016051159
0.0124236865856373,19.7833284534424
0.0115363414960759,19.7857097153612
0.0106793723784415,19.7881518335234
0.00985409305724022,19.7906614622598
0.00906160547120718,19.793245626383
0.00829015889242133,19.7959581134656
0.00753197587208423,19.7988530821293
0.00679079504541308,19.8019518736753
0.00607043269329257,19.8052796811856
0.00537491093773206,19.8088656614915
0.00470841965299412,19.8127436803673
0.00407524033251372,19.8169533316504
0.00347961960113923,19.8215414613319
0.0029255716463501,19.8265647697827
0.00241661123482897,19.8320945389553
0.00195550704063736,19.8382245650066
0.00154578291475624,19.8450531495281
0.00120206092006048,19.852403585146
0.000917614249708508,19.8603806818716
0.000696600220532672,19.8691366757039
0.0005656064711873,19.8766026413891
0.000441352313415239,19.8864057474322
0.000356412431097386,19.8962614395309
0.000299488921630184,19.9062614395309
0.000264211685612776,19.9162614395309
0.000244899991130957,19.9262614395309
0.000237481474194666,19.9362614395309
0.000239187522274707,19.9462614395309
0.000248297523629784,19.9562614395309
0.000263907712643245,19.9662614395309
0.000285762116721862,19.976261439531
0.000314166746100982,19.986261439531
0.000338111266633181,19.9931307197655
0.00036589380508753,20
