ecg,time
0.0120762873583407,15.0035473441389
0.0130592173025363,15.0082460582919
0.0141894760837338,15.0130090263601
0.0155132718613014,15.0179010994095
0.0171220732999339,15.0230895887313
0.0192988286490719,15.0291787096942
0.0210574652099352,15.0335883068368
0.0229191687862132,15.0379979039794
0.0244879827890163,15.0416910654394
0.0257958405583058,15.0449274470162
0.0268926052848276,15.0479597427701
0.0277689246180492,15.0508997253478
0.0283756069718958,15.0537022377892
0.0287138437298691,15.0564857387683
0.0287578867127609,15.059397072183
0.0284137366432639,15.062726256581
0.0273926523951658,15.0670362658031
0.026496423545996,15.0696781337558
0.0254409049294317,15.0723200017085
0.0243708694114443,15.0747340311396
0.0232988937308857,15.0770053370461
0.0222257000459645,15.0791969281837
0.0211541765864979,15.0813443536817
0.0200880032741496,15.0834701281017
0.0190309172450284,15.0855901302349
0.0179863879311284,15.0877164637531
0.0169576034677683,15.0898589277061
0.0159474716370874,15.0920258560684
0.0149586260102,15.0942246482636
0.0139934382444744,15.0964621241502
0.0130540314714899,15.0987447780673
0.0121422876721035,15.1010789871852
0.0112598613592467,15.1034711690846
0.0104081871034839,15.1059279345119
0.00958848920322283,15.1084562273744
0.00880038734378427,15.1110682976803
0.00802338294914805,15.11385297791
0.00726129611546184,15.1168296349937
0.00651787732781576,15.1200217209184
0.00579711087640716,15.1234563177616
0.00510318463122494,15.1271648148154
0.00444043401164932,15.1311837646646
0.00381324911263833,15.1355560355829
0.00322591349098611,15.1403326707331
0.00268235583545546,15.1455762692006
0.002185847924839,15.1513671213148
0.00173880589283978,15.1578127470049
0.00135453181414306,15.164818500747
0.00103306218512795,15.1723832954639
0.000779051776376574,15.1806259148689
0.000616762207661062,15.1879981300512
0.000462929714474731,15.1974505354819
0.000351127175379662,15.2071298612185
0.000270230843687143,15.2171298612185
0.000214661398668356,15.2271298612185
0.000177082973030871,15.2371298612185
0.000152125154372207,15.2471298612185
0.000135957396323802,15.2571298612185
0.000125930415351243,15.2671298612185
0.00012024652946537,15.2771298612185
0.000117693074857427,15.2871298612185
0.000117452103996333,15.2971298612185
0.000118974396768411,15.3071298612185
0.000121897880148197,15.3171298612185
0.000125993978147857,15.3271298612185
0.000131131476432777,15.3371298612185
0.00013725205568135,15.3471298612185
0.000144354179617892,15.3571298612185
0.000152483271386265,15.3671298612185
0.000161726801778972,15.3771298612185
0.000172213421063745,15.3871298612185
0.000184115723188537,15.3971298612185
0.00019765667713369,15.4071298612185
0.000213120232707935,15.4171298612185
0.000230867173160796,15.4271298612185
0.000251358051848474,15.4371298612185
0.000275186185883526,15.4471298612185
0.000303125472052814,15.4571298612185
0.000336200743847505,15.4671298612185
0.000375793435455673,15.4771298612185
0.000423804252696045,15.4871298612185
0.000480653832906375,15.4967801126121
0.00054541077788007,15.5056999023527
0.000618994130153662,15.5139301193381
0.000702576473320001,15.5215241854986
0.000797511599068752,15.5285322348456
0.000905339412839121,15.5350007953533
0.00102780517103742,15.5409730550355
0.00116688520657153,15.5464891147935
0.00132481807811029,15.5515862054013
0.00150413921062436,15.5562988938444
0.00170772250320887,15.5606592866794
0.00193882859878721,15.5646972276674
0.00220116435193999,15.5684404792771
0.0024989531257179,15.5719148998302
0.00283702534283945,15.5751446296941
0.00322093272625967,15.5781522855861
0.00365709754783,15.5809591629251
0.00415301480955153,15.583585468254
0.00471753320093515,15.5860506008387
0.00536126223412456,15.5883735110611
0.00608695693474803,15.590545269895
0.006888738597183,15.592548814239
0.00777729489932312,15.594418420646
0.00876881728301564,15.5961887363372
0.00988908758613406,15.5978979342845
0.0111854261592898,15.5995981865452
0.0128204793752361,15.6014449635001
0.015316383240457,15.6038534165547
0.016897819074002,15.605224047595
0.0185532940957467,15.6065946786353
0.0200602295649649,15.6078311382016
0.0214095887102566,15.6089733026396
0.0226180860385206,15.6100752475293
0.0236799325199017,15.611176639896
0.024572352573329,15.6123176599206
0.025251027257232,15.61355627786
0.0256209706971945,15.6150173098877
0.0252990295163421,15.617239981467
0.0245571319077267,15.6187265439003
0.0234935906619817,15.6202131063336
0.0222828919567467,15.6216089578632
0.0209280344952936,15.6230148019371
0.0194381742474844,15.6244776300603
0.01782163652723,15.6260346456543
0.0167159331854742,15.6271062635752
0.0156548289216635,15.6281778814961
0.0132288136801806,15.630858466118
0.0110215423127898,15.6336697968057
0.00923279100461854,15.6363202797194
0.00777700043253798,15.6388254571709
0.0065794672123441,15.6412110248368
0.00558098767539445,15.6435059702374
0.00473410700176656,15.6457463357391
0.00399859363051681,15.6479847434358
0.00333403546872949,15.6503199288021
0.00267118426292082,15.6530512137279
0.00225107419708928,15.655062397599
0.00188072775395986,15.65707358147
0.0015941445452178,15.6588238549172
0.00135790467594568,15.6604246415675
0.00114693311618644,15.6620010430744
0.000946893568973307,15.6636504777174
0.000744244393077495,15.665508568989
0.000512238234876402,15.6679261360011
0.000185366569753777,15.6720529668866
-5.08370752740144e-05,15.6758198327292
-0.000222833229997752,15.6792167527022
-0.000376160112039733,15.6829914018947
-0.000530036325929809,15.6880865817248
-0.000632035247750343,15.6934501120972
-0.000667674932514464,15.698211800327
-0.000645102165966478,15.7025204270765
-0.000565066949064833,15.7064040663428
-0.000426089673017509,15.7099053382288
-0.000224910927271364,15.7130768916195
4.30922190333529e-05,15.7159688636805
0.000384387660131257,15.7186323568853
0.000809136200585411,15.721123925235
0.00133359930418288,15.7235048046807
0.00198766803498912,15.7258552594855
0.00283027897381334,15.7282928935048
0.00400123588355932,15.7310449622544
0.00553286901401785,15.7340061334402
0.00696320264129661,15.7363625741484
0.00860800596872987,15.7387190148566
0.0101764218251381,15.7406737840794
0.011759305658417,15.7423986173551
0.0134581430649337,15.7440140346899
0.0152744644727428,15.7455149424644
0.0172904823433074,15.7469578591216
0.0195189704430766,15.7483344917848
0.0220121156205243,15.7496609508202
0.0248033660015028,15.7509379479182
0.0279292366748218,15.7521668375374
0.0314375783902903,15.7533519033329
0.0353754485425437,15.7544949746351
0.0397971472805953,15.7555984524004
0.0447707677674085,15.7566661502027
0.0503724553082941,15.7577011468604
0.0566922659838067,15.7587067311256
0.0638361523900732,15.7596861954095
0.0719349770675881,15.7606434899067
0.0811479109392814,15.7615827678332
0.0916715979539206,15.7625085614745
0.103754003227496,15.7634260449529
0.117714569753681,15.7643413315168
0.133975243030504,15.7652619104982
0.153116511279158,15.7661976248806
0.175854908406124,15.767157462716
0.202170253969822,15.7681195833487
0.232731833760444,15.7690934348383
0.268432058528084,15.770092673053
0.310608300273031,15.7711409048066
0.348916943317261,15.7720107471427
0.389383957042368,15.7728805894789
0.424712708466886,15.7736273174455
0.455329182663024,15.7742907354242
0.482143015250669,15.7749126220984
0.505336352725808,15.7755197620338
0.524608437823372,15.7761348952139
0.539145051363293,15.7767847007045
0.547172621255562,15.7775128224746
0.545244536872327,15.7782982009252
0.531549466763032,15.7791092152251
0.504640011876176,15.7799637720926
0.462543512137059,15.7808753531824
0.403384975106965,15.7818470056085
0.355841382910217,15.7825025921387
0.303089827976773,15.7831581786689
0.256600720495768,15.783700295078
0.217234661679724,15.784147874956
0.182920098065098,15.7845386724213
0.152327097273552,15.7848947648606
0.124678664945587,15.7852292991671
0.0994575574806934,15.7855515085393
0.0762557712287582,15.7858693547133
0.054665877681603,15.7861918434988
0.0340881562661896,15.7865339213873
0.0127625185304072,15.7869420075358
0.000927884003503377,15.7872032297911
-0.00655107302700173,15.7873862157276
-0.0133909946371657,15.7875692016642
-0.0193458502950721,15.7877437003433
-0.025434680052684,15.787940561043
-0.0313937259272387,15.7881564130812
-0.0370285742573566,15.7883884741657
-0.0422292498627929,15.7886355611299
-0.0469368881764493,15.788897551711
-0.0511232640262428,15.7891750585455
-0.0547788481110066,15.789469265361
-0.0578985853641659,15.7897818614531
-0.0604856784464158,15.7901153821613
-0.0625329690105064,15.7904687558907
-0.0640831773595765,15.7908484874858
-0.0651510441778226,15.7912587420782
-0.0657494451020718,15.7917046545612
-0.06588801191134,15.7921926970254
-0.0655711689512721,15.7927311858547
-0.0647940541099683,15.7933319569581
-0.0635374235783137,15.7940111409137
-0.0617605695013684,15.7947918083213
-0.0593804612055964,15.795711677464
-0.0562051432588875,15.7968464270356
-0.0520513076437501,15.7982716915849
-0.0480011551250771,15.7996463399852
-0.0441156639152149,15.8009791483573
-0.0404270701463397,15.80227321792
-0.0369521739803227,15.8035297659284
-0.0336993330707906,15.80474905844
-0.0306714274549443,15.8059308971555
-0.0278673419280667,15.8070748761108
-0.0252828699840845,15.8081805157573
-0.0229113773089074,15.8092473293484
-0.0207443546126442,15.810274849921
-0.0187719068488542,15.8112626328885
-0.016983193203327,15.8122102424729
-0.0153668200865208,15.8131172264943
-0.0138101258004086,15.814045169506
-0.0123147397683753,15.8149971106261
-0.0108847113198689,15.8159749616465
-0.00952389758779883,15.81698097091
-0.00823593584626992,15.8180177886356
-0.00702419225578433,15.8190885681088
-0.00589170830510407,15.8201971001791
-0.0048411447839418,15.8213479960309
-0.00387472293217184,15.8225469417614
-0.00299416183938905,15.8238010634441
-0.00220061016677661,15.8251194691417
-0.00149456842575473,15.8265140883976
-0.000875794436349933,15.828001042814
-0.000343176726969991,15.8296030404144
8.22544940924997e-05,15.8312500875805
0.000415449096588978,15.8329522671045
0.000671762315883422,15.8347282582095
0.000865428595861757,15.836602115572
0.00100998851284659,15.8386067635733
0.00111880408308961,15.8407904942768
0.00120591796022483,15.8432313524606
0.00128801414170119,15.8460764096788
0.00139163113402036,15.8497011415331
0.00151667767266567,15.8534972821234
0.00168228472541185,15.8577459526149
0.00189844673266662,15.8626134771505
0.00212695778576779,15.8673859226858
0.00233170515231625,15.8715234083947
0.00252638445636947,15.875412457982
0.00271720913709924,15.8792055970351
0.00290807325993095,15.8829816438594
0.00310214703819751,15.886792210367
0.00330236658315303,15.890676996802
0.00351160131404387,15.8946695560202
0.00373278302257108,15.8988008246305
0.00396901464732446,15.9031012983716
0.00422368675007864,15.9076024290446
0.00450066487610857,15.9123379694348
0.00480461249335238,15.9173453675984
0.00514152532768483,15.9226669197386
0.0054966921136467,15.9280110958065
0.00586482758981057,15.9332590941907
0.00624984966896409,15.9384285168316
0.00665434451623242,15.943509927459
0.00708265513452833,15.9485123254731
0.00753940015135505,15.9534421069942
0.00802972757853084,15.9583056886508
0.00855914491275448,15.963106764975
0.00913363578144293,15.967846892851
0.00975973976824529,15.9725256508432
0.0104446866745184,15.9771413306571
0.0112116974443036,15.9817787965147
0.0120763014913667,15.9864407816757
0.0130592333777727,15.9911394965203
0.0141894946319146,15.9959024658913
0.0155132937985539,16.0007945417159
0.0171221006990436,16.0059830379166
0.0192988701871277,16.0120721849577
0.0210574988978326,16.0164817551867
0.022919192127025,16.0208913254156
0.0244880013284413,16.0245844766559
0.0257958561474846,16.0278208542098
0.0268926182327922,16.0308531484127
0.0277689340621592,16.0337931284193
0.0283756130668347,16.0365956398315
0.0287138463653603,16.0393791413797
0.0287578852962721,16.0422904776542
0.0284137290031882,16.0456196709969
0.0273926392306389,16.049929676739
0.0264964091270659,16.0525715400765
0.0254408904011071,16.0552134034141
0.0243708549006745,16.0576274301534
0.023298879194771,16.0598987346116
0.0222256855090762,16.0620903249354
0.0211541620967927,16.0642377499943
0.0200879888807796,16.0663635242271
0.0190309029974996,16.0684835263582
0.0179863738762313,16.0706098600198
0.0169575896483998,16.0727523242361
0.0159474580922977,16.0749192529655
0.0149586127754007,16.0771180456208
0.0139934253515512,16.0793555220539
0.013054018949044,16.0816381766001
0.0121422755455828,16.0839723864281
0.0112598496509215,16.0863645691192
0.0104081758328667,16.0888213354217
0.00958847838688381,16.0913496292468
0.00880037665436967,16.0939617017874
0.00802337243798534,16.0967463844977
0.00726128583258355,16.0997230443608
0.00651786732669954,16.1029151334087
0.00579710121351754,16.1063497337733
0.00510317536556139,16.1100582348108
0.00444042520374524,16.1140771891833
0.00381324082288889,16.1184494652612
0.00322590577671482,16.1232261063386
0.00268234874729238,16.128469711692
0.00218584150231722,16.134260571954
0.00173880016359586,16.1407062075082
0.00135452700373681,16.1477119683105
0.00103305820008146,16.155276771484
0.000779048633633986,16.1635194012296
0.000616760716276981,16.1708915703968
0.000462928122505714,16.1803440115706
0.000351126065974255,16.1900233337164
0.00027023004862734,16.2000233337164
0.000214660824620455,16.2100233337164
0.000177082554229822,16.2200233337165
0.000152124844697877,16.2300233337165
0.000135957163916983,16.2400233337165
0.000125930238516509,16.2500233337165
0.000120246393578067,16.2600233337165
0.000117692970149156,16.2700233337165
0.000117452024040464,16.2800233337165
0.000118974337467713,16.2900233337165
0.000121897839059399,16.3000233337165
0.000125993954028887,16.3100233337165
0.000131131468940728,16.3200233337165
0.000137252065176883,16.3300233337165
0.000144354207048109,16.3400233337165
0.000152483318228082,16.3500233337165
0.000161726870032027,16.3600233337165
0.000172213513287564,16.3700233337165
0.00018411584258388,16.3800233337165
0.000197656827673332,16.3900233337165
0.000213120419328351,16.4000233337165
0.000230867402034412,16.4100233337165
0.000251358330768025,16.4200233337165
0.000275186524808321,16.4300233337165
0.000303125883896184,16.4400233337165
0.000336201245633897,16.4500233337165
0.000375794050060913,16.4600233337165
0.00042380501153658,16.4700233337165
0.00048065471947775,16.4796735768272
0.000545411806641299,16.488593358513
0.000618995319478921,16.4968235679815
0.00070257784442026,16.5044176271492
0.00079751317608216,16.5114256700016
0.000905341223117809,16.5178942244867
0.00102780724555053,16.5238664785935
0.00116688758038625,16.5293825331993
0.00132482079096448,16.5344796190552
0.00150414230756104,16.5391923031247
0.00170772603537353,16.543552691944
0.00193883262434212,16.5475906292553
0.00220116893721295,16.5513338775098
0.00249895834660993,16.5548082950136
0.00283703128660902,16.5580380221205
0.00322093949387437,16.5610456755366
0.00365710525705517,16.563852550673
0.0041530235992338,16.5664788540682
0.00471754323713187,16.5689439849891
0.00536127371920204,16.5712668938263
0.00608696964206856,16.5734386503412
0.0068887526881385,16.5754421929225
0.00777731062315304,16.5773117981502
0.00876883502294772,16.5790821132932
0.00988910799808929,16.5807913115028
0.0111854505793245,16.5824915653742
0.0128205131441906,16.5843383488607
0.0153164376512332,16.5867468164734
0.0168978688114765,16.588117441585
0.0185533367079977,16.5894880666965
0.0200602655824338,16.5907245224506
0.0214096193902512,16.591866685332
0.0226181115682811,16.5929686300474
0.0236799524813454,16.5940700234132
0.0245723660109147,16.595211045861
0.0252510323098238,16.5964496686545
0.0256209627235504,16.5979107120374
0.0252989868190886,16.6001334130189
0.0245570735588707,16.6016199686458
0.0234935244633784,16.6031065242726
0.0222828189347225,16.6045023751181
0.0209279552017462,16.6059082212476
0.0194380892881179,16.6073710531764
0.0178215463212525,16.6089280743262
0.01671579979759,16.6099997375104
0.0156546583695724,16.6110714006947
0.0132286350155011,16.6137520203485
0.0110214046872723,16.616563329341
0.00923268545582516,16.619213792005
0.00777691866704942,16.6217189525034
0.00657940279564094,16.6241045068068
0.00558093557192,16.6263994430405
0.00473406305659015,16.6286398049483
0.00399855390417578,16.6308782180155
0.00333399469914942,16.6332134283063
0.00267112642964205,16.6359448194465
0.0022510423260901,16.6379559064307
0.00188071650999741,16.639966993415
0.00159413984085409,16.6417172328368
0.00135790176304115,16.6433180106244
0.00114693013344849,16.6448944156487
0.000946889144116436,16.646543866346
0.000744236601453312,16.6484019963049
0.000512221056870073,16.6508196826721
0.000185354559961553,16.6549464990816
-5.08393081521437e-05,16.6587132424373
-0.000222831735645884,16.6621101024845
-0.000376158245689966,16.6658847544708
-0.000530035030220053,16.6709799900942
-0.00063203164453478,16.6763434889299
-0.000667669382465286,16.6811051598923
-0.00064509456566838,16.6854137690893
-0.000565057176470534,16.6892973928085
-0.000426077578721306,16.6927986513291
-0.000224896387280036,16.6959701927317
4.31094382711287e-05,16.6988621554361
0.000384407883088277,16.7015256416739
0.000809159818071542,16.7040172049111
0.00133362704952026,16.7063980818204
0.00198770275498654,16.7087485423461
0.00283032398480588,16.7111861869685
0.00400130092475932,16.7139382813165
0.0055329487319495,16.7168994593458
0.00696326796954517,16.7192558632159
0.00860805140021039,16.7216122670859
0.0101764726252178,16.7235670375441
0.0117593504451428,16.725291858959
0.0134581981079988,16.7269072807404
0.0152745213195773,16.7284081844233
0.0172905415651408,16.729851097334
0.0195190368243105,16.7312277290806
0.0220121888340554,16.7325541864019
0.0248034484148451,16.7338311824391
0.0279293286798282,16.7350600706672
0.0314376813071553,16.7362451351347
0.035375564664639,16.7373882054067
0.0397972776725992,16.7384916820215
0.0447709144070401,16.7395593787563
0.0503726205384582,16.7405943744394
0.0566924525669297,16.7415999578268
0.063836364176571,16.7425794214078
0.0719352175978841,16.7435367152436
0.0811481850562753,16.7444759926206
0.0916719116856761,16.7454017858381
0.103754364191917,16.746319269036
0.117714987787291,16.7472345554882
0.133975731278413,16.7481551345708
0.153117087827793,16.7490908493289
0.175855574690653,16.7500506869702
0.202171025763701,16.7510128076029
0.232732731187183,16.7519866593534
0.268433108975315,16.7529858982277
0.310609548082354,16.7540341314291
0.348918025338041,16.7549039678563
0.389384818237136,16.7557738042836
0.424713454479042,16.7565205295127
0.455329852501926,16.7571839461111
0.482143618976384,16.7578058320745
0.505336888698315,16.7584129717808
0.524608895537471,16.7590281052163
0.539145407482099,16.7596779116277
0.54717282213452,16.7604060356169
0.545244511475651,16.7611914142707
0.531549189534082,16.7620024291991
0.50463944502037,16.7628569870611
0.462542607553212,16.7637685694188
0.403383842910823,16.7647402209642
0.35584035524359,16.7653958039707
0.303088984792759,16.7660513869772
0.256600026599525,16.766593501126
0.21723406391554,16.7670410797379
0.182919566848235,16.7674318764479
0.152326616932699,16.7677879684094
0.124678225877768,16.768122502417
0.099457152716481,16.7684447116297
0.0762553945752314,16.7687625577806
0.0546655216967066,16.7690850467249
0.0340878065748357,16.7694271251475
0.0127621104262795,16.7698352135401
0.000927820677164732,16.7700964287199
-0.00655112918144253,16.7702794145676
-0.0133910442731092,16.7704624004153
-0.0193458947172836,16.770636899022
-0.0254347247488657,16.7708337598297
-0.0313937695167151,16.7710496119565
-0.0370286158145204,16.7712816731167
-0.0422292888626102,16.7715287601519
-0.0469369243346965,16.7717907508048
-0.051123297204762,16.7720682577157
-0.0547788782618153,16.7723624646157
-0.0578986124836622,16.7726750608034
-0.0604857022629357,16.773008581576
-0.0625329899824108,16.7733619554277
-0.0640831955541513,16.7737416871671
-0.065151059655465,16.7741519419304
-0.0657494579103755,16.7745978546179
-0.0658880220740581,16.7750858973299
-0.0655711764538265,16.7756243864635
-0.0647940588609203,16.7762251579571
-0.0635374253841568,16.7769043424165
-0.0617605679856882,16.7776850105035
-0.059380455595759,16.7786048806368
-0.0562051315792574,16.7797396319243
-0.0520512960563064,16.7811648961637
-0.0480011439614279,16.7825395443637
-0.0441156533898192,16.7838723525644
-0.0404270603668152,16.7851664219695
-0.0369521650022933,16.7864229698268
-0.0336993249199433,16.7876422621895
-0.0306714201370452,16.7888241007564
-0.0278673354343727,16.7899680795624
-0.0252828642947786,16.7910737190583
-0.0229113723957002,16.7921405324976
-0.0207443504408864,16.7931680529169
-0.0187719033794116,16.7941558357298
-0.0169831903942104,16.7951034451581
-0.0153668178943335,16.7960104290216
-0.013810123801168,16.7969383721208
-0.0123147379803046,16.7978903133329
-0.0108847097570077,16.7988681644532
-0.00952389626345021,16.7998741738256
-0.00823593477279088,16.8009109916708
-0.00702419144438086,16.8019817712765
-0.00589170776561835,16.8030903034948
-0.00484114452463191,16.8042411995136
-0.00387472295947041,16.8054401454346
-0.00299416215764142,16.8066942673376
-0.00220061077794366,16.8080126732939
-0.00149456932905764,16.8094072928596
-0.000875795627811113,16.810894247656
-0.00034317819875433,16.8124962457378
8.22526733178387e-05,16.8141432930731
0.000415446991085692,16.8158454728401
0.00067175998211625,16.8176214642675
0.000865426087156339,16.8194953220582
0.00100998588105294,16.8214999706368
0.00111880138110897,16.823683702145
0.00120591524678567,16.8261245615227
0.00128801149410497,16.8289696207414
0.00139162870825139,16.8325943571336
0.00151667541537329,16.8363904985537
0.00168228272937912,16.8406391717611
0.00189844488332375,16.8455066966363
0.00212695593881792,16.8502791407223
0.00233170330929111,16.8544166259626
0.00252638261240144,16.8583056753884
0.00271720728796045,16.8620988144165
0.00290807140263108,16.8658748612982
0.00310214517025366,16.8696854279242
0.00330236470180796,16.873570214528
0.0035115994156849,16.8775627739605
0.00373278110232421,16.88169404283
0.00396901269867378,16.8859945168766
0.00422368476452347,16.8904956479047
0.00450066284285041,16.8952311887053
0.0048046103989808,16.9002385873426
0.00514152315584415,16.90556014003
0.00549668985199946,16.9109043167095
0.00586482521879061,16.9161523156199
0.00624984717101474,16.9213217387497
0.00665434187237461,16.9264031498238
0.00708265232441317,16.9314055482565
0.00753939715233248,16.9363353301782
0.00802972436471701,16.9411989122244
0.00855914145449433,16.9459999889347
0.00913363204477376,16.9507401171995
0.00975973571438731,16.9554188755885
0.0104446822592169,16.9600345558095
0.0112116924983919,16.9646720214584
0.0120762959258861,16.969334006469
0.0130592270477153,16.9740327210414
0.01418948732832,16.9787956898995
0.0155132851607272,16.9836877646315
0.0171220899109025,16.9888762581239
0.0192988538323962,16.9949653948978
0.0210574856338013,16.9993749757228
0.0229191829367476,17.0037845565479
0.0244879940285463,17.0074777118117
0.0257958500091625,17.0107140909495
0.0268926131343754,17.0137463857631
0.0277689303432917,17.016686366782
0.0283756106666136,17.0194888785994
0.0287138453272029,17.0222723799236
0.0287578858534702,17.0251837150722
0.028413732010749,17.0285129048932
0.0273926444133027,17.0328229120055
0.0264964148036201,17.0354647771601
0.0254408961207402,17.0381066423147
0.0243708606134013,17.0405206701139
0.0232988849174789,17.0427919751423
0.0222256912320887,17.0449835657866
0.0211541678012257,17.0471309910184
0.020087994547294,17.049256765325
0.0190309086066016,17.051376767457
0.0179863794094931,17.0535031010622
0.0169575950889254,17.0556455651749
0.0159474634247065,17.0578124937598
0.0149586179857443,17.0600112862341
0.0139934304272701,17.0622487624521
0.0130540238788718,17.0645314167508
0.0121422803194937,17.0668656262994
0.0112598542601409,17.0692578086791
0.0104081802697066,17.0717145746372
0.00958848264481394,17.0742428680836
0.00880038086234022,17.0768549397444
0.00802337657578752,17.0796396214783
0.00726128988051916,17.0826162802472
0.00651787126371407,17.0858083680656
0.00579710501738094,17.089242967044
0.00510317901304493,17.0929514665132
0.00444042867101634,17.0969704191051
0.0038132440861691,17.1013426931519
0.00322590881343502,17.106119331896
0.00268235153751902,17.1113629345386
0.00218584403048517,17.1171537915932
0.00173880241882371,17.1235994232642
0.00135452889722421,17.1306051812871
0.00103305976862522,17.1381699811316
0.000779049870993373,17.1464126068065
0.000616761306721668,17.1537847939362
0.000462928750844705,17.1632372211021
0.000351126504408301,17.1729165446208
0.00027023036293687,17.1829165446208
0.000214661051662337,17.1929165446208
0.000177082719973185,17.2029165446208
0.000152124967351705,17.2129165446208
0.000135957256057884,17.2229165446208
0.000125930308707924,17.2329165446208
0.000120246447592006,17.2429165446208
0.000117693011840529,17.2529165446208
0.000117452055944882,17.2629165446208
0.00011897436120108,17.2729165446208
0.000121897855584538,17.2829165446208
0.000125993963834273,17.2929165446208
0.000131131472159715,17.3029165446208
0.000137252061664898,17.3129165446208
0.000144354196428851,17.3229165446208
0.000152483299915823,17.3329165446209
0.000161726843234346,17.3429165446209
0.000172213476990583,17.3529165446209
0.000184115795520038,17.3629165446209
0.000197656768269614,17.3729165446209
0.000213120345630424,17.3829165446209
0.000230867311598899,17.3929165446209
0.000251358220510437,17.4029165446209
0.000275186390786952,17.4129165446209
0.000303125721000622,17.4229165446209
0.000336201047127338,17.4329165446209
0.000375793806891864,17.4429165446209
0.000423804711275289,17.4529165446209
0.00048065436861725,17.4625667910026
0.000545411399451241,17.4714865758696
0.000618994848680712,17.4797167883072
0.00070257730161215,17.4873108502372
0.00079751255170313,17.4943188956552
0.000905340506333831,17.5007874525197
0.00102780642409494,17.5067597088293
0.00116688664036912,17.5122757654708
0.00132481971664588,17.5173728532043
0.00150414108109967,17.5220855390021
0.00170772463651071,17.5264459294082
0.00193883103003968,17.5304838681723
0.00220116712119799,17.5342271177526
0.00249895627881703,17.5377015364614
0.00283702893247346,17.5409312646576
0.00322093681339966,17.5439389190519
0.00365710220358993,17.5467457950584
0.00415302011777391,17.5493720992174
0.00471753926189096,17.5518372307953
0.00536126917000638,17.5541601401793
0.00608696460868558,17.5563318976109
0.0068887471066003,17.5583354408886
0.00777730439466648,17.5602050465816
0.00876882799559396,17.5619753619398
0.0098890999118246,17.5636845600434
0.0111854409044119,17.5653848132741
0.0128204997633394,17.5672315941689
0.0153164160870762,17.5696400560065
0.0168978491020525,17.571010683468
0.0185533198257128,17.5723813109295
0.0200602513168229,17.5736177681944
0.0214096072426228,17.5747599316921
0.0226181014643027,17.5758618764758
0.0236799445867324,17.5769632694446
0.0245723607045008,17.5781042909307
0.0252510303295348,17.5793429117986
0.0256209659097009,17.5808039506777
0.025299003775224,17.5830266399991
0.0245570967214034,17.5845131983241
0.0234935507383458,17.5859997566491
0.0222828479149053,17.5873956077653
0.0209279866680507,17.588801453079
0.0194381230001147,17.5902642834984
0.0178215821124548,17.5918213024448
0.0167158527135857,17.5928929476777
0.015654726023768,17.5939645929106
0.0132287058848347,17.5966451986709
0.0110214592644802,17.5994565162871
0.00923272730105621,17.6021069869993
0.00777695107398546,17.6046121542357
0.00657942831949206,17.6069977138498
0.0055809562122742,17.6092926537265
0.00473408046341042,17.6115330170621
0.00399856964216712,17.6137714279938
0.0033340108591754,17.6161066283764
0.00267114937997082,17.6188379772944
0.0022510549619253,17.620849102786
0.00188072095127011,17.6228602282776
0.00159414168558966,17.6246104812236
0.00135790289803168,17.6262112625335
0.00114693129830125,17.6277876661588
0.000946890884206984,17.6294371104734
0.000744239681874933,17.6312952250521
0.000512227870899626,17.6337128639701
0.000185359322516071,17.6378396861306
-5.08384294337208e-05,17.6416064781624
-0.000222832336653466,17.6450033620136
-0.000376158993098384,17.648778012869
-0.000530035549302926,17.6538732262698
-0.000632033081600502,17.6592367376587
-0.00066767159409151,17.6639984154927
-0.000645097593107234,17.668307031675
-0.000565061068340242,17.6721906615814
-0.000426082394489425,17.6756919254212
-0.000224902176315774,17.6788634715943
4.31025830653017e-05,17.6817554380223
0.000384399832628381,17.6844189270328
0.000809150416774478,17.6869104923041
0.00133361600549298,17.6892913702219
0.00198768893593391,17.6916418284722
0.00283030607067709,17.6940794688746
0.00400127503908841,17.6968315530332
0.00553291700606597,17.6997927283383
0.0069632419712565,17.7021491468685
0.0086080333213533,17.7045055653987
0.0101764524169895,17.7064603353723
0.0117593326282485,17.7081851615034
0.0134581762167504,17.7098005815203
0.0152744987113968,17.7113014868302
0.0172905180125025,17.7127444012305
0.0195190104251059,17.7141210333418
0.022012159718078,17.7154474913448
0.0248034156405384,17.7167244878039
0.0279292920913288,17.7179533765853
0.0314376403793735,17.719138441581
0.035375518485375,17.7202815122627
0.0397972258185301,17.7213849893351
0.0447708560916207,17.7224526864945
0.0503725548299181,17.7234876825653
0.056692378366663,17.7244932663018
0.0638362799531453,17.7254727301625
0.0719351219434858,17.7264300242614
0.0811480760450004,17.727369301857
0.0916717869203376,17.7282950952431
0.103754220643132,17.7292125785526
0.117714821543507,17.7301278650494
0.133975537112488,17.7310484440919
0.153116858547963,17.7319841587008
0.17585530972491,17.7329439964195
0.202170718839586,17.7339061170523
0.232732374302612,17.7348799686992
0.268432691239993,17.7358792073115
0.310609051865223,17.7369274399374
0.348917595032846,17.7377972787144
0.389384475726668,17.7386671174913
0.424713157760158,17.739413843809
0.455329586065352,17.7400772609565
0.482143378822413,17.7406991472027
0.505336675479139,17.7413062870003
0.52460871343023,17.7419214203343
0.539145265766302,17.7425712263797
0.547172742141729,17.7432993494865
0.545244521454513,17.7440847280597
0.531549299648513,17.7448957427382
0.504639670301036,17.7457503002048
0.462542967130239,17.7466618820583
0.403384292980883,17.7476335339542
0.3558407637699,17.7482891183616
0.303089319988745,17.7489447027691
0.256600302453039,17.7494868178165
0.217234301556382,17.7499343969318
0.182919778036515,17.7503251939421
0.152326807897953,17.7506812860935
0.124678400437157,17.75101582022
0.0994573136404314,17.7513380294961
0.0762555443256734,17.7516558756562
0.0546656632321963,17.7519783645374
0.0340879456107776,17.7523204427477
0.0127622726901123,17.7527285302481
0.000927845862248384,17.752989748241
-0.00655110684788979,17.7531727341241
-0.0133910245312112,17.7533557200071
-0.0193458770482462,17.7535302186426
-0.0254347069704748,17.7537270794074
-0.0313937521779171,17.753942931499
-0.0370285992833839,17.7541749926291
-0.0422292733479332,17.7544220796361
-0.0469369099494793,17.7546840702605
-0.0511232840039794,17.754961577141
-0.0547788662645434,17.7552557840074
-0.0578986016913221,17.7555683801572
-0.0604856927817927,17.7559019009039
-0.0625329816323825,17.756255274707
-0.0640831883085232,17.756635006389
-0.065151053490241,17.7570452610844
-0.0657494528066486,17.7574911736906
-0.0658880180223978,17.757979216304
-0.0655711734600493,17.7585177053167
-0.0647940569614091,17.7591184766551
-0.0635374246558909,17.7597976609142
-0.0617605685784028,17.760578328731
-0.0593804578167785,17.7614981984703
-0.0562051362144089,17.7626329490754
-0.0520513006550572,17.7640582134381
-0.0480011483919175,17.7654328617177
-0.0441156575667743,17.7667656699865
-0.0404270642474478,17.7680597394543
-0.0369521685644891,17.7693162873716
-0.0336993281534883,17.7705355797934
-0.0306714230396386,17.7717174184194
-0.0278673380094939,17.7728613972847
-0.0252828665502966,17.7739670368405
-0.0229113743428575,17.7750338503401
-0.0207443520934478,17.7760613708203
-0.0187719047529292,17.7770491536946
-0.0169831915053676,17.777996763185
-0.0153668187603721,17.7789037471112
-0.0138101245905674,17.7798316901757
-0.0123147386858261,17.7807836313512
-0.0108847103730733,17.7817614824318
-0.00952389678477391,17.7827674917609
-0.00823593519446146,17.7838043095586
-0.00702419176194744,17.7848750891117
-0.00589170797516975,17.7859836212712
-0.00484114462288896,17.7871345172235
-0.00387472294387897,17.7883334630689
-0.00299416202647519,17.7895875848843
-0.00220061053042588,17.7909059907378
-0.00149456896549969,17.7923006101804
-0.000875795149795892,17.7937875648258
-0.000343177609398088,17.7953895627163
8.22534013013925e-05,17.7970366099844
0.000415447832159886,17.7987387896548
0.00067176091384288,17.8005147809541
0.000865427088344017,17.8023886385747
0.00100998693109588,17.8043932869239
0.00111880245898319,17.8065770181123
0.00120591632915037,17.8090178770156
0.00128801255023672,17.8118629354394
0.0013916296761547,17.8154876700283
0.00151667631625361,17.8192838111187
0.00168228352636942,17.8235324832469
0.00189844562197294,17.8284000079875
0.00212695667624668,17.8331724526449
0.00233170404504772,17.8373099380698
0.00252638334848093,17.8411989875591
0.00271720802607523,17.8449921265969
0.00290807214399214,17.8487681734558
0.00310214591586681,17.852578740035
0.00330236545278698,17.856463526572
0.00351160017348428,17.8604560859197
0.00373278186890158,17.8645873546868
0.00396901347664225,17.8688878286127
0.00422368555728897,17.8733889595005
0.00450066365473766,17.8781245001389
0.00480461123536063,17.883131898589
0.00514152402327014,17.8884534510602
0.00549669075522317,17.893797627495
0.00586482616567496,17.8990456261955
0.00624984816854962,17.90421504913
0.00665434292814959,17.9092964600257
0.0070826534465582,17.9142988582912
0.0075393983499,17.9192286400529
0.00802972564804869,17.9240922219436
0.00855914283543817,17.9288932984997
0.00913363353689526,17.9336334266093
0.00975973733317461,17.9383121848399
0.0104446840223448,17.9429278648983
0.0112116944734122,17.9475653306305
0.012076298148323,17.9522273157012
0.0130592295754753,17.9569260303823
0.0141894902448476,17.9616889994452
0.0155132886100592,17.9665810746135
0.0171220942189262,17.9717695691875
0.019298860363336,17.9778587100614
0.0210574909305228,17.9822682866551
0.0229191866066848,17.9866778632487
0.0244879969435943,17.9903710169059
0.0257958524603597,17.9936073954111
0.0268926151703072,17.9966396899809
0.0277689318283287,17.9995796705955
0.0283756116250762,18.0023821822511
0.0287138457417536,18.0051656836647
0.0287578856309487,18.008077019263
0.0284137308097265,18.0114062104903
0.0273926423436979,18.0157162170554
0.0264964125367901,18.0183580814844
0.0254408938367077,18.0209999459134
0.0243708583321265,18.0234139732894
0.0232988826322171,18.0256852780901
0.0222256889467044,18.0278768686064
0.02115416552326,18.0300242937692
0.0200879922844698,18.0321500680463
0.0190309063667045,18.034270070178
0.0179863771998809,18.0363964038056
0.0169575929163448,18.0385388679597
0.0159474612952988,18.0407057966024
0.0149586159050788,18.042904589149
0.013993428400363,18.0451420654529
0.013054021910221,18.0474247198504
0.0121422784131013,18.0497589295106
0.0112598524195109,18.0521511120146
0.0104081784979088,18.0546078781103
0.00958848094445581,18.057136171708
0.0088003791819329,18.0597482437201
0.00802337492340082,18.0625329258439
0.00726128826401945,18.0655095850497
0.00651786969150905,18.0687016733592
0.00579710349834784,18.0721362728911
0.0051031775564593,18.0758447729866
0.00444042728639543,18.0798637262896
0.00381324278300869,18.0842360011475
0.00322590760074725,18.0890126408234
0.00268235042326413,18.0942562445485
0.00218584302087887,18.1000471028839
0.00173880151821129,18.1064927361056
0.00135452814106679,18.1134984952385
0.00103305914222827,18.1210632964124
0.00077904937688157,18.1293059237129
0.000616761071188057,18.136678103658
0.000462928500049323,18.1461305364225
0.000351126329454118,18.1558098593899
0.000270230237521789,18.1658098593899
0.000214660961076637,18.1758098593899
0.000177082653852412,18.1858098593899
0.000152124918428324,18.1958098593899
0.000135957219312203,18.2058098593899
0.000125930280721956,18.2158098593899
0.000120246426061894,18.2258098593899
0.000117692995227583,18.2358098593899
0.000117452043236974,18.24580985939
0.00011897435175315,18.25580985939
0.000121897849012179,18.26580985939
0.00012599395994239,18.27580985939
0.000131131470894939,18.28580985939
0.000137252063084776,18.29580985939
0.0001443542006834,18.30580985939
0.00015248330723863,18.31580985939
0.000161726853941468,18.32580985939
0.000172213491486435,18.33580985939
0.000184115814310247,18.34580985939
0.000197656791981672,18.35580985939
0.000213120375043953,18.36580985939
0.00023086734768863,18.37580985939
0.000251358264506878,18.38580985939
0.000275186444262613,18.39580985939
0.000303125785994289,18.40580985939
0.000336201126326684,18.41580985939
0.000375793903908075,18.42580985939
0.000423804831067424,18.43580985939
0.000480654508592023,18.4454601044662
0.000545411561894138,18.4543798880636
0.000618995036494968,18.4626100993162
0.000702577518149063,18.4702041601439
0.000797512800776416,18.477212204538
0.000905340792264984,18.4836807604529
0.00102780675177687,18.4896530158834
0.00116688701534226,18.4951690717125
0.00132482014518858,18.5002661586968
0.00150414157032853,18.5049788438049
0.00170772519450649,18.5093392335777
0.00193883166599182,18.5133771717621
0.00220116784558622,18.5171204208133
0.00249895710363376,18.5205948390412
0.00283702987150567,18.5238245668027
0.00322093788260106,18.5268322208067
0.00365710342156851,18.5296390964659
0.00415302150646884,18.5322654003201
0.00471754084754252,18.5347305316357
0.00536127098459306,18.5370534408015
0.00608696661640022,18.5392251978673
0.00688874933295622,18.5412287408671
0.00777730687906503,18.5430983463744
0.00876883079862222,18.5448686616466
0.00988910313719197,18.5465778597923
0.0111854447633801,18.5482781132784
0.0128205051003175,18.5501248952066
0.0153164246876741,18.5525333593471
0.0168978569631103,18.5539039858714
0.0185533265594463,18.5552746123957
0.0200602570071549,18.556511069058
0.0214096120884206,18.5576532323099
0.0226181054952053,18.5587551770662
0.0236799477366457,18.5598565701933
0.0245723628223437,18.5609975920629
0.025251031121018,18.5622362136986
0.0256209646409071,18.5636972543738
0.0252989970150763,18.5659199483451
0.0245570874861647,18.567406505594
0.0234935402618639,18.568893062843
0.0222828363595569,18.5702889138511
0.0209279741211903,18.5716947594901
0.0194381095576056,18.5731575905114
0.0178215678406728,18.5747146103365
0.0167158316126939,18.575786262728
0.0156546990454915,18.5768579151196
0.0132286776242492,18.5795385264204
0.0110214374997049,18.5823498405991
0.00923271061279055,18.5850003081031
0.00777693814910573,18.5875054726535
0.00657941813927231,18.5898910301507
0.00558094797950055,18.5921859685752
0.00473407352026671,18.5944263313415
0.00399856336485181,18.5966647431244
0.00333400441418965,18.5989999474564
0.00267114022889648,18.6017313132043
0.00225104992276632,18.6037424233459
0.00188071917892662,18.6057535334875
0.00159414094846614,18.6075037810425
0.00135790244398877,18.6091045609484
0.00114693083250845,18.6106809651313
0.000946890189266767,18.6123304119899
0.000744238452823103,18.6141885326991
0.000512225153812739,18.6166061905299
0.000185357423375566,18.6207330103976
-5.08387802431157e-05,18.6244997830253
-0.000222832097475712,18.627896657386
-0.000376158695442153,18.6316713086898
-0.000530035342530188,18.6367665309434
-0.000632032509035269,18.6421300373305
-0.000667670712879964,18.6468917124264
-0.000645096386814858,18.6512003258253
-0.00056505951759562,18.6550839532664
-0.000426080475593771,18.6585852149867
-0.000224899869603154,18.6617567592589
4.31053146241009e-05,18.6646487242032
0.000384403040476419,18.667312212109
0.000809154162899972,18.6698037765697
0.00133362040619699,18.6721846540857
0.00198769444245028,18.6745351132427
0.00283031320898414,18.6769727553267
0.00400128535385325,18.6797248435455
0.00553292964803201,18.6826860199361
0.00696325233095926,18.6850424326246
0.00860804052540644,18.6873988453131
0.0101764604702332,18.6893536154805
0.0117593397283183,18.6910784397319
0.0134581849411379,18.6926938604526
0.0152745077214856,18.694194765114
0.0172905273989286,18.6956376789206
0.0195190209460142,18.6970143108866
0.0220121713217074,18.6983407686179
0.0248034287021338,18.6996177649089
0.0279293066730087,18.7008466534697
0.031437656690397,18.7020317182549
0.0353755368892623,18.7031747887734
0.0397972464840011,18.7042782656634
0.044770879332134,18.7053459626536
0.0503725810168123,18.7063809585699
0.0566924079377642,18.7073865421673
0.0638363135187451,18.7083660059165
0.0719351600646494,18.7093232999105
0.0811481194892823,18.710262577419
0.0916718366430807,18.711188370738
0.103754277851631,18.712105854003
0.117714887796644,18.713021140482
0.133975614493426,18.7139417195405
0.153116949922904,18.7148774342089
0.175855415321762,18.7158372718967
0.202170841158111,18.7167993925295
0.232732516531937,18.7177732442177
0.268432857720235,18.7187724829345
0.310609249623083,18.7198207157897
0.348917766521793,18.7206905536302
0.389384612225528,18.7215603914707
0.424713276008971,18.7223071173546
0.455329692245222,18.7229705342833
0.482143474527406,18.7235924204168
0.50533676044936,18.724199560178
0.52460878600098,18.7248146935525
0.539145322239326,18.7254644997438
0.547172774015667,18.7261926232022
0.545244517471414,18.7269780018075
0.531549255757772,18.7277890165857
0.504639580512519,18.7286435742099
0.462542823820211,18.7295551562643
0.40338411360539,18.7305268080205
0.355840600952168,18.7311823918696
0.30308918639721,18.7318379757187
0.256600192512598,18.732380090408
0.217234206845575,18.7328276693227
0.18291969386851,18.7332184662133
0.152326731789927,18.733574558289
0.124678330867815,18.7339090923681
0.0994572495055124,18.7342313016189
0.0762554846440068,18.7345491477754
0.0546656068247,18.7348716366817
0.0340878901995866,18.7352137149767
0.0127622080220069,18.7356218028326
0.000927835825984459,18.7358830197044
-0.00655111574777447,18.7360660055733
-0.0133910323983163,18.7362489914423
-0.0193458840892709,18.7364234900663
-0.0254347140550832,18.7366203508482
-0.0313937590873488,18.7368362029539
-0.0370286058709082,18.7370682640959
-0.0422292795303513,18.7373153511142
-0.0469369156817997,18.7375773417499
-0.0511232892642402,18.7378548486426
-0.0547788710451739,18.7381490555224
-0.0578986059917321,18.7384616516872
-0.0604856965595598,18.7387951724443
-0.0625329849593807,18.7391485462667
-0.0640831911953994,18.7395282779716
-0.0651510559465618,18.739938532694
-0.065749454839951,18.7403844453327
-0.06588801963644,18.7408724879854
-0.0655711746525137,18.7414109770462
-0.0647940577177997,18.7420117484465
-0.0635374249455278,18.7426909327854
-0.0617605683416169,18.7434716007099
-0.0593804569311067,18.7443914706062
-0.0562051343666971,18.7455262214832
-0.0520512988218652,18.7469514857968
-0.0480011466257914,18.7483261340446
-0.0441156559017,18.7496589422863
-0.0404270627004734,18.7509530117292
-0.0369521671444301,18.7522095596225
-0.0336993268644167,18.7534288520208
-0.0306714218824676,18.7546106906232
-0.0278673369828371,18.7557546694649
-0.0252828656510214,18.7568603089968
-0.0229113735664776,18.7579271224724
-0.0207443514344796,18.7589546429283
-0.0187719042051725,18.7599424257781
-0.0169831910621731,18.7608900352438
-0.0153668184148728,18.761797019145
-0.0138101242756158,18.7627249622233
-0.0123147384043047,18.7636769034135
-0.0108847101272057,18.7646547545098
-0.00952389657666788,18.7656607638562
-0.00823593502607247,18.7666975816729
-0.00702419163504995,18.7677683612469
-0.00589170789132489,18.7688768934299
-0.00484114458340251,18.7700277894087
-0.00387472294976913,18.7712267352841
-0.00299416207842971,18.7724808571345
-0.0022006106287551,18.773799263029
-0.00149456911007889,18.7751938825207
-0.000875795339995204,18.7766808372262
-0.000343177843975682,18.778282835193
8.22531114702053e-05,18.7799298824878
0.000415447497252908,18.7816320621968
0.000671760542802508,18.7834080535471
0.000865426689615854,18.7852819112355
0.00100998651289203,18.7872865596761
0.00111880202968245,18.789470290992
0.00120591589805473,18.7919111500843
0.00128801212959032,18.7947562088249
0.0013916292906644,18.7983809441325
0.00151667595746816,18.8021770853544
0.00168228320898196,18.8064257579126
0.00189844532783081,18.8112932827069
0.00212695638257218,18.8160657271364
0.00233170375203024,18.8202032124876
0.00252638305532901,18.8240922619516
0.00271720773210823,18.8278854009854
0.0029080718487288,18.8316614478535
0.00310214561890724,18.8354720144513
0.00330236515368829,18.839356801015
0.00351159987166777,18.8433493603965
0.00373278156358803,18.8474806292044
0.00396901316679142,18.8517811031785
0.00422368524154472,18.8562822341222
0.00450066333137809,18.8610177748253
0.00480461090224728,18.8660251733501
0.00514152367779378,18.8713467259076
0.00549669039548082,18.8766909024398
0.00586482578853932,18.8819389012239
0.00624984777123507,18.8871083242362
0.00665434250763329,18.892189735203
0.00708265299960222,18.897192133535
0.0075393978728993,18.9021219153605
0.00802972513688422,18.9069854973131
0.0085591422853909,18.9117865739306
0.00913363294256219,18.9165267021021
0.00975973668838637,18.9212054603957
0.0104446833200622,18.9258211405189
0.0112116936867269,18.9304586062179
0.0120762972630847,18.9351205912647
0.0130592285686196,18.9398193059025
0.014189489083136,18.9445822748838
0.0155132872361191,18.9494743498783
0.0171220925029477,18.9546628440215
0.0192988577619175,18.9607519832623
0.0210574888207214,18.9651615615414
0.0229191851448694,18.9695711398205
0.0244879957824687,18.9732642941176
0.0257958514839958,18.9765006728748
0.0268926143593533,18.9795329675417
0.0277689312368085,18.9824729483174
0.0283756112433027,18.9852754600375
0.028713845576633,18.9880589614154
0.0287578857195887,18.9909702968346
0.0284137312881264,18.9942994875017
0.0273926431680746,18.9986094942848
0.0264964134397263,19.0012513590028
0.0254408947464953,19.0038932237209
0.0243708592408154,19.0063072512654
0.0232988835424938,19.0085785561568
0.0222256898570301,19.0107701467241
0.0211541664306306,19.0129175719144
0.0200879931858093,19.0150433462032
0.0190309072589111,19.017163348335
0.0179863780800238,19.0192896819537
0.0169575937817373,19.0214321460913
0.0159474621434951,19.023599074711
0.0149586167338598,19.0257978672288
0.0139934292077298,19.0280353434985
0.0130540226943828,19.0303179978567
0.0121422791724638,19.0326522074724
0.0112598531526782,19.0350443899269
0.010408179203658,19.0375011559678
0.00958848162174857,19.0400294495052
0.00880037985127902,19.0426415213774
0.00802337558158588,19.0454262033458
0.00726128890791015,19.0484028623777
0.00651787031775625,19.0515949504915
0.00579710410341506,19.055029549803
0.0051031781366523,19.058738049649
0.00444042783792328,19.0627570026687
0.0038132433020884,19.0671292772035
0.00322590808378933,19.0719059165083
0.00268235086709792,19.0771495198023
0.00218584342302852,19.0829403776275
0.00173880187694608,19.0893860102315
0.00135452844226164,19.0963917689222
0.00103305939173633,19.1039565695666
0.000779049573698893,19.1121991962195
0.000616761165020335,19.1195713790259
0.000462928599953838,19.1290238095606
0.000351126399149539,19.1387031327474
0.000270230287483096,19.1487031327474
0.000214660997163511,19.1587031327474
0.000177082680193575,19.1687031327474
0.000152124937918818,19.1787031327474
0.00013595723395163,19.1887031327474
0.000125930291871874,19.1987031327474
0.000120246434640046,19.2087031327474
0.000117693001846906,19.2187031327475
0.000117452048300649,19.2287031327475
0.000118974355518134,19.2387031327475
0.000121897851631597,19.2487031327475
0.000125993961493953,19.2587031327475
0.000131131471399903,19.2687031327475
0.00013725206252021,19.2787031327475
0.000144354198989537,19.2887031327475
0.000152483304322413,19.2987031327475
0.000161726849676986,19.3087031327475
0.000172213485712578,19.3187031327475
0.000184115806825586,19.3287031327475
0.00019765678253623,19.3387031327475
0.000213120363327148,19.3487031327475
0.000230867333312156,19.3587031327475
0.000251358246980536,19.3687031327475
0.00027518642295996,19.3787031327475
0.000303125760103132,19.3887031327475
0.000336201094776337,19.3987031327475
0.000375793865259954,19.4087031327475
0.000423804783346,19.4187031327475
0.000480654452830229,19.4283533783438
0.000545411497181463,19.4372731624469
0.000618994961674809,19.4455033741715
0.000702577431886331,19.4530974354383
0.000797512701551795,19.4601054802403
0.000905340678356889,19.4665740365335
0.00102780662123606,19.4725462923142
0.0011668868659616,19.4780623484669
0.00132481997446687,19.4831594357497
0.00150414137543062,19.4878721211325
0.00170772497221326,19.4922325111576
0.00193883141264237,19.4962704495729
0.00220116755700557,19.5000136988349
0.00249895677504429,19.5034881172543
0.00283702949741489,19.506717845189
0.00322093745665349,19.5097254993485
0.00365710293635077,19.512532375146
0.004153020953241,19.5151586791216
0.00471754021585118,19.5176238105417
0.00536127026169836,19.5199467197944
0.0060869658165674,19.522118477006
0.00688874844602115,19.5241220201165
0.00777730588933031,19.5259916256978
0.00876882968195139,19.5277619410042
0.0098891018522686,19.5294711391331
0.01118544322604,19.5311713925175
0.0128205029741586,19.5330181740339
0.0153164212613283,19.535426637257
0.0168978538313961,19.5367972641547
0.0185533238768518,19.5381678910524
0.0200602547402476,19.5394043479547
0.0214096101579745,19.5405465113045
0.0226181038894108,19.5416484560718
0.0236799464818346,19.5427498491358
0.0245723619787045,19.5438908708526
0.0252510308057927,19.5451294921824
0.025620965146482,19.546590532142
0.0252989997083616,19.5488132242608
0.0245570911655031,19.5502997819385
0.0234935444357009,19.5517863396161
0.0222828409632025,19.5531821906673
0.0209279791198412,19.5545880361767
0.0194381149130697,19.5560508669582
0.0178215735265068,19.5576078864332
0.0167158400192071,19.5586795359728
0.0156547097935221,19.5597511855124
0.0132286888831344,19.5624317946059
0.0110214461706369,19.5652431101541
0.0092327172612324,19.5678935789363
0.0077769432982152,19.5703987445569
0.00657942219491641,19.5727843028975
0.00558095125929411,19.5750792419006
0.00473407628628868,19.5773196048937
0.00399856586562998,19.5795580163374
0.00333400698180188,19.5818932190959
0.00267114387470262,19.5846245781384
0.00225105193034434,19.5866356943957
0.00188071988497287,19.5886468106529
0.00159414124207227,19.5903970603558
0.0013579026248181,19.5919978408211
0.00114693101802671,19.5935742447818
0.000946890466089355,19.5952236906268
0.00074423894245504,19.5970818088935
0.000512226236322612,19.5994994591889
0.000185358180010226,19.6036262799701
-5.08386404793743e-05,19.6073930603286
-0.000222832192762236,19.6107899384702
-0.000376158814018603,19.614564589595
-0.000530035424886455,19.6196598083208
-0.000632032737149539,19.625023316701
-0.000667671063979863,19.6297849928879
-0.000645096867447756,19.634093607396
-0.000565060135478655,19.6379772358194
-0.000426081240171563,19.6414784983842
-0.000224900788709955,19.6446500434139
4.3104226232783e-05,19.6475420089494
0.000384401762297942,19.6502054972954
0.000809152670237042,19.6526970620791
0.00133361865271246,19.6550779397552
0.00198769224835453,19.657428398551
0.00283031036469387,19.6598660399649
0.00400128124392693,19.662618126566
0.00553292461082579,19.6655793025241
0.00696324820312844,19.6679357175403
0.00860803765495535,19.6702921325564
0.0101764572614693,19.6722469026467
0.0117593368993152,19.673971727647
0.0134581814650055,19.6755871480873
0.0152745041315119,19.6770880530071
0.0172905236589969,19.6785309670503
0.0195190167540573,19.6799075990741
0.0220121666983468,19.6812340569137
0.0248034234978554,19.6825110532717
0.0279293008630637,19.6837399419204
0.031437650191407,19.6849250067895
0.0353755295563866,19.686068077373
0.0397972382500118,19.6871715543357
0.0447708700721288,19.6882392513933
0.0503725705828311,19.6892742473711
0.056692396155364,19.690279831024
0.0638363001447459,19.6912592948176
0.0719351448755163,19.6922165888534
0.0811481021791915,19.6931558663966
0.0916718168313827,19.6940816597423
0.103754255057272,19.6949991430251
0.117714861398496,19.6959144295111
0.133975583661473,19.6968350085633
0.153116913515098,19.697770723208
0.175855373247278,19.6987305609081
0.202170792420997,19.6996926815409
0.232732459861433,19.7006665332127
0.268432791387065,19.7016657718878
0.310609170827439,19.7027140046517
0.348917698192833,19.7035838428653
0.389384557838071,19.7044536810789
0.42471322889317,19.7052004071356
0.455329649938256,19.7058638241515
0.482143436394113,19.7064857103299
0.505336726593336,19.7070928501056
0.52460875708549,19.707707983464
0.539145299737908,19.7083577895971
0.547172761315689,19.7090859129154
0.545244519058563,19.7098712915079
0.531549273245992,19.7106823062464
0.504639616288554,19.7115368638078
0.46254288092174,19.7124484457822
0.403384185077107,19.713420097594
0.355840665826416,19.7140756816656
0.303089239626278,19.7147312657372
0.256600236317965,19.7152733805691
0.217234244582856,19.7157209595638
0.182919727405033,19.7161117565021
0.152326762114958,19.716467848608
0.124678358587517,19.716802382706
0.0994572750598037,19.7171245919669
0.0762555084238949,19.7174424381248
0.0546656292999959,19.7177649270211
0.0340879122778375,19.7181070052823
0.0127622337886324,19.7185150929965
0.000927839824972327,19.7187763103151
-0.00655111220157968,19.7189592961896
-0.0133910292636265,19.7191422820642
-0.0193458812837354,19.7193167806928
-0.0254347112321503,19.7195136414678
-0.0313937563342069,19.7197294935679
-0.0370286032460351,19.7199615547052
-0.0422292770668971,19.7202086417189
-0.0469369133976804,19.7204706323502
-0.0511232871682349,19.720748139238
-0.0547788691402936,19.7210423461125
-0.0578986042782038,19.7213549422713
-0.0604856950542814,19.7216884630243
-0.0625329836337166,19.722041836839
-0.0640831900451009,19.7224215685348
-0.0651510549678185,19.7228318232464
-0.0657494540297576,19.7232777358721
-0.0658880189932977,19.7237657785092
-0.0655711741773465,19.7243042675508
-0.0647940574163829,19.7249050389265
-0.0635374248300848,19.7255842232335
-0.0617605684359254,19.7263648911151
-0.0593804572839581,19.7272847609489
-0.0562051351028678,19.7284195117176
-0.0520512995522498,19.7298447760507
-0.048001147329453,19.7312194243112
-0.0441156565651001,19.7325522325637
-0.0404270633168162,19.7338463020165
-0.0369521677102011,19.7351028499194
-0.0336993273779989,19.7363221423271
-0.0306714223434973,19.7375039809389
-0.0278673373918653,19.7386479597899
-0.0252828660092976,19.7397535993314
-0.0229113738757869,19.7408204128165
-0.0207443516970078,19.7418479332821
-0.0187719044233925,19.7428357161417
-0.0169831912387329,19.7437833256172
-0.0153668185525052,19.7446903095284
-0.0138101244010772,19.7456182526012
-0.0123147385164476,19.7465701937855
-0.0108847102251428,19.7475480448756
-0.00952389665955746,19.7485540542151
-0.00823593509313862,19.7495908720242
-0.00702419168558396,19.7506616515899
-0.00589170792470443,19.7517701837635
-0.0048411445991069,19.7529210797317
-0.00387472294739302,19.7541200255952
-0.00299416205770018,19.7553741474317
-0.00220061058954823,19.7566925533098
-0.00149456905244406,19.7580871727819
-0.000875795264183756,19.7595741274636
-0.000343177750482135,19.7611761253999
8.22532269791868e-05,19.7628231726841
0.000415447630721769,19.7645253523777
0.000671760690668134,19.7663013437077
0.00086542684851281,19.768175201369
0.00100998667954852,19.7701798497733
0.00111880220075986,19.7723635810384
0.00120591606984662,19.7748044400553
0.00128801229721804,19.7776494986697
0.00139162944428338,19.781274233691
0.00151667610044578,19.7850703748604
0.00168228333546369,19.7893190472473
0.00189844544504945,19.7941865720202
0.00212695649960293,19.7989590165405
0.00233170386879817,19.8030965019211
0.00252638317214958,19.8069855513952
0.00271720784925284,19.8107786904306
0.00290807196638928,19.814554737295
0.00310214573724282,19.8183653038854
0.00330236527287549,19.8222500904384
0.0035115999919372,19.8262426498065
0.00373278168525017,19.8303739185981
0.00396901329026081,19.834674392553
0.0042236853673617,19.8391755234744
0.00450066346022878,19.8439110641518
0.00480461103498382,19.8489184626468
0.00514152381545583,19.8542400151699
0.00549669053882549,19.8595841916633
0.00586482593881429,19.8648321904141
0.00624984792954896,19.8700016133954
0.00665434267519137,19.8750830243339
0.00708265317769449,19.8800854226394
0.00753939806296248,19.8850152044394
0.00802972534055917,19.8898787863674
0.00855914250455783,19.8946798629604
0.0091336331793738,19.8994199911072
0.00975973694530123,19.9040987493757
0.0104446835998844,19.9087144294731
0.0112116940001789,19.9133518951854
0.0120762976158041,19.9180138802417
0.0130592289697959,19.9227125948967
0.0141894895460137,19.9274755639106
0.015513287783558,19.9323676389743
0.0171220931866693,19.9375561332891
0.019298858798438,19.9436452731806
0.0210574896613601,19.9480548507882
0.0229191857273225,19.9524644283957
0.0244879962451138,19.9561575824379
0.0257958518730233,19.9593939610947
0.0268926146824745,19.9624262557229
0.0277689314724979,19.9653662364344
0.0283756113954197,19.9681687481288
0.0287138456424257,19.9709522495209
0.0287578856842719,19.9738635850114
0.0284137310975121,19.9771927759018
0.027392642839608,19.981502782598
0.0264964130799584,19.9841446472009
0.0254408943839978,19.9867865118038
0.0243708588787557,19.9892005392811
0.0232988831798016,19.9914718441364
0.0222256894943181,19.9936634346833
0.0211541660690957,19.9958108598627
0.02010362115062,19.9979054299313
0.0190589773897206,20
