ecg,time
0.00288542299930502,15.0017840757932
0.003038830386236,15.0055285198698
0.00320775624810894,15.0093414223346
0.00338988666453315,15.0132561834979
0.00358433680006012,15.0173034169403
0.00379161336848398,15.0215130943503
0.00401344728882761,15.0259160784662
0.00425261851851142,15.0305453583048
0.00451289454518655,15.0354374884751
0.00479918634401063,15.0406339775487
0.00511804680990359,15.0461826811951
0.00544272199933985,15.051554270667
0.00578278490315405,15.0568750165914
0.00613755170983827,15.0620876232239
0.00651143001618098,15.0672137512203
0.00690809618116596,15.0722586297711
0.00733195244783847,15.0772326442502
0.00778752762399824,15.082142020206
0.00827971928832286,15.0869911149156
0.00881382774507827,15.0917818915575
0.00939569212157591,15.0965145447858
0.0100318118909642,15.1011879299703
0.0107317553676875,15.1058144426263
0.0115201511275999,15.1104779984662
0.0124120188634244,15.1151705354391
0.0134303558343737,15.1199110834148
0.0146080697952854,15.124736776285
0.0160011342267768,15.1297367713806
0.0177334869451465,15.1351574681622
0.0201492201088784,15.1417206575611
0.0217513903207854,15.1456848902702
0.0234071313636313,15.1496491229792
0.0248511690074638,15.1531590838069
0.0260681184456004,15.156333983857
0.0270796872178039,15.1593632343467
0.0278502928126596,15.1622760513289
0.0283545236633081,15.1650915895021
0.0285855516337969,15.1679342741825
0.0285015906205312,15.1709803044019
0.0279445352392797,15.1746838594672
0.0271275787218921,15.1777974688561
0.0260477353637793,15.1809110782451
0.0249642020855299,15.1835690520086
0.0238901921834619,15.1859735049392
0.022816120714552,15.1882512304714
0.0217420031128007,15.1904599587851
0.0206709362694347,15.1926316007686
0.0196066100730504,15.1947869467752
0.0185526583444798,15.196941029563
0.017512484694979,15.1991055451221
0.0164892173061232,15.2012901362684
0.0154857058140006,15.2035031465055
0.0145045302736802,15.2057521035804
0.0135480108882879,15.2080440587354
0.0126182229841868,15.2103858276733
0.0117170037385147,15.2127841992482
0.0108459625187504,15.2152461072745
0.0100064955414672,15.2177787749961
0.00919978844130325,15.2203898915891
0.00842652081245035,15.2230888885667
0.0076663028701657,15.2259689099282
0.00692305345570796,15.2290503299116
0.00620059387062277,15.2323578904812
0.00550295896838433,15.2359201865801
0.00483436050124938,15.2397703909917
0.00419911624202233,15.2439472339968
0.003601535594378,15.2484964321965
0.00304574255597879,15.2534730703842
0.00253541802688687,15.2589460865652
0.00207357435695271,15.265005743902
0.00166253609897839,15.2717741131023
0.00141490972974056,15.2768252171796
0.00121811563399768,15.2818763212569
0.00102233734203324,15.2885465733688
0.000847825258285553,15.296658670194
0.000714691717590926,15.3054745296574
0.000617354117745441,15.3154745296574
0.000564271263584319,15.3254745296574
0.000545761244805929,15.3354745296574
0.000555692305726791,15.3454745296574
0.000591055368946132,15.3554745296574
0.000646433072252539,15.3647066563084
0.000718750894921609,15.3732008401174
0.000807032218100178,15.3810189717472
0.000911534496501656,15.3882186781187
0.00103330045270511,15.3948526530948
0.00117394512529937,15.4009692433028
0.00133556416163349,15.4066129548467
0.001520704208263,15.4118248666391
0.00173237026128623,15.4166429812303
0.00197405911496845,15.4211025401404
0.00224981805846751,15.4252363187076
0.00256432884786831,15.4290749097889
0.00292302424968377,15.432647011689
0.00333224928957416,15.4359797433423
0.00379948771623311,15.4390990136778
0.00433369231933968,15.4420299860497
0.00494578679130878,15.4447977194321
0.00564947008282836,15.4474281267861
0.00643566858811989,15.4498730826831
0.00732058705730252,15.4521832619543
0.00833251193723068,15.4544191361186
0.00952871148194121,15.4566715139835
0.0110780117313344,15.4591658442668
0.0124351848331968,15.4610947365651
0.0139060650052369,15.4630236288635
0.0152268601041845,15.4646881882203
0.0163725146054932,15.4661390580798
0.0173878658852728,15.4674870532808
0.0182816283479839,15.4687919728727
0.0190439024471634,15.4700971936301
0.0196509866588524,15.471448168262
0.0200590923728151,15.4729118680465
0.0201730971899378,15.4746357311885
0.0196185971336291,15.4771973255033
0.0188552353769926,15.4788478835915
0.0178470013912511,15.4804984416797
0.0167399313171067,15.482044886837
0.0155376623697768,15.4835817315956
0.014248812314796,15.4851552436951
0.0135183452888364,15.4860340450951
0.0127960678070866,15.486912846495
0.0120596686010443,15.4878450048256
0.010126889850776,15.490512790793
0.0084420962573868,15.4931775660967
0.00705640766279028,15.4956967733768
0.00583842766146044,15.4982448891152
0.00475986075540984,15.5008547683482
0.00380161962961115,15.5035507246979
0.00294820674086574,15.5063564925636
0.00218632674306052,15.5092971138762
0.00155517684433907,15.5121495802752
0.00103955852891909,15.5148452822848
0.000608385892384067,15.5174170183466
0.000239431425006713,15.5198962702162
-8.30036146956869e-05,15.5223095031334
-0.000370653915413742,15.5246823578575
-0.000633917448501679,15.5270533276224
-0.000885244428569408,15.529505176283
-0.00114957714741081,15.5322868554669
-0.0013468471242321,15.5344962928001
-0.00153511809866054,15.5367057301332
-0.00169001430439584,15.5385920947519
-0.0018252466168709,15.5402854819647
-0.00195391038812615,15.5419336068453
-0.00208436521378209,15.5436387360068
-0.0022261625328755,15.5455286031557
-0.00239996716183955,15.5478953778755
-0.00271433519972907,15.5523295542179
-0.0029823601601677,15.5563369389341
-0.00319368907195939,15.5597612535134
-0.00339453754638257,15.5634455593295
-0.003566996252059,15.5673964285196
-0.00367467675782963,15.5711003757272
-0.00371637811598257,15.574700966238
-0.00368220352533995,15.5784173394795
-0.00353385176319382,15.5826585348899
-0.00327317122402094,15.5866723930952
-0.00292250282675173,15.5903243384088
-0.0024950347596771,15.5936628860282
-0.00199528291320717,15.5967498995864
-0.00142172238287269,15.5996387209458
-0.00076281859942668,15.6023979950684
1.42232479869533e-05,15.6051409155695
0.000993902788733096,15.6080852318892
0.00219377733165464,15.6112113115773
0.00356936008651732,15.6144297537673
0.00486615186601689,15.6172670662168
0.0060274204997573,15.6196921091867
0.00725408975177399,15.6221171521566
0.00844330570639351,15.6242982912742
0.00955522362432524,15.6261577031227
0.0107495419230982,15.6279533965658
0.0120249823205739,15.6296526740202
0.0134411407001389,15.6313066788539
0.0150097641580183,15.6328992130556
0.0167667096254317,15.6344414132076
0.0187287808949965,15.6359253215317
0.0209247212730203,15.6373538036131
0.0233820187608877,15.6387276188392
0.0261282407483825,15.6400470412526
0.0292006966545372,15.6413159873346
0.0326394721278141,15.6425373865989
0.0364906609124593,15.6437143773743
0.0408095555224458,15.6448507245991
0.0456601329011273,15.6459500212156
0.0511176746760552,15.6470159109049
0.0572725002531882,15.6480522914152
0.0642328601221675,15.6490631701824
0.0721304358271614,15.6500528236321
0.0811284856378472,15.6510260139302
0.0914328034042533,15.6519881609226
0.103309282588904,15.6529457110475
0.117112509866488,15.6539067337291
0.133335882601,15.6548819859005
0.152709319463682,15.6558870624403
0.175186164256186,15.6568959377919
0.201323698899393,15.6579173438907
0.231925357103799,15.6589666576984
0.268170773539507,15.6600682548846
0.31003457878033,15.6612152889098
0.350398010635405,15.6622465795217
0.384367839679372,15.663093194923
0.413807787552644,15.6638394837662
0.439570001057562,15.6645317030111
0.461812622344569,15.6651973242056
0.480302558145304,15.6658579123554
0.494423554312018,15.66653515859
0.502974964605159,15.6672567980681
0.503520855334171,15.6680689128102
0.493404830414595,15.6689014426606
0.471430617944282,15.6697592884134
0.436123368519739,15.6706545308921
0.385807087642673,15.6715963760376
0.342797268116713,15.6722602453246
0.294423425379954,15.6729241146115
0.251059578447625,15.6734769592213
0.213892959462087,15.673935586154
0.181234004538611,15.6743369865689
0.15196205527024,15.6747029632352
0.125410928495132,15.6750466043537
0.101131648677521,15.6753770932639
0.0787689219438196,15.6757022165564
0.0579739252165479,15.6760304285502
0.0382632964498113,15.6763747197532
0.0184333451897506,15.6767692397453
0.0100549599913241,15.6769564019595
0.00232235198385439,15.6771435641738
-0.00581785114954705,15.6773593723908
-0.0123794509153313,15.6775510386273
-0.0182404552448964,15.6777391998681
-0.0241516703101336,15.6779495875708
-0.029865292450653,15.6781784862124
-0.0352205253611629,15.6784235389304
-0.0401284511806793,15.6786838832025
-0.0445428848918233,15.6789596383036
-0.0484357791268755,15.6792516178934
-0.0517817509918247,15.6795598939194
-0.0545905968314051,15.6798858763719
-0.0568907479284991,15.6802334421318
-0.0586953234872919,15.6806055359785
-0.0600183093583926,15.6810057584438
-0.0608731661993724,15.681438550377
-0.0612713441070564,15.6819094366252
-0.0612206806411982,15.6824253896527
-0.0607233509278774,15.6829954399789
-0.0597703882790318,15.6836330269681
-0.0583387468045021,15.6843554036329
-0.0563815208274277,15.6851883661067
-0.0538026189138614,15.686175476551
-0.0503670214140892,15.687410601854
-0.0463805031484922,15.6888044308779
-0.0425268621132323,15.6901506508727
-0.0388555929782393,15.6914545877729
-0.0353902962210793,15.6927189466863
-0.0321426165038103,15.6939448256721
-0.029117205630177,15.6951325022245
-0.0263139931355696,15.6962818503709
-0.0237294345096458,15.6973925598962
-0.0213573366681857,15.6984642493398
-0.0191894918551778,15.6994965194286
-0.0172162103709422,15.7004889712344
-0.0154267858010724,15.7014412021097
-0.0138099039405763,15.7023527865258
-0.0122642929881278,15.703278640079
-0.0107796663462087,15.7042283497707
-0.00936020793612898,15.7052037455811
-0.00800981648071177,15.7062070442644
-0.00673217856648089,15.7072408548904
-0.00553071805886808,15.7083082778872
-0.00440854419121777,15.709413035741
-0.0033683975283733,15.7105596501719
-0.00241259370520214,15.7117536882332
-0.0015429644065425,15.713002114085
-0.000760794322531794,15.7143138092906
-6.67515329833058e-05,15.7157003749333
0.000539193675313032,15.7171774335501
0.00105787171351482,15.7187668863267
0.00147127038314876,15.7204097980034
0.00179077197783542,15.7221058827136
0.00203181209455347,15.7238736978377
0.00220856060892885,15.7257366232274
0.00233441434556442,15.7277264759897
0.00242246269172885,15.7298895515145
0.00248622830453397,15.7322998010087
0.00254126057406755,15.7350938597939
0.00261053925425137,15.738605436787
0.0027028257895804,15.7423323908165
0.00281991575744294,15.7460498279243
0.00296095888140997,15.7498028593811
0.00312255452395786,15.7536297693989
0.00330127385224636,15.7575633568636
0.00349483025251286,15.761634078728
0.00370246302369017,15.7658719504729
0.00392493758785992,15.7703080936604
0.00416440346828826,15.7749759886476
0.00442429727034269,15.779912940757
0.00470942743087873,15.785161403371
0.00502605151381203,15.7907642531282
0.00534606716583464,15.7961581731471
0.00568105122052885,15.8015052010965
0.00602985804841544,15.8067383306015
0.00639714252947281,15.8118841753136
0.00678645404439893,15.816947489734
0.00720209733613545,15.8219393255753
0.00764844309217549,15.8268660701602
0.00813020905629594,15.8317322769373
0.00865249423033901,15.8365400999721
0.0092209201929388,15.8412899600843
0.00984175016316711,15.8459809196207
0.0105220256844347,15.8506112300729
0.0112847187307196,15.8552659965262
0.0121459117031135,15.8599490385995
0.0131264969845038,15.8646737660362
0.0142557596308294,15.8694699056115
0.0155810241306901,15.8744069183006
0.0171978381354819,15.8796653534961
0.0194160578584145,15.8859244895019
0.021126312774827,15.8902641999636
0.0229268996556223,15.8946039104253
0.0244575440967272,15.8982876009491
0.0257366085597546,15.9015376803624
0.0268069005316993,15.9045934358889
0.0276549305402995,15.9075564995427
0.0282345255227438,15.9103882633947
0.0285452169518867,15.9132091858295
0.0285583307662095,15.916172504042
0.0281699360063336,15.9195955867749
0.0273872530115997,15.9229967638988
0.0262714635825114,15.9263979410227
0.025174948950762,15.9291577915464
0.0240993372553886,15.9316011812101
0.0230253231002744,15.9338984914856
0.021950904967188,15.9361180924414
0.0208788239837632,15.9382954398643
0.0198127278217175,15.9404529647281
0.0187562815118632,15.9426066033665
0.017712938868871,15.9447685977262
0.0166858821974973,15.946948937849
0.0156780150897033,15.9491561922546
0.0146919682023713,15.9513980373694
0.0137301113324555,15.9536816151038
0.0127945665441853,15.9560137925514
0.0118872146962418,15.9584013807219
0.0110097109958646,15.9608512979735
0.0101634898459948,15.9633707443946
0.00934977912660688,15.9659673466898
0.00856960579611542,15.9686493344212
0.00780648612817998,15.9714930055959
0.0070595416290628,15.9745339579768
0.00633261319394806,15.9777960316373
0.00562969400031862,15.9813070307658
0.00495496116058053,15.9850991910266
0.00431271341275597,15.9892100946741
0.0037072670918672,15.9936839796718
0.00314279227462849,15.9985738694239
0.00262306623122348,16.0039455496958
0.00215122511765582,16.0098844319334
0.00172968753978501,16.0165055372731
0.00145238883419354,16.0219133168161
0.00123398574456601,16.027321096359
0.00100454996171368,16.035064651612
0.000842374927046843,16.0426633976593
0.00070500874777065,16.0516945240461
0.000606913359468217,16.0616945240461
0.00055249141860927,16.0716945240461
0.000531998810941962,16.0816945240461
0.000539154673935733,16.0916945240461
0.000570709142924516,16.1016945240461
0.000622281172064468,16.1110742060608
0.00069040244624895,16.119711264145
0.000773921644898869,16.1276620701228
0.000872971722803785,16.1349845647712
0.000988482576433806,16.1417319199238
0.00112195260030148,16.1479529118255
0.00127534865978834,16.1536924289443
0.00145107087369025,16.1589918903267
0.0016519549991461,16.1638895962274
0.00188129986017627,16.1684210395988
0.00214291840026636,16.1726191936108
0.00244121075652425,16.1765147845411
0.00278126582846935,16.180136561493
0.00316899916390998,16.1835115825288
0.00361134396938531,16.1866655386281
0.00411652340292102,16.189623144014
0.0046944525887524,16.1924086485631
0.00535736529215246,16.1950465771362
0.0061053397324786,16.1975161657256
0.00694228361657666,16.1998271940111
0.00788848468178331,16.2020309889001
0.00898056465023805,16.2041927791166
0.0103009530745203,16.2064272012046
0.0121825837180994,16.2091456040136
0.0134943378297029,16.2108386510711
0.0148817799238481,16.2125316981287
0.016143874425248,16.2140435664662
0.0172597033857096,16.2154113639561
0.0182503709616645,16.2167091363844
0.0191147053734819,16.2179851799106
0.0198365247399801,16.2192814772068
0.0203841114133574,16.2206495691116
0.0206964983493975,16.2221794875852
0.0206092884288405,16.224134851186
0.0200341662807144,16.2260206221769
0.0190546673372631,16.2279063931678
0.0179898302312801,16.2294960790085
0.0168301145144522,16.2310164390947
0.0155743305032897,16.232548864562
0.0142310329170094,16.2341338749412
0.013796521948103,16.2346429158603
0.0133656301217819,16.2351519567795
0.0126756493194341,16.2359917817346
0.0106420272893391,16.2386843615541
0.00885401661683842,16.2414004164154
0.00739628575439444,16.2439512227589
0.0061390589674205,16.2464851936387
0.00502874525272401,16.2490730376515
0.00404411328840972,16.2517407682039
0.00316877162873603,16.2545120135076
0.00238888545649511,16.2574112740185
0.00171460870802596,16.2603591829892
0.00116891371654531,16.2631418713843
0.000716874681966331,16.2657920828833
0.000333194002040179,16.2683447028995
5.9330106700057e-07,16.270826012033
-0.000293011490176915,16.2732549653549
-0.000557488800961382,16.2756559120476
-0.000803404165832808,16.2780827892529
-0.00104664875010146,16.2806741172063
-0.0013398334891019,16.2840468980189
-0.00149704605302565,16.2859622592603
-0.00164895434845472,16.2878776205016
-0.00178393648492995,16.289628235194
-0.00190966275250867,16.2912961172243
-0.00203463690638342,16.2929863659158
-0.00216714441142088,16.2948107206895
-0.00232148309758507,16.2969748034874
-0.00255675132971139,16.3003552134795
-0.00279570604385057,16.3039129074935
-0.00298938950851203,16.3069364850871
-0.00317435472705616,16.3100214582953
-0.00336705408297037,16.3136185107944
-0.00354075667567075,16.3176329185607
-0.00364901943661227,16.3213706323382
-0.00369092680851906,16.3249731446172
-0.00365762583209375,16.3286521839712
-0.00351549235126364,16.3327601351468
-0.0032555740493981,16.336775056305
-0.00290547121595194,16.3403994021961
-0.00247444307817997,16.3437308662182
-0.00196855700762199,16.3468146812405
-0.00138656641634887,16.3497034919669
-0.00071629817556491,16.3524681498112
7.47830604338297e-05,16.3552187780435
0.00107134109108208,16.3581703873687
0.00228911016573555,16.361298798098
0.00367626239303796,16.3644970610187
0.00506034475669794,16.3674667885548
0.00625090499567795,16.3698866183576
0.00751708071974469,16.3723064481605
0.00866839302536828,16.3743365271243
0.00984282903774454,16.3762189917517
0.0110691288080024,16.3779788358184
0.0123993623705582,16.3796670826702
0.0138714547891905,16.3813022847716
0.015504040376093,16.3828775869097
0.0173301525305348,16.3844006840285
0.0193695239233703,16.3858663991133
0.0216496856720739,16.3872763043363
0.0242004344826458,16.3886323200613
0.027051210941536,16.3899351743179
0.0302406399481723,16.3911886038011
0.0338112750934119,16.3923957522781
0.0378116060661698,16.3935597462324
0.0422999792594894,16.3946843610093
0.0473441166353354,16.395773219914
0.0530238893043159,16.3968300012272
0.0594353671113613,16.3978586496374
0.0666943371740766,16.3988632794566
0.0749425530437285,16.3998483404091
0.0843564980668013,16.4008187966485
0.0951610799448585,16.4017804427525
0.107650078224014,16.4027402850135
0.122221367045964,16.4037073048442
0.13944051141623,16.4046938338368
0.159829590415757,16.4057027658911
0.183473515517318,16.4067171975259
0.211032826409037,16.407749514161
0.243422670272997,16.4088178597474
0.282069165680772,16.4099532686371
0.325138298807272,16.4111053183753
0.362523011035519,16.4120539000764
0.394395641482697,16.4128565158433
0.422232320094617,16.4135808637551
0.446523948818416,16.4142629940444
0.467252970172692,16.414926968137
0.484045169943893,16.4155936663242
0.496099834380436,16.4162860374524
0.501877710942915,16.4170361215701
0.498524598871014,16.4178625270778
0.484099033715796,16.4187042007885
0.45734549698829,16.419575548232
0.416711946543302,16.4204871295506
0.360495789298509,16.4214488174719
0.319613792243021,16.422042641005
0.274901749752175,16.4226364645381
0.234691381493768,16.4231426353763
0.199685194641339,16.4235746542912
0.16860654813086,16.423960124394
0.140586425790071,16.4243162158119
0.115074365724258,16.4246539966361
0.0916743434214836,16.4249818312895
0.0700474599500351,16.4253074862601
0.0498187924671661,16.4256405170758
0.0303562261257473,16.4259985134363
0.00933413136434134,16.4264480597078
0.000635686303995973,16.426662109411
-0.00725507225805505,16.4268761591143
-0.0136079408357047,16.4270660089585
-0.0194985965134046,16.4272597849285
-0.0253760281850359,16.4274748487341
-0.0310137118990594,16.4277077888742
-0.0362696942652156,16.4279566210059
-0.0410662566224985,16.428220723961
-0.0453638596220198,16.4285003823601
-0.0494169926269564,16.4288213280279
-0.0525880101881001,16.4291344408726
-0.0552393004129842,16.4294670732459
-0.0573862747495638,16.4298221286077
-0.0590423450864854,16.4302027231924
-0.0602214506784052,16.4306126858841
-0.060936569585597,16.431056747542
-0.0611982260134055,16.4315408138441
-0.0610128132576205,16.4320723757914
-0.0603797571130515,16.4326616371406
-0.059286446365118,16.4333229065145
-0.0577043349369818,16.4340754095352
-0.0555761415761441,16.4349487062018
-0.052781048197315,16.4359953807821
-0.048990532027788,16.4373432861426
-0.0450443541717444,16.4387201387708
-0.0412506614289059,16.4400516598799
-0.0376489235611304,16.4413419196587
-0.0342580001674823,16.4425930059053
-0.0310868582136044,16.4438057062829
-0.0281383814049246,16.4449801474215
-0.0254112087950932,16.44611613582
-0.0229008092215219,16.447213336645
-0.0206002310261673,16.4482713643656
-0.0185006981364734,16.4492898231257
-0.0165921190579948,16.4502683167886
-0.0148635329083486,16.4512064394548
-0.0132804930602518,16.4521173975014
-0.011755058369231,16.453051486179
-0.010292162767577,16.454009991697
-0.00889581212297423,16.4549949207751
-0.00756983617950448,16.4560086180091
-0.00631783409882365,16.4570538524241
-0.00514312399471619,16.4581339259655
-0.00404869020143468,16.4592528185611
-0.00303712839336361,16.4604153863627
-0.0021105883052457,16.4616276397364
-0.00127071328635516,16.4628971451277
-0.000518575014596261,16.4642336275801
0.000145399931194398,16.465649915293
0.000721518156808998,16.4671635055838
0.00120632972089059,16.4687817669034
0.00158581336568645,16.4704412159963
0.00187709055451517,16.4721602375417
0.00209502659418121,16.4739584707016
0.00225349137375747,16.4758618066357
0.00236573191691766,16.477906229658
0.00244491114907975,16.4801456377997
0.00250504882363287,16.4826699044227
0.00256334397955669,16.4856579766248
0.00264419825468335,16.4893930578019
0.00274708543714289,16.4931085034597
0.00287548650379917,16.4968449620775
0.00302736015157026,16.5006434675686
0.00319909136896649,16.50453817388
0.00338753287407634,16.5085600342656
0.00359089616638236,16.5127390350415
0.00380899209139351,16.51710573024
0.00404317688927999,16.521692641025
0.00429622925256093,16.5265356000699
0.00457233847842519,16.531675177161
0.00487736110308993,16.5371580009673
0.00519594772624706,16.5426379298375
0.0055248636695271,16.5480116739401
0.00586751710226954,16.5532910419936
0.00622665039888586,16.558472912155
0.00660621468704966,16.5635699088256
0.00701024922365905,16.5685914823605
0.00744306362242092,16.5735457246223
0.00790920697260231,16.578437947202
0.00841358344361437,16.5832711749905
0.00896156348214657,16.5880464807189
0.00955910969141538,16.5927634327158
0.0102129026861124,16.5974205385628
0.0109374180094349,16.6020580716387
0.0117537441605938,16.6067287819119
0.0126792498776485,16.6114328382462
0.0137393839861766,16.616192516808
0.0149717135194509,16.6210553665655
0.016444068095126,16.6261378901415
0.0183257996993686,16.6317921028181
0.0207465639560608,16.6381564920522
0.0222919698099701,16.6419170836599
0.0238643994438751,16.6456776752676
0.025232987398024,16.6490555144136
0.0263871149923084,16.6521695536492
0.027335723923248,16.6551830058956
0.0280243795255584,16.6580541848321
0.0284468125122161,16.6608638558029
0.0285883251891649,16.6637453225029
0.02838776059689,16.6669150793071
0.0275675876487067,16.6711393830162
0.0267053737415221,16.6739840555468
0.0256443039522858,16.6768287280773
0.0245693388220594,16.6793653844104
0.0234958857271381,16.6817143833548
0.0224214438302111,16.6839626884638
0.0213478794088486,16.6861553737125
0.0202786531534011,16.6883193692625
0.0192174715104765,16.6904730022345
0.0181678944084235,16.692629915369
0.0171332271547175,16.6948009639127
0.0161164962357616,16.6969952644595
0.0151204510725148,16.6992208350606
0.0141475764025697,16.701485011831
0.0132001010765694,16.7037947547989
0.0122800112600618,16.7061568723201
0.01138906200347,16.7085782057727
0.0105287812163337,16.7110658120434
0.00970048841369301,16.713627096417
0.00890529624664574,16.7162699952188
0.00813616333661031,16.7190329134689
0.00738144900384236,16.7219839994897
0.00664503680497813,16.7251451260872
0.00593082386154986,16.7285423591257
0.00524290547366987,16.7322058741369
0.00458553201804652,16.7361707333101
0.00396302146384531,16.740477996508
0.00337962102412939,16.7451764253925
0.00283930840458601,16.7503253642591
0.00234550277868062,16.7560003810981
0.00190090108683209,16.7623017567654
0.00151287395446347,16.7692574641741
0.00120049202629168,16.7767590970005
0.000963744062787068,16.7849688212524
0.000809122503353555,16.7924723920065
0.000674528205283925,16.8015867856211
0.000578808019180781,16.8115867856211
0.000524704173706824,16.8215867856211
0.000502712718966072,16.8315867856211
0.00050658022279602,16.8415867856211
0.000532867755107238,16.8515867856211
0.000579077228287864,16.8612850933133
0.000641248198746179,16.8702284573876
0.000717981736055371,16.8784618625647
0.000809243146070699,16.8860445307584
0.000915816617570525,16.8930311981503
0.00103905073340991,16.8994720386673
0.00118074510236593,16.9054131881461
0.00134310782769203,16.910897186503
0.00152875193727298,16.9159633426324
0.00174071654076738,16.9206480509394
0.00198250873113196,16.9249850781636
0.00225816510006011,16.9290058320466
0.00257233649651408,16.9327396191913
0.0029304009569863,16.9362139075581
0.00333861800715583,16.9394546113991
0.00380434193926865,16.9424864187799
0.00433632756198434,16.9453331954124
0.00494518817646597,16.9480185295545
0.00564411875077391,16.9505665377044
0.00642312230647894,16.9529284472337
0.0072957728378919,16.9551486373916
0.00828539819245138,16.9572788069047
0.0094353227929223,16.9593879794015
0.0108508685536267,16.9616114390824
0.0129375765311044,16.9644128611788
0.0142480570031353,16.9659981426256
0.0156157211233964,16.9675834240724
0.016854826207362,16.9690119841794
0.0179566134907935,16.9703284957172
0.0189330883925681,16.9715937022434
0.0197777254732882,16.9728514383593
0.0204696301643814,16.9741445779715
0.0209695980978881,16.9755321101155
0.0211970851804531,16.977132501086
0.0208610779827903,16.9794282473488
0.0201688906458482,16.9811016575355
0.0191764240774763,16.9827750677222
0.0180744101157574,16.9843036632115
0.0168667862157051,16.9858084113658
0.015561239670331,16.9873436493732
0.0141670051252546,16.9889456002079
0.012728234001545,16.9906507905414
0.011391068597623,16.9923668681939
0.00952208412729185,16.9950456904777
0.00794349797463159,16.9976494507942
0.00661870311829634,17.0001675998793
0.00545307106328612,17.0027266181397
0.00442154272462304,17.0053557029344
0.00350614913102308,17.0080786064221
0.00269208354016872,17.0109192157338
0.00196652942431154,17.0139032264277
0.0013692127975422,17.0167899046202
0.000880887234681351,17.0195279593819
0.000471253290673901,17.0221561688468
0.000120031282370044,17.0247025683371
-0.000185849756153261,17.0271788512595
-0.000455712600984512,17.0295898370487
-0.000698268673759335,17.0319544445277
-0.000923326978600258,17.0343245198197
-0.00114460213773231,17.0368221593999
-0.00139904442047893,17.0398926709951
-0.00155280543308073,17.0418439595225
-0.00170171604534287,17.04379524805
-0.00183299583738335,17.0455603688583
-0.0019532221777615,17.0472095003168
-0.00207120580161566,17.0488547564643
-0.00219445210838303,17.0505988430619
-0.00233410436321981,17.0526038461834
-0.00252371326565005,17.0553736991416
-0.00278513925837466,17.0592983695739
-0.00299276745471228,17.0625497051805
-0.00317749150137419,17.0656168786641
-0.00336766536936536,17.0690940287854
-0.00355401501605628,17.0731995665531
-0.00367499151733684,17.0769983628717
-0.00373003851413448,17.0806149784078
-0.00371300987208016,17.0842580222469
-0.00359795837192351,17.0882230292479
-0.00336085022277698,17.0922943281396
-0.00302904714992369,17.095981895954
-0.00261326043493881,17.0993734939015
-0.00212210688506876,17.1025033844475
-0.00155829825195001,17.1054123306299
-0.000913351484960734,17.1081672124328
-0.000162021025233096,17.1108650384608
0.000761769091251479,17.113684400874
0.00192026540777167,17.1167324603704
0.00327961836733901,17.1199075513792
0.00459832683485967,17.1227569850158
0.0062477481962052,17.1261126983301
0.00732675227183795,17.1281743189031
0.00848365478521114,17.1302359394761
0.00964420890269386,17.1321254681753
0.0108560320883421,17.1338992909363
0.0121590625240265,17.1355911374072
0.0136011834031079,17.1372336396297
0.0151982514606497,17.1388158366018
0.0169853397233283,17.1403473618276
0.0189789240438149,17.1418200897469
0.0212107907554048,17.1432387559125
0.0237081473529352,17.1446033898589
0.0264987008834571,17.1459140291685
0.0296210196140649,17.1471748119556
0.0331160722156587,17.1483886377142
0.0370307971656366,17.1495585681519
0.041421772160164,17.1506883757108
0.0463544009943753,17.1517816377717
0.0519056420990886,17.1528419794339
0.0581679764090482,17.1538733020791
0.0652523491522732,17.1548796231057
0.0732939193937619,17.1558652437353
0.0824604713909439,17.1568349618553
0.0929639291811326,17.157794259487
0.105078724270924,17.1587496800775
0.119171785391181,17.1597094431203
0.135755818104034,17.1606845763771
0.15555257277682,17.1616892451494
0.178482242309404,17.162696436089
0.2051568426787,17.1637171934245
0.236406046311908,17.1647672809093
0.273460644552048,17.1658720913836
0.315999330562187,17.1670178212017
0.355863172602229,17.1680230445624
0.389461003063287,17.1688530688851
0.418620826775354,17.1695887383633
0.444124511870171,17.1702738326058
0.466093320630434,17.1709349936833
0.484260029544904,17.1715936787762
0.497958131739847,17.1722720889205
0.50588713113887,17.1729995876887
0.505387899002501,17.1738206944479
0.494006577564978,17.1746537958008
0.470568000514968,17.175514495651
0.433547926135948,17.1764144968193
0.381233961547758,17.1773629209164
0.338422959051273,17.1780084299602
0.290656018211369,17.178653939004
0.247850398011464,17.179194356194
0.211045777872938,17.1796457022315
0.178638712788446,17.1800425179112
0.149561251336195,17.1804054165901
0.123169580324545,17.1807469743142
0.0990236870670502,17.1810761630006
0.0767696191739237,17.1814007477843
0.0560508334158236,17.1817294087563
0.0363509600457958,17.1820760652617
0.0162708170923274,17.1824803051283
0.00883636447273648,17.1826483386823
0.00192359482807026,17.1828163722363
-0.00582433299197596,17.1830213523394
-0.012380427697296,17.1832119564037
-0.018247622675796,17.1833993734885
-0.0241700865082754,17.1836090602239
-0.0298975566446177,17.1838372679315
-0.0352677890737522,17.1840816224165
-0.0401909931065339,17.1843412485106
-0.0446204643989123,17.1846162555423
-0.0485288071024795,17.1849074484551
-0.051929091451625,17.1852189245517
-0.0547458277635026,17.1855443425698
-0.057052658044626,17.1858912613738
-0.0588632385482807,17.1862626737506
-0.0601916033944839,17.1866621780759
-0.0610512584372429,17.1870942125288
-0.0614536961401537,17.1875642996882
-0.061406788174821,17.1880794107078
-0.0609127425707984,17.1886485644468
-0.0599625962542485,17.1892852095054
-0.0585332446004716,17.190006608895
-0.0565776215510782,17.1908385861501
-0.0539992238504499,17.19182478322
-0.0505616764686609,17.19305938703
-0.0465677494804841,17.1944541422789
-0.0427060271704845,17.195801362077
-0.0390262713761629,17.1971063875398
-0.0355522802050135,17.198371910106
-0.0322958403571698,17.1995990161563
-0.0292617203482503,17.2007879732003
-0.0264499498099626,17.2019386466946
-0.0238570695218917,17.2030507191463
-0.0214769568053758,17.2041238030792
-0.0193014592202909,17.2051574944968
-0.0173209275420177,17.2061513911127
-0.0155246817126717,17.2071050883866
-0.0139014209445391,17.2080181604899
-0.0123535167580225,17.2089431468805
-0.0108664152274668,17.2098919474812
-0.00944434014439639,17.2108663613896
-0.00809119637815882,17.2118685925987
-0.00681067882295481,17.2129012341873
-0.00560622160911049,17.2139673665565
-0.00448094626076689,17.2150706867431
-0.00343760773491915,17.2162156835776
-0.00247853825491006,17.2174078807514
-0.00160558842462645,17.2186541838693
-0.000820064396596264,17.2199633930684
-0.000122658617832601,17.2213469919972
0.000486630705139262,17.2228204257569
0.00100860127693725,17.224405310506
0.00142594066664557,17.2260466274377
0.00174874233425643,17.227740415224
0.00199252054882719,17.229505187464
0.00217147678138356,17.231364081229
0.00229902359530483,17.2333485194593
0.00238824266875608,17.2355040936808
0.00245260704476335,17.237903330348
0.00250751347190128,17.2406793085736
0.00257536478252435,17.2441521770387
0.00266732099617825,17.2479160615658
0.00278314843147041,17.2516343934897
0.00292187390403572,17.2553609112462
0.00308007609803256,17.2591396029979
0.00325438120589846,17.2630060123334
0.00344255757968327,17.2669916758515
0.00364384260744178,17.2711266204129
0.00385891338058645,17.275441140869
0.00408972481066952,17.2799671314946
0.00433936496253621,17.2847393967584
0.00461206099625,17.2897971209611
0.00491345541004477,17.2951851857232
0.00523460628301402,17.3006739508197
0.00556486681270894,17.3060306115539
0.00590987680192712,17.31130751045
0.0062712846222778,17.3164842875081
0.00665326891796286,17.3215767665555
0.00705982383615731,17.3265930007224
0.00749536264763773,17.3315415306915
0.00796452004092229,17.3364277394837
0.00847230266980377,17.3412548305366
0.00902417812816781,17.3460239282264
0.00962620373089619,17.3507345863273
0.0102851566624922,17.3553852874371
0.0110173924990554,17.3600266019421
0.0118429500179268,17.3646997755648
0.012779997440954,17.3694079725819
0.0138544752977901,17.3741747742602
0.0151058051477808,17.3790517878395
0.016606700444122,17.3841667247231
0.0185474043882437,17.3899201750375
0.0204530532094981,17.3949340519699
0.0220430199041773,17.3988317895638
0.0236729563012067,17.4027295271576
0.0250744241803988,17.4061637656434
0.026255219063375,17.4093019261743
0.0272308538751429,17.412320629005
0.0279545171242392,17.4152081352414
0.0284121482165294,17.418018818741
0.0285925947011082,17.4208815302157
0.0284438796753795,17.4239929776265
0.0277522665696479,17.4279517779419
0.026910633641114,17.4309087889106
0.025843516837834,17.4338657998794
0.0247655350411384,17.436456094544
0.0236919996761584,17.4388306175923
0.0226177297653334,17.4410926181579
0.0215438471502992,17.4432927144887
0.0204736647244409,17.4454601128142
0.0194108881866777,17.4476142874152
0.0183591164866522,17.4497695327668
0.0173217038991495,17.4519371001378
0.0163017279078414,17.4541263516899
0.0153019874911657,17.4563454562055
0.0143250142688637,17.458601836409
0.0133730834151871,17.4609024864349
0.0124482237036322,17.4632542133305
0.0115522320181019,17.4656638201853
0.0106866769147239,17.4681382911462
0.00985291508088675,17.4706849309341
0.00905209533658372,17.4733115383438
0.00828086673089472,17.4760424289822
0.00752337882275809,17.4789578945129
0.00678353231706215,17.4820790567854
0.00606518688910154,17.485431318875
0.0053724113671227,17.4890440499942
0.00470943845727739,17.4929513609062
0.00408058944145741,17.4971931294382
0.00349014741045922,17.5018165613519
0.0029421682783688,17.5068788177438
0.00244020781953499,17.5124520506074
0.00198712372657171,17.5186314029189
0.00158748473129441,17.5254995795845
0.00131794334168975,17.531365829207
0.00111664021917984,17.5372320788295
0.000912586536141487,17.5452917417101
0.00075841024656229,17.5538758291701
0.000645692883319513,17.5630765385192
0.000570402611911322,17.5730765385192
0.000533300328699873,17.5830765385192
0.000526429868322951,17.5930765385192
0.000544991235774062,17.6030765385192
0.000586317298500663,17.6129250298257
0.000645583452271845,17.6220088620503
0.000720607189907635,17.6303685329916
0.000810918972762154,17.6380647991308
0.000917062577332463,17.6451539165913
0.00104025075817544,17.6516873798778
0.00118220644966721,17.6577124830374
0.00134509765415119,17.6632727957736
0.00153152192674643,17.6684085538038
0.00174452142559322,17.6731569940806
0.00198762143458186,17.6775526574997
0.00226489147985967,17.6816276726174
0.00258103113731168,17.6854120285482
0.00294148661470165,17.6889338530973
0.00335261155575573,17.6922197169972
0.00382189136790925,17.6952949885534
0.00435826864271477,17.6981842773919
0.00497263585731508,17.7009120438301
0.00567767872119772,17.703500352344
0.00646456105609975,17.7059042083889
0.00734883371088918,17.7081723665002
0.00835723565031031,17.7103619047947
0.00954239663942722,17.7125554119387
0.0110495121110523,17.7149424122942
0.0124958386240445,17.7169548659946
0.0140770325648274,17.7189673196951
0.0154455007758178,17.7206331277401
0.0166229842806906,17.7220698832015
0.0176664805475574,17.7234013636292
0.0185868810520635,17.7246888070864
0.0193749175964251,17.7259754658123
0.0200072602249628,17.7273061102769
0.0204406677067223,17.7287460334012
0.0205820577387762,17.7304369893045
0.0200656478847611,17.7329474987655
0.0193103502878409,17.7345899922531
0.0182999955861265,17.7362324857408
0.0171869342638863,17.7377673933466
0.0159748489347478,17.7392922468439
0.0146723819700149,17.7408541747798
0.0138822671856057,17.7417868041311
0.0130990803900188,17.7427194334824
0.0124091664987144,17.7435726999851
0.0104092586269088,17.7462656832154
0.00866574060594799,17.7489594026348
0.00724079310305318,17.7514935433334
0.00600090475042965,17.7540326491103
0.00490474674620638,17.7566291527203
0.00393204751323675,17.7593082182836
0.0030667910829443,17.7620934919437
0.00229536865353543,17.7650096855987
0.00163859082294206,17.7679254090803
0.00110543631220612,17.7706780792452
0.000662430516501712,17.7733003330213
0.000285551727901112,17.775824885484
-4.16105328655754e-05,17.7782756122757
-0.000330646568556336,17.7806699160643
-0.000591111779302074,17.7830310045151
-0.000833133167703652,17.7854094050648
-0.00107130481439234,17.7879286614529
-0.00134834145891299,17.7910789525802
-0.00150938941587856,17.7930135788314
-0.0016649469425498,17.7949482050827
-0.00180202873691447,17.7967020977581
-0.00192802511881873,17.798350874643
-0.00205194804823318,17.8000036887486
-0.0021817252501136,17.8017649855355
-0.00232959085705262,17.8038073640169
-0.00253533355931202,17.8067121124927
-0.00279073802486809,17.8104388167858
-0.00299413351117198,17.8135488589259
-0.00317957645151545,17.8165688162604
-0.00337063785889646,17.8200153889104
-0.00355486557929134,17.8240472836514
-0.00367456030517681,17.827806413759
-0.00372875110329246,17.8314165216693
-0.00371032902777317,17.8350840012406
-0.00359067298860176,17.8391342286015
-0.0033539467044984,17.8431801543464
-0.0030213644006971,17.8468937359274
-0.00260846312172155,17.8502895205376
-0.0021217935061086,17.8534237594274
-0.00156284057603434,17.8563417698575
-0.000923013061937993,17.8591086655536
-0.000177867192160661,17.8618183549397
0.00073938505392069,17.8646541427282
0.0018834780744367,17.8677056336577
0.00322904603940737,17.8708959492261
0.00451475145998561,17.8737225890461
0.00612568487162395,17.877069636855
0.00718101802966938,17.8791376166237
0.00830891387776834,17.8812055963925
0.00944877095801428,17.8831196827335
0.010631015707194,17.8849071731979
0.0119016039564934,17.8866131208553
0.013307515673539,17.888270032313
0.0148646487502609,17.8898667718052
0.016607465594818,17.8914128582486
0.0185517659595481,17.8928995769805
0.020729060279478,17.8943319369308
0.0231650477294981,17.8957093517743
0.0258873172307427,17.8970321932386
0.028932899024382,17.8983043715574
0.0323410426250809,17.8995286359684
0.0361578216979374,17.9007082992497
0.0404376118939163,17.9018470258241
0.0452433577825187,17.9029483556464
0.0506494842258576,17.9040159705803
0.0567448057422674,17.9050537203396
0.06363574733158,17.9060655788502
0.0714515209066602,17.9070557696173
0.080352154958812,17.9080289970955
0.0905387015458963,17.9089905717161
0.102270116485521,17.9099467804641
0.115890050257404,17.9109054281993
0.131874114683119,17.9118768541405
0.150918845846654,17.9128758272483
0.173104278563461,17.9138823354935
0.198885643389656,17.9148998234057
0.22903690607784,17.9159428694374
0.264676947227437,17.9170341392643
0.306321358400798,17.9181803886169
0.347822432077411,17.9192401156866
0.382503866164943,17.9200995962606
0.412439561552819,17.9208510541593
0.438634449196301,17.9215449482134
0.461307058805207,17.9222100555187
0.480262792794541,17.9228683042092
0.494927670631002,17.923541262632
0.504169478937905,17.924255980702
0.50570419827688,17.9250565453056
0.496735498273971,17.9258861736543
0.476007818071187,17.9267401146275
0.442065096820782,17.9276309602419
0.393228278050613,17.9285679921952
0.349536389969313,17.9292532942627
0.299981207783718,17.9299385963302
0.255612406101172,17.9305053040575
0.217774803607555,17.9309714529524
0.184637017693034,17.9313771415721
0.154991573398793,17.9317456747102
0.128132972024486,17.9320907779911
0.103593810564856,17.9324219036577
0.0810110228799207,17.9327468981174
0.060037516802981,17.9330740430086
0.0402123976807344,17.9334155690971
0.0204704593966847,17.9338015257672
0.00404479017255538,17.9341751282798
-0.00345615950065946,17.9343685381216
-0.0103059402009042,17.9345619479633
-0.0162391263823259,17.9347457350579
-0.0221734007241829,17.9349486525913
-0.0279854870900461,17.935171206822
-0.0334842730023396,17.9354105025022
-0.0385600247141138,17.9356652375525
-0.0431541943061588,17.9359352364414
-0.0472359707984533,17.9362210947634
-0.0510062425614917,17.9365452186684
-0.0539650575830412,17.9368655864322
-0.0564083789469424,17.93720651332
-0.0583518928214483,17.937571077774
-0.0598095229616482,17.9379626832183
-0.0607950555037186,17.9383855179767
-0.0613206742325759,17.9388447781116
-0.0613954100163147,17.939346992767
-0.0610232853557818,17.9399005213754
-0.0601989331818639,17.9405174900787
-0.0589036704619377,17.9412138524222
-0.0570985877881057,17.9420125198781
-0.0547052061693277,17.9429506447696
-0.0515447769907997,17.9441016408389
-0.0475285027801645,17.9455114844094
-0.0436283100929223,17.9468701554122
-0.0399009182299513,17.9481854757765
-0.036374654338886,17.9494607771042
-0.0330637109197424,17.9506974680482
-0.0299743565666059,17.9518959788679
-0.0271076746196265,17.9530562539962
-0.0244609958515755,17.9541780108833
-0.0220288021168423,17.9552608746104
-0.0198033972957487,17.9563044437409
-0.0177754615689229,17.9573083160524
-0.0159345329126973,17.9582720894174
-0.0142694308799583,17.9591953461653
-0.0127076500272333,17.9601146220541
-0.0112054078077858,17.9610574267981
-0.00976720762893831,17.9620253521689
-0.00839699732675662,17.9630205196832
-0.0070985285500256,17.9640454185216
-0.00587530460520449,17.9651029986747
-0.0047305291773939,17.9661967913469
-0.00366705290127415,17.9673310711764
-0.00268731778530993,17.9685110799305
-0.00179329910118596,17.9697433435242
-0.000986443727263207,17.9710361361131
-0.000267602860019825,17.9724001866284
0.000363045005074976,17.9738498076348
0.000906089028120513,17.9754048129032
0.00134936759425325,17.9770360879454
0.00169383729516995,17.9787151776186
0.00195560024722066,17.9804604124985
0.00214910662108112,17.9822933998674
0.00228792708313863,17.9842431070684
0.00238517173856264,17.9863507973177
0.00245412049162507,17.9886804147674
0.00250945123841445,17.991344380871
0.00257080334273566,17.9945901688813
0.00265599199525378,17.9983319029142
0.00276506715253025,18.0020508109018
0.00289813982594307,18.0057764625802
0.00305215507176505,18.0095529341082
0.00322355252224096,18.0134159806352
0.00340969958272846,18.0173972470697
0.00360940823354981,18.021526814117
0.00382298845703436,18.0258349482632
0.0040521154018199,18.0303534963356
0.00429967800444801,18.0351171745161
0.00456975821235172,18.0401650456016
0.00486786592416089,18.0455418312142
0.00518716158649199,18.0510534626047
0.00551463495171078,18.0564218228241
0.00585671529712116,18.0617137128865
0.00621469388150302,18.0669030461253
0.00659280057678848,18.0720072770998
0.00699494545078628,18.0770341653042
0.00742549413882542,18.0819926865398
0.00788900514023139,18.0868884272783
0.00839039973353532,18.0917248292847
0.00893504485459229,18.096503214595
0.00952888354615562,18.1012233090043
0.0101785615223818,18.1058837020834
0.0108975192678275,18.1105189491404
0.0117077677694658,18.1151881006689
0.0126261215562779,18.1198896287118
0.0136772238699891,18.1246450161094
0.0148975959622995,18.1294993904913
0.0163522644540349,18.1345627293087
0.018199079413595,18.1401602623657
0.020619030559688,18.1465665859333
0.0221756286026141,18.1503669153696
0.0237649544494259,18.1541672448059
0.0251501442524272,18.1575725549253
0.0263186174394427,18.1606992054232
0.0272818843309096,18.1637152322819
0.0279895184245171,18.1665950237342
0.0284310878632558,18.1694049883514
0.0285938556816339,18.1722758826484
0.02842184009703,18.1754129226967
0.0276753149288975,18.1794828765741
0.0268245678962451,18.1823882342506
0.0257606027084903,18.1852935919271
0.0246841446335072,18.1878597930955
0.0236106988899632,18.1902230610866
0.0225363714777207,18.1924790744177
0.0214626339928289,18.1946759440856
0.0203928687860532,18.1968418661745
0.0193307834697141,18.1989958108305
0.018279960531791,18.2011517885642
0.0172437335645296,18.2033208787336
0.0162251579871459,18.2055123386512
0.0152270115558674,18.2077342735326
0.0142518060889953,18.2099940703102
0.0133017963654312,18.2122987126892
0.0123789937226198,18.214655010212
0.0114851767924885,18.2170697882792
0.0106218965784269,18.2195500692811
0.009790494655611,18.2221032072167
0.00899210452952785,18.2247370700412
0.00822185906493996,18.2274817365177
0.00746565454099377,18.2304125316734
0.00672738693918457,18.2335508997469
0.00601093487834148,18.2369225310182
0.00532038029741429,18.2405571548396
0.00465996774039891,18.2444893019271
0.00403402222004425,18.2487593776026
0.00344681846645101,18.2534152853564
0.00290238835335391,18.2585151703724
0.00240424222821917,18.2641327271655
0.00195518688193839,18.2703654538215
0.00156113470305933,18.2772711441402
0.00124147613001339,18.2847128247327
0.00103486069922982,18.2915161095553
0.000859327243859748,18.299405516239
0.000719721556961974,18.3082545144896
0.000617284456568521,18.3182099875943
0.000559295669751055,18.3282099875943
0.000536217146656133,18.3382099875943
0.000541484691041512,18.3482099875943
0.000571612185821318,18.3582099875943
0.000622334832965605,18.3676289267375
0.000689943150154768,18.3763027871999
0.000773152735184307,18.3842867570734
0.000872025490127512,18.3916391559795
0.000987452570188194,18.3984135375415
0.00112091106759292,18.4046590133261
0.00127435661964966,18.4104207686419
0.001450184524078,18.4157404886423
0.001651230283542,18.4206567146461
0.00188079613108764,18.4252051601466
0.00214270179115996,18.4294190023477
0.00244135772404896,18.4333291591773
0.00278186747858816,18.4369645631186
0.00317016681583888,18.4403524520458
0.00361321712383831,18.4435186994619
0.0041192816831981,18.4464882139949
0.00469833473809982,18.449285466
0.00536270145292296,18.4519352512302
0.00611232978766897,18.454416211499
0.00695170387136336,18.4567398082375
0.00790178001299525,18.4589585176947
0.00900083041590855,18.4611401152689
0.0103371209510424,18.4634075794708
0.0122520012256894,18.4661821918788
0.0135451021867492,18.4678608597694
0.0149068261071592,18.4695395276601
0.0161419562856928,18.471040786763
0.0172356418759239,18.4724069145006
0.0182055983827573,18.4737080268173
0.0190488524705449,18.4749911753536
0.0197479481698952,18.476298683233
0.0202694212943238,18.477684162629
0.0205480426614553,18.4792446954649
0.0203964553967471,18.4812862893686
0.0197898938082755,18.4831235676349
0.0188136284307995,18.4849608459012
0.017747878488767,18.4865433556818
0.0165861339775466,18.4880673035467
0.0153299960290474,18.4896062721821
0.0139882899220415,18.4911994934149
0.0135108379527161,18.4917631553546
0.0130417755891613,18.4923268172944
0.0110243329415232,18.4949381070102
0.00916701362770153,18.4976864363455
0.0076522125720061,18.5002684544065
0.00636362519152557,18.5027972915822
0.00522680307443756,18.5053738864678
0.0042189109964719,18.5080258562061
0.0033229570683126,18.510776898739
0.00252472962502296,18.513651242847
0.00182427717249041,18.5166177030367
0.00125892694384225,18.5194143412899
0.000792391579257197,18.5220710272743
0.000397863909627371,18.5246230871291
5.68701684907572e-05,18.5270987053745
-0.000243523301560601,18.5295191747087
-0.0005135340936557,18.53190876693
-0.000763539488160882,18.534316195585
-0.0010082057783258,18.5368611653931
-0.00128896722938845,18.5400115630302
-0.00145474870829312,18.5419826689283
-0.0016144789637746,18.5439537748264
-0.00175472545444074,18.5457379118089
-0.0018829344698387,18.5474087123314
-0.00200849151555547,18.5490785026007
-0.00213941245413744,18.5508520631245
-0.00228764875061731,18.5528975764164
-0.00249008644275948,18.5557542749553
-0.00275588026280582,18.559633673588
-0.00296560946226666,18.562846687422
-0.00315344025693351,18.5659160442706
-0.00334568950961377,18.5694022558257
-0.00352900533155165,18.5734475184084
-0.00364706981916963,18.5772097601227
-0.00369922898220686,18.5808171379003
-0.00367839814165348,18.58447887244
-0.00355585445337956,18.5885159251318
-0.00331464482338462,18.5925640547017
-0.00297890076629684,18.5962555562148
-0.00256213696154202,18.5996365813134
-0.00207087328693973,18.6027600333243
-0.0015052661741468,18.6056768350383
-0.000855579717746906,18.6084534835796
-9.46423721291008e-05,18.6111893865476
0.000847873928369833,18.6140717548185
0.00201932507122505,18.6171670756975
0.00337329017756099,18.6203567151803
0.00470110383309038,18.6232586077492
0.00596659239221903,18.6258813260075
0.00731108594156943,18.6285040442657
0.00847801361505606,18.6306067735283
0.00962953629360008,18.6324978811065
0.0108360588370335,18.6342767981017
0.0121354629790808,18.6359742863088
0.0135747509692697,18.6376222416549
0.0151694755294318,18.6392095699113
0.0169536778381755,18.6407452929222
0.0189438681437781,18.6422216641544
0.0211716442427442,18.6436435584582
0.0236637862045816,18.6450109495758
0.0264485595384653,18.646324306634
0.0295641275914305,18.6475876480842
0.0330512109113595,18.6488038617743
0.0369571409482126,18.6499761979931
0.0413382428086405,18.6511083794729
0.0462598003443321,18.652203988377
0.0517988965915125,18.6532667039947
0.0580479567751222,18.6543004354733
0.0651180046761027,18.6553092286799
0.0731443631028264,18.656297417466
0.0822953546060879,18.6572698639079
0.0927837800894232,18.6582321235925
0.104885869071801,18.6591908600232
0.118972104890201,18.6601544853246
0.135562767398799,18.6611343744182
0.15533746304567,18.6621425460786
0.178248500664548,18.663153902849
0.204915282241291,18.6641798807972
0.236182790021318,18.6652369134991
0.273319558890059,18.6663518080109
0.315590238409364,18.6675002220718
0.354659389766904,18.668496725876
0.387760312724585,18.6693258483148
0.416560930423487,18.6700639647883
0.441749271650819,18.6707527030365
0.463410422904681,18.6714180183591
0.481258132523543,18.672081102388
0.494611517631421,18.6727639800007
0.502157559703637,18.6734956993634
0.501238689560135,18.6743201505768
0.489467999356645,18.6751563087452
0.465671525325133,18.6760194295756
0.42834467619952,18.6769209323502
0.375806787538784,18.6778700921547
0.333658727997017,18.6785054383481
0.286788549577937,18.6791407845416
0.24471648725179,18.6796748369573
0.208423214437726,18.6801229692617
0.176395275185133,18.6805182022998
0.147619461539435,18.6808803996577
0.12147858688354,18.6812218134503
0.0975463697144644,18.6815512792019
0.0754758890851721,18.6818765355057
0.0549120773151927,18.6822063634256
0.035328462248657,18.6825551293465
0.0152398113745181,18.6829651895638
0.00238388583068562,18.6832689105464
-0.00488431914130018,18.6834607777919
-0.0115222998238167,18.6836526450375
-0.0173334708444208,18.6838369651194
-0.0232474912963673,18.6840444076305
-0.0289980530544286,18.6842709342858
-0.0344095702966596,18.6845138812527
-0.0393844057406345,18.6847721928374
-0.043871226726289,18.6850458605464
-0.0478403234134098,18.6853356035753
-0.0513267442948349,18.6856477936032
-0.0542011082653221,18.6859715025113
-0.0565647812418302,18.6863163812963
-0.0584314097328641,18.6866853764834
-0.0598149136822833,18.6870819920135
-0.0607288814189665,18.6875105449796
-0.0611850932362124,18.6879763976306
-0.0611919516242972,18.6884863010537
-0.0607525664330699,18.6890489232947
-0.0598597280432815,18.6896770982262
-0.0584926415388136,18.6903873745504
-0.0566086287211003,18.691204039978
-0.0541211200280979,18.6921672368591
-0.0508265157456179,18.6933595297181
-0.0468302045669539,18.6947603089521
-0.0429591018091772,18.6961118364586
-0.0392662270066561,18.6974204806541
-0.0357772558309832,18.6986892633513
-0.0325049337880278,18.6999194444731
-0.0294545938290304,18.7011113850774
-0.0266266383632009,18.7022650013901
-0.0240178730627921,18.7033800034211
-0.021622369681562,18.7044560185398
-0.0194321180704066,18.7054926509631
-0.0174375693698234,18.7064895035707
-0.0156281087165297,18.7074461761905
-0.0139924706177086,18.7083622480698
-0.012440240442013,18.7092856058772
-0.0109484394645379,18.7102326917396
-0.00952137193910001,18.7112052450794
-0.00816295538120704,18.7122054460255
-0.00687690098201519,18.7132358574391
-0.00566666242528594,18.7142995216387
-0.00453538417826025,18.7154000870736
-0.00348584763128193,18.7165419796339
-0.00252041501872967,18.717730639937
-0.00164097063033912,18.7189728613832
-0.00084885812498905,18.720277288178
-0.000144811544284507,18.7216551793897
0.000471124687722234,18.7231216415509
0.000999696306424987,18.7246977487512
0.00142500911641597,18.7263360921077
0.0017545862622557,18.7280255435788
0.00200411496771496,18.7297845470687
0.00218787888702195,18.7316357805657
0.00231935004729989,18.7336099241381
0.00241163800627919,18.7357512487491
0.00247818936811676,18.7381296287811
0.00253423774844512,18.7408716189456
0.00260142581048188,18.7442733105769
0.00269206915868155,18.7479957614098
0.00280748761303382,18.751714025038
0.00294749648208129,18.7554706919935
0.0031088642475589,18.759303510728
0.00328806757076966,18.7632450276845
0.00348262768966705,18.7673256088167
0.00369159097458709,18.7715752893569
0.00391557266110882,18.7760252770211
0.00415663242974163,18.7807092315485
0.00441818069614091,18.7856647295781
0.00470506183163283,18.7909345699046
0.00502196167936042,18.7965328190967
0.00534256115003019,18.8019292502549
0.00567784337826601,18.8072742440116
0.00602699880545203,18.8125061651162
0.00639463976208087,18.8176507019557
0.00678435662330154,18.8227131395177
0.0072004424079911,18.8277043284684
0.00764726677523712,18.8326306251386
0.00812954078794553,18.837496484683
0.0086523605446648,18.8423040048693
0.00922134711388685,18.8470535685186
0.00984276599733962,18.8517442183766
0.0105236630966373,18.8563741965401
0.0112871325908068,18.8610291954191
0.0121489018129696,18.8657124254335
0.0131302556710925,18.8704374769008
0.0142605785234586,18.8752342211366
0.0155873497675444,18.8801725182409
0.0172066441131643,18.8854341700808
0.0194316420016659,18.8917062151855
0.0211387249162146,18.8960346871561
0.0229350962624963,18.9003631591267
0.0244635928759934,18.9040422247569
0.0257412578855606,18.9072904011214
0.0268102690178745,18.9103454327913
0.0276565923435455,18.9133072579531
0.0282345418925143,18.9161385493271
0.028543515964688,18.9189598119492
0.0285545864976946,18.921924677445
0.0281629266257014,18.9253527158951
0.027379765512283,18.9287462386042
0.0262653353785583,18.9321397613134
0.0251691677994676,18.9348976077362
0.0240935797585105,18.9373403728623
0.0230195459440775,18.9396373824143
0.0219451097420348,18.9418568100187
0.0208730187984503,18.9440340559067
0.0198069215369244,18.9461915263217
0.0187504825372161,18.9483451438427
0.0177071548791553,18.9505071417207
0.0166801200429756,18.9526875040361
0.0156722807877042,18.954894794871
0.0146862669733179,18.9571366870094
0.0137244475568919,18.9594203192721
0.0127889438459896,18.9617525556048
0.0118816358884898,18.9641402038591
0.0110041779808602,18.9665901791198
0.0101580037337282,18.9691096772095
0.00934434001886505,18.9717063201905
0.00856421280464407,18.9743883315456
0.00780103466500792,18.9772324041634
0.00705403062815996,18.9802737928743
0.00632703874486353,18.9835363456433
0.00562405020833106,18.9870478683876
0.00494923941301467,18.9908405959689
0.00430690122835282,18.9949521058084
0.00370134641126618,18.999426624524
0.00313673693995649,19.0043171537559
0.00261683839469711,19.0096894389137
0.00214477001334284,19.0156288144456
0.00172292591357896,19.0222501375555
0.00143532529718955,19.0278734645131
0.00121084968778868,19.0334967914707
0.00098843861307365,19.0410978569908
0.000824586270246389,19.0488332298683
0.000688651339890697,19.0578383242013
0.000590613043001842,19.0678383242013
0.000535303698346609,19.0778383242013
0.000512979114684775,19.0878383242013
0.000517262491427562,19.0978383242013
0.000544689939866085,19.1078383242013
0.000592234620600708,19.1174458090467
0.000656007890084603,19.1263016547391
0.000734647287473767,19.134454138057
0.000828147189843085,19.1419621570046
0.000937322701351887,19.1488800363486
0.00106355929127688,19.1552575808213
0.00120870146362113,19.1611405957741
0.00137501124843508,19.1665713234177
0.00156516574977953,19.1715888040478
0.00178227968404227,19.1762291916218
0.00202994973632082,19.1805260411999
0.00231231915266009,19.1845105792898
0.00263416730909193,19.1882119652184
0.00300102950181082,19.1916575604631
0.00341936154358819,19.1948732247506
0.00389676936676889,19.1978836611254
0.00444234096673105,19.2007128494767
0.00506714977826261,19.2033846436814
0.00578076898128841,19.2059098269679
0.00657665256520395,19.2082560185983
0.00747040419617426,19.2104704280193
0.00848860897589864,19.2126078817715
0.0096831691587967,19.2147471358268
0.0111946377213453,19.2170654009992
0.0126921614451376,19.2190804901777
0.0143340415477414,19.2210955793563
0.0157381681530219,19.2227412314508
0.0169437800370828,19.2241564738546
0.0180128643490159,19.2254676810162
0.018957158583094,19.2267357892851
0.0197674808263504,19.2280036545538
0.0204202951813075,19.2293157075626
0.0208718167414834,19.2307369579565
0.0210274639045719,19.2324092988334
0.0205134595069817,19.2349014446662
0.0197528591032716,19.236524863726
0.0187337501125534,19.2381482827857
0.0176082925895431,19.239668355303
0.0163800486560052,19.2411815367372
0.0150578239583863,19.242734455991
0.014194761955312,19.2437323131999
0.0133407215030122,19.2447301704088
0.0126047450329361,19.2456255230807
0.0105585929189113,19.2483407552931
0.00878234243283589,19.2510495129019
0.00733564032049083,19.2535925755425
0.00608522682635462,19.256125877958
0.00498122699590617,19.2587142863771
0.00400261256766065,19.2613834803596
0.00313304844341258,19.2641570503658
0.0023587410975904,19.2670595289249
0.00168617680430124,19.2700283425144
0.00114274938043925,19.2728310640114
0.000693017373261,19.2755020534509
0.000311575470275467,19.2780766167107
-1.83839980432379e-05,19.2805771634624
-0.000308173605662022,19.2830145057618
-0.00056687390660774,19.2854023636626
-0.000803957610258916,19.287779152534
-0.00103144378127745,19.2902350134213
-0.00127417413889458,19.2930434166925
-0.00145102674526783,19.2952061996667
-0.00162094314273504,19.2973689826408
-0.00176299860907613,19.2992346374361
-0.00188835172950825,19.3009196638059
-0.00200850733354413,19.3025652240268
-0.0021311924557427,19.3042729902083
-0.00226567524416666,19.3061741506167
-0.00243296030946128,19.3085794668042
-0.00273065121491624,19.3129807913751
-0.00298246501307133,19.3168868215911
-0.00318493843938589,19.3202515388942
-0.00338180788318966,19.3239030218569
-0.00355991450663099,19.3279579220583
-0.00367242371543802,19.3317180012742
-0.00371884227969225,19.3353229200896
-0.00369141772968115,19.3389848307989
-0.00355945643822271,19.3430361436389
-0.00330743619575626,19.3470752459191
-0.00296378047783851,19.3507215678643
-0.00253811743633947,19.3540738738185
-0.00203742603458486,19.3571736079139
-0.00146236067332954,19.3600665107719
-0.000802668058605259,19.3628202447868
-2.68678995585872e-05,19.3655463363883
0.000942188849999446,19.3684425963629
0.00214136677229727,19.3715414366368
0.00352278757854504,19.3747307780568
0.00486223868179568,19.3776049984447
0.00605338871360185,19.3800330588781
0.00731546324593481,19.3824611193115
0.00852677294765008,19.3846192395105
0.00967066135237955,19.3864765658813
0.0108910157151345,19.3882578015146
0.0121971368521103,19.3899477121309
0.0136435747237836,19.3915889772951
0.0152450936934134,19.3931694741221
0.0170371168412131,19.3946992776385
0.0190386547263684,19.3961721104777
0.0212771329468628,19.3975893832826
0.023781880221697,19.3989527533633
0.0265813876003062,19.4002625732865
0.0297134737261958,19.4015225157752
0.0332196376641238,19.4027356467993
0.0371470388989914,19.403905021727
0.0415524846080584,19.4050343954454
0.0465017856022076,19.406127362778
0.0520724134526589,19.4071875652331
0.0583573867887974,19.4082189019829
0.0654685067508377,19.4092254176481
0.0735421815173082,19.4102114576576
0.0827475463701574,19.4111818342332
0.0932989554757595,19.4121421083861
0.105474403991705,19.4130989239864
0.119646723109655,19.4140606705575
0.136338523848776,19.415038642066
0.156230875317623,19.4160447123336
0.179277169961253,19.4170539317208
0.206098806423677,19.418077640508
0.23754213529179,19.4191321119213
0.274875542528451,19.4202438827966
0.317447202466898,19.4213909990185
0.356701833870984,19.4223840371438
0.389900016951393,19.4232090070389
0.418766055985005,19.4239432210395
0.444007191940214,19.4246285376884
0.465712822212436,19.4252909774753
0.48359438422245,19.4259518235924
0.496961663379395,19.4266333375947
0.504475922727839,19.4273652041995
0.503437441287801,19.4281878386172
0.491495114877364,19.4290229391252
0.467460650759597,19.4298858469935
0.42980861430217,19.4307880068399
0.376835939628225,19.4317386199011
0.334471391901883,19.4323734773322
0.287390307807275,19.4330083347632
0.24515991406379,19.4335418340071
0.208750044582576,19.4339894095012
0.176631936745574,19.4343841003185
0.147783059764485,19.4347457818133
0.12158090960571,19.4350867106471
0.0975957881271734,19.435415726154
0.0754780883420756,19.4357405761849
0.0548697723314844,19.4360700688167
0.035238510621219,19.4364186671385
0.0150706342490372,19.4368293611466
0.00245847053068651,19.437126361987
-0.00482824548619185,19.4373178268819
-0.0114835748241855,19.4375092917768
-0.0172995724000805,19.43769286939
-0.0232237128448064,19.4378996080245
-0.028987610192705,19.438125451407
-0.0344140058508092,19.4383677144702
-0.0394042476443448,19.4386253263221
-0.043906398124611,19.4388982669793
-0.0478912568428594,19.4391872458854
-0.0514331797891104,19.4395025823153
-0.0543159200205419,19.4398257452933
-0.0566867696546314,19.4401699936463
-0.0585599314985675,19.4405383219609
-0.0599493710230217,19.4409342311721
-0.0608687215837926,19.4413620345222
-0.0613298089530815,19.4418270903239
-0.0613410771588761,19.4423361459125
-0.0609056677594915,19.4428978662791
-0.0600164188158835,19.4435250653137
-0.0586525152526218,19.4442343022685
-0.0567711980304682,19.445049871889
-0.0542856710336964,19.4460119456331
-0.0509916262538297,19.4472032164438
-0.0469888985835128,19.4486049326214
-0.0431106209588913,19.4499574363485
-0.0394100953639102,19.4512671353838
-0.0359132171517956,19.4525370416897
-0.032632881600435,19.4537684056969
-0.0295745408448054,19.4549615798017
-0.0267386980433198,19.4561164724894
-0.0241222443420849,19.4572327870244
-0.0217193221390157,19.4583101450975
-0.0195219771142735,19.4593481463981
-0.0175207017072299,19.4603463905302
-0.015704908538409,19.4613044754123
-0.0140633469075972,19.4622219798805
-0.0125091776657205,19.4631445018576
-0.0110152627854269,19.4640907121791
-0.00958594589740108,19.4650623204038
-0.00822515059972755,19.4660614945493
-0.00693659632199594,19.467090782309
-0.00572374694520144,19.4681532070294
-0.00458975918232172,19.4692523930884
-0.00353742881692421,19.4703927353256
-0.00256913474753577,19.4715796335134
-0.00168678037175186,19.4728198260463
-0.000891731169338881,19.4741218809006
-0.000184746157124867,19.4754969476746
0.000434101341594409,19.4769599684152
0.000965522810673316,19.4785317549418
0.00139435126010278,19.4801686195163
0.00172681814025558,19.4818559230638
0.00197868840940383,19.4836120785541
0.00216427467480845,19.4854595406807
0.00229706242463971,19.4874286303632
0.00239015178010301,19.4895629839775
0.00245693982913851,19.4919312124353
0.00251251611956703,19.494656807497
0.00257802197289361,19.4980249287312
0.00266761978656134,19.5017724429761
0.00278124086181903,19.5054884391091
0.00291864356333139,19.5092215307155
0.0030765853979461,19.5130136669512
0.00325158149137721,19.5168994076593
0.00344118758986329,19.5209098732019
0.00364443683075671,19.5250750318587
0.00386185925871471,19.5294253665208
0.00409533887080969,19.533993193122
0.00434797905868408,19.5388140112433
0.00462411902841565,19.5439279414482
0.00492963646244161,19.5493810571356
0.00525017852548225,19.5548479770064
0.00558131648777095,19.5602064996802
0.00592674640988697,19.5654742094898
0.00628902645535286,19.5706450824929
0.00667215647998877,19.5757318739463
0.00708021530006667,19.5807436703751
0.00751758646580467,19.5856884386891
0.00798890746990767,19.5905713811449
0.00849918396186677,19.5953954234919
0.00905389711882392,19.6001615171421
0.00965912926717252,19.6048691001025
0.0103216948428306,19.6095165981487
0.0110589788910899,19.6141601073034
0.0118902770982305,19.6188348353638
0.0128343155353248,19.623545583605
0.0139175585700878,19.6283168064444
0.0151805674351676,19.6332026931154
0.0166991948556006,19.6383382235352
0.0186779672339131,19.6441572418761
0.0205464912176747,19.6490447791638
0.0221279325231451,19.6529117236293
0.0237451075118884,19.6567786680949
0.0251346883714054,19.6601925417094
0.0263054692470116,19.663321370617
0.0272709914107447,19.6663378479645
0.0279815215943272,19.6692189764863
0.0284259921619629,19.6720290170164
0.0285919564269045,19.67489836829
0.0284241745912594,19.6780306511787
0.0276879351369797,19.6820794463506
0.0268388442091172,19.6849940064336
0.0257743387884637,19.6879085665167
0.0246976013559688,19.6904791128107
0.0236241221009568,19.6928444165896
0.0225497834132638,19.695101499494
0.0214759950476875,19.6972989255659
0.0204061271930201,19.6994650748764
0.0193438871447406,19.7016190098388
0.0182928608496534,19.7037747917308
0.0172563855538294,19.7059435309429
0.0162375211515853,19.7081345019376
0.0152390494720954,19.7103558195261
0.0142634854644492,19.7126148761634
0.0133130887556637,19.7149186520425
0.0123898728458565,19.7172739551005
0.011495620122532,19.7196876010658
0.0106318854301157,19.7221665975979
0.00980001211318926,19.7247182849175
0.0090011365163466,19.7273505086827
0.00823062117441072,19.7300924479704
0.0074740811807623,19.7330202001256
0.00673541156625293,19.7361551445854
0.00601848457252099,19.7395229151353
0.00532737929471152,19.7431531544178
0.00466633460914828,19.7470803015663
0.00403967122107927,19.7513446396808
0.00345166071266974,19.7559939051643
0.00290633290190805,19.7610860017169
0.00240719731683073,19.7666942392351
0.0019570561723921,19.7729155093615
0.00156147289098139,19.7798136515023
0.00123912266509408,19.7872463741057
0.00104130514000606,19.7936448443245
0.000857259334086721,19.8017099123629
0.000715543848874383,19.8104689446037
0.000609886614270695,19.8203367596843
0.000547700098227104,19.8303367596843
0.000520335324637123,19.8403367596843
0.000520871077873511,19.8503367596843
0.000545384375485542,19.8603367596843
0.000591008210467169,19.8700265197398
0.000653481174072874,19.8789598285997
0.000731167901023448,19.8871823921648
0.000823912088410987,19.894753824656
0.000932443369446332,19.9017291808881
0.00105809584152397,19.9081589040987
0.00120268116891703,19.9140893621942
0.0013684393577612,19.9195632991313
0.00155803216265956,19.9246202073415
0.00177456343219861,19.929296651345
0.00202162199783175,19.9336265617935
0.00230334576231773,19.9376415120228
0.0026245110482613,19.9413709852071
0.00299065270870413,19.9448426491984
0.00340822976759431,19.9480826589957
0.00388485678443702,19.9511160104599
0.0044296395059183,19.9539669858523
0.00505368509065071,19.9566597697728
0.00576697579758806,19.9592065374176
0.00656298561211146,19.9615740504212
0.0074577254127055,19.9638105604782
0.00847871466358879,19.9659727406439
0.00968057921116029,19.9681438206356
0.0112169690084796,19.9705198078221
0.0126572154330054,19.972479875096
0.014227811906265,19.9744399423699
0.0156044842665554,19.9760850571368
0.0167926037327698,19.9775087615923
0.0178462664200636,19.9788294242535
0.0187760109437427,19.9801072674707
0.0195723625316062,19.9813852451016
0.0202116492272178,19.9827081149345
0.0206499200510414,19.9841416175676
0.0207919203310028,19.9858299753248
0.0202611284122436,19.9883457887762
0.0194975613698241,19.9899750669855
0.0184802962285846,19.9916043451949
0.0173588427534283,19.9931311697871
0.0161367521912867,19.9946508830794
0.0148228010103626,19.9962098225433
0.0140230517510899,19.9971443805441
0.0132307606416217,19.9980789385449
0.0125267167486767,19.9989417527402
0.0117016925081113,20
