ecg,time
0.00795457100663263,15.0021435554885
0.00824264639680342,15.0058965918127
0.0086028216333495,15.0096703800568
0.00906222630097216,15.0135965452022
0.00967402303268828,15.0178884987817
0.0104919742428993,15.0226085886613
0.0114716493261127,15.0273094737486
0.0125951555502863,15.0318783442214
0.0137915620151796,15.0360888803733
0.0150399365384765,15.0399724113956
0.0163234613561291,15.043569166965
0.017625559912878,15.0469163029412
0.0189289009808666,15.0500476158163
0.0202155225956744,15.0529951712749
0.0214673307900166,15.0557909399319
0.0226668496543562,15.058469049272
0.0237982030427425,15.0610700194145
0.0248482975844121,15.0636501780791
0.0258087193207801,15.0663084611768
0.0266460974388021,15.0691576352702
0.0272189740331886,15.071926701112
0.0274658567145017,15.073962410603
0.0275544567700068,15.075998120094
0.0274938445867041,15.0778661660123
0.0273081058461107,15.0796716969914
0.0269926935229013,15.0815271977042
0.0265107809625062,15.0835677611347
0.0257440312793639,15.0860843302955
0.024720505406742,15.0888462981828
0.0236744511144729,15.0913295127841
0.022621753084575,15.0936445598144
0.0215619410065635,15.0958711482382
0.0204973688055311,15.0980524739656
0.0194314013351928,15.1002155224382
0.018369645078127,15.1023801691023
0.0173154168017255,15.1045624279637
0.0162698741792929,15.1067769448245
0.015233778477611,15.1090379824063
0.0142070300458598,15.1113614534976
0.0131890441499592,15.113765121782
0.0121770421668341,15.1162739243654
0.0111665530795185,15.1189209924734
0.0101482408584118,15.1217595902408
0.00910100204572511,15.1248917762557
0.00852152605720072,15.1267320116562
0.00820883073182262,15.1277600877507
0.00791123886361396,15.1287881638452
0.00766654336571576,15.12974215696
0.00726355930786345,15.1316315792491
0.0069180104039411,15.1337426897852
0.00662240848075628,15.1362089717721
0.00636746948127525,15.1394613626021
0.00623191878819543,15.1427558943536
0.00618902003903672,15.1459937179647
0.0061970048839818,15.1492270751695
0.00620308957011553,15.1522697141142
0.00616846002004486,15.1549315678607
0.00606881287330978,15.1576658919276
0.00588316481140802,15.1605967781132
0.00558929803322853,15.1639512143523
0.00527092250272724,15.1670803871869
0.00495471002267924,15.1701281436856
0.00463421528037073,15.1734480475163
0.00433254371719716,15.1771123366958
0.00407686807462818,15.1811034284305
0.00386275346622998,15.1859647917812
0.0037497434350778,15.1902033734729
0.00369009942595288,15.1944419551645
0.00367145306383831,15.2002801395945
0.00370395641879668,15.2050987341221
0.00377653986942536,15.2101843744391
0.00388274691406647,15.215089098037
0.00402780703381697,15.2200670545247
0.00419812650305691,15.2246590355105
0.00438835580772778,15.2288666896219
0.00460757580986799,15.2329402840645
0.00487370948075445,15.237121244513
0.0052293885696841,15.2417970695525
0.00565119373773849,15.2463869715795
0.00613587686341932,15.2507596795976
0.00668700935373018,15.2548959866112
0.00730290587334237,15.2587570116954
0.00799150691797184,15.2623783881634
0.00875149482244876,15.2657460847679
0.00958529068998347,15.2688756007794
0.010495152095365,15.2717839106454
0.0114854430198199,15.2744943614477
0.0125938637795003,15.2771002216819
0.0138408821411388,15.2796201496054
0.0152469712623768,15.2820636602489
0.0168388342124769,15.2844439023526
0.018649212705111,15.2867742595699
0.0207225715973727,15.2890729534687
0.0231203228550832,15.2913635147557
0.0259370438384107,15.2936825325932
0.0293397248524656,15.2960960849357
0.0333286846981255,15.2985439260143
0.0380734328304729,15.3010926797004
0.042265521569691,15.3031319257809
0.0467068552740291,15.3051711718614
0.0505629209888495,15.3069150985221
0.0538308769309973,15.3084422301404
0.0565820018691539,15.3098411687879
0.0588101550533645,15.311160570982
0.0604665563992881,15.3124327864847
0.0614701812418371,15.3136852114541
0.061699189204263,15.3149476622736
0.0609539666019692,15.3162637478572
0.0587997836246799,15.3177333603062
0.0549469432242244,15.3192875207363
0.0508534442533903,15.3205051015533
0.0459454840782767,15.3217226823703
0.0410851010450554,15.3227970307118
0.0363930731274509,15.3237694881471
0.0318503732731506,15.3246826288609
0.0274585282718488,15.3255603278919
0.0232273595252298,15.3264181081655
0.0191658925148257,15.3272681786631
0.0152778706386953,15.3281221790979
0.0115564318238686,15.3289940314173
0.00797045824039812,15.3299059977895
0.00440621381138387,15.3309124049687
0.00040157923171312,15.332222867109
-0.00261875028224845,15.3334100466931
-0.00469792039779665,15.3343878382482
-0.00633675890676363,15.3353037004435
-0.00703354779865981,15.3357489606755
-0.00744549583618899,15.3360329530269
-0.0078104342007309,15.3363169453784
-0.00839081008252631,15.3368858345204
-0.00879993085183206,15.3374718544776
-0.0090497658217838,15.3380861105426
-0.00914241091844656,15.3387296877217
-0.00908192959414155,15.3394039222456
-0.00887401726836284,15.3401104059661
-0.00852467616180353,15.3408528990211
-0.00804048977604425,15.3416347213529
-0.00742935151900797,15.3424587425388
-0.00670006274887725,15.3433283729291
-0.00586111677680271,15.3442487674408
-0.00490562542946204,15.3452419886071
-0.00383260835159618,15.3463244265022
-0.00263694507391266,15.3475203881033
-0.00134913298675091,15.3488240769171
-9.20078695081433e-05,15.3501354956429
0.00113149328845343,15.3514694305641
0.00231759455010121,15.3528366013045
0.00346446068502497,15.3542477619288
0.00457227684684994,15.3557146701261
0.00564355741212163,15.357251155385
0.00668371980343097,15.358874520156
0.00770211518227095,15.360607702865
0.00871394763342608,15.3624830646715
0.00971841780371847,15.3644964195942
0.0106896440436579,15.3665696427115
0.0116677611354379,15.368746510312
0.0126956033144276,15.3710748348329
0.0138298951627598,15.3736229998316
0.0151582514736395,15.3765034409009
0.0168479226946099,15.3799430749344
0.0191500836088454,15.3842298685954
0.0207085206248199,15.3869226484506
0.0223372704871509,15.3896154283058
0.0238093002298302,15.3919929735953
0.025119582629565,15.3941090491746
0.0263148530221583,15.3960812301556
0.027422893670447,15.3979905084139
0.028464982536297,15.3999136035414
0.0294447465238249,15.4019131464769
0.0303675995935355,15.4040927337911
0.0312563957979642,15.4067244022998
0.0318800220130976,15.4093023487604
0.0322696741870775,15.411880295221
0.0324308420892218,15.4140355594273
0.0324583151163841,15.4160575764843
0.0324300749394424,15.4170636866365
0.0323962998235744,15.4180697967886
0.0323078991220105,15.420668572753
0.0321614177648249,15.4233831603639
0.0318918231525005,15.4261319005158
0.0314437735578056,15.4288911328918
0.0307356794435177,15.4318111556403
0.0296499905736249,15.4350496756739
0.0281602570775963,15.4385039460677
0.026818177026027,15.441151624821
0.0253381421491225,15.4437993035743
0.0239052556517594,15.446202582867
0.022509467592869,15.4484548845861
0.0211367086012425,15.4506234346474
0.0197821551003687,15.4527453624974
0.0184451376246289,15.4548438910305
0.0171268702493702,15.4569352995188
0.0158295808227438,15.4590319996441
0.0145561628026308,15.4611440800485
0.0133100059928901,15.4632802096315
0.0121044324561014,15.4654308206084
0.0110041476495408,15.4674845395867
0.00999628196029555,15.4694602736718
0.00906470431253808,15.4713850180213
0.00819030682032267,15.4732965840535
0.00734596244303178,15.4752599083014
0.00647448765052782,15.477435025475
0.00554462373623129,15.4799650836315
0.00502833661536863,15.4814852872513
0.00454300206325944,15.4830054908712
0.00412094452886347,15.484411255579
0.00373521391921465,15.4857751443656
0.00336177162735508,15.4871788644624
0.00297770138544938,15.4887219332046
0.00254234874481664,15.4906155489112
0.00188062869449434,15.4938661504277
0.00134001768795941,15.4969697623912
0.000932988997475966,15.4996767211012
0.000559318286315858,15.5025483369401
0.000230605145498762,15.5054952956356
-1.75640345300566e-05,15.5083683154166
-0.00018542615654741,15.5111789517447
-0.000299949502618423,15.5140131345115
-0.000375358799008546,15.5169547226957
-0.000417492336704737,15.5200912226217
-0.000425303168408626,15.5234650245317
-0.000392697165147543,15.527094608839
-0.000317081496398621,15.5306519878386
-0.00020839028209008,15.5338078638166
-7.1653931918529e-05,15.5366268525199
9.30501899415244e-05,15.5391997189411
0.000290266755387535,15.5416150456871
0.000524139656880866,15.543907575834
0.000801159202518496,15.5461164525471
0.00113148317944339,15.5482920861596
0.00153236227056088,15.5505122676355
0.00204464718202335,15.5529584764496
0.00251023110804026,15.5549892148919
0.0029839820818089,15.5570199533343
0.00339103527903196,15.5588592189878
0.00375069691846866,15.5606967607179
0.0040733254377238,15.5627334187169
0.00435743892542769,15.5653271179965
0.00450530316720345,15.5677238310267
0.00457157936758842,15.5701205440568
0.00459056096774234,15.5723771726454
0.00459557635682038,15.5746773650552
0.00461124460439309,15.577132358225
0.00466651636098989,15.5799006916825
0.00480542144066881,15.5831551887756
0.0050648800661956,15.5867183406213
0.00553007932572869,15.5909606160945
0.0061477902240388,15.595041140983
0.00681746328657718,15.5985041350403
0.00754765326319535,15.6016017223468
0.00833846627685302,15.6044128803789
0.00919365574177095,15.6069907597523
0.0101171051853818,15.6093693103695
0.0111280440963351,15.6116045706439
0.0122527753198117,15.6137426369032
0.0135056550601199,15.6157904199666
0.0149026401959945,15.617753668587
0.0164617843351927,15.6196377630848
0.0182037045928964,15.6214479849936
0.0201521499109737,15.6231896465263
0.0223347291408188,15.6248681723094
0.0247836890904935,15.6264890596457
0.0275373138486406,15.6280581000169
0.0306415781574036,15.6295814462917
0.0341526316671532,15.6310658148448
0.0381406371877977,15.6325188380333
0.042695985030033,15.6339496510514
0.047940220027951,15.6353699688144
0.054047457746321,15.6367962828081
0.061291834292271,15.6382547748112
0.0699485937672192,15.6397581349398
0.0800754043554723,15.6412838549869
0.0921391438330542,15.6428794642968
0.102864212504941,15.6441659554816
0.11424386119751,15.6454524466664
0.124433021842535,15.6465800008075
0.133336116368039,15.647586067818
0.141063595445976,15.6485187183723
0.147563482111275,15.6494050204273
0.15268990554818,15.650262844738
0.156228851483194,15.6511067002104
0.157891002950531,15.6519512142725
0.157266488766785,15.6528153132797
0.153666128252229,15.6537332744813
0.145962991406509,15.6547390256057
0.133937864431225,15.6557716508255
0.122901693618017,15.6565150364967
0.110199509858775,15.6572584221679
0.0978198660274203,15.6579207575892
0.0860360636865095,15.6585216801618
0.0747954398441584,15.6590843798906
0.0640792622689004,15.659623000096
0.0538823902428796,15.6601474193383
0.0441963764709656,15.6606658498194
0.0349994830649067,15.6611865043951
0.0262424028796495,15.6617196284353
0.0178085682248459,15.6622822320081
0.00933596761734209,15.6629177454445
0.00331292337805484,15.6634314063056
-0.00199077493497888,15.6639450671666
-0.00619683063413921,15.6644097202927
-0.00958442314716562,15.6648352212468
-0.0124422679816695,15.6652430304313
-0.0150817818954338,15.6656744726767
-0.0174839628893204,15.6661317119908
-0.01961925350924,15.6666141195619
-0.0214722208728889,15.66712221192
-0.0230362835961425,15.6676573455114
-0.0243104085820001,15.6682215176005
-0.0252749086124291,15.6688172708945
-0.0258470278077231,15.6694263773039
-0.0260654499670579,15.6700168548177
-0.0260030840953979,15.6706443161481
-0.0256686475888093,15.6713133010877
-0.0250691217857422,15.6720307849792
-0.0242119359433089,15.672802861309
-0.0231050755392804,15.6736368114687
-0.0217569368425018,15.6745415199278
-0.0201760049080623,15.6755281923828
-0.0183699375997689,15.6766117459125
-0.0163816515402975,15.6777907819998
-0.0145373521217547,15.6788965772862
-0.012849301823321,15.6799357021975
-0.0113135719463855,15.680915668401
-0.00981958699327989,15.6819118830715
-0.00837489531614981,15.6829271229976
-0.00698542692924927,15.6839646604275
-0.0056564688222907,15.6850278729204
-0.00439269714766821,15.6861204080339
-0.00319819188133401,15.6872463480375
-0.00207642947425761,15.6884104012694
-0.00103025679939657,15.6896181433448
-6.18472391602427e-05,15.6908763411339
0.000827363072168852,15.6921934116426
0.00163676520234581,15.6935801053109
0.00236670728221724,15.6950505789827
0.00301869335374463,15.6966241886817
0.00359278398144991,15.6983190726871
0.00406625370955913,15.7000552162719
0.00445879782105579,15.7018555460635
0.00478725728935699,15.7037435572275
0.00506782939161299,15.7057501907517
0.00531698636526947,15.7079190742392
0.00555301093867927,15.7103175963559
0.00579934954624257,15.7130644694331
0.00609531122262402,15.7164233358759
0.00645668548781751,15.7203171463496
0.00684432007812042,15.7241562361096
0.00725816736989271,15.7279279166988
0.00770346806774441,15.7316988870105
0.00818501217697571,15.7355168279131
0.00870917029282313,15.7394194731739
0.00928507057312372,15.7434397791309
0.00992552809537933,15.7476087873555
0.0106480993252838,15.7519574614936
0.0114670679446542,15.7564680794
0.0123777905677716,15.7610155197271
0.0134046640247145,15.7656271079034
0.0145736574134868,15.7703127691618
0.0159254388120187,15.7751153919263
0.0175364824043022,15.7801570755617
0.0196141067629454,15.7858472533521
0.0215906358397377,15.7906795252937
0.0232530297611372,15.7944825531719
0.0249535161988962,15.7982855810501
0.0264160985069223,15.8016403017452
0.0276518327039351,15.8047123508746
0.0286774854512298,15.80767311146
0.0294390092129635,15.8104866043656
0.0299320223489389,15.8132308382663
0.030145992566781,15.8160334256456
0.0300283040697064,15.8190927373247
0.029353183896747,15.8230444929084
0.028544942385036,15.825889301215
0.0275182988481282,15.8287341095216
0.0264730695335532,15.8312413881058
0.0254275362615348,15.8335461398691
0.0243789527572367,15.8357435234456
0.0233293965935846,15.8378810818014
0.022282656640996,15.8399864480745
0.0212427204419066,15.8420780957586
0.0202133887026204,15.8441695421705
0.0191981459530918,15.8462714127354
0.0182001797388585,15.848392457094
0.0172223482527447,15.850540282127
0.0162672271689424,15.8527216981369
0.0153370983949405,15.8549430536011
0.0144339513141009,15.8572104632797
0.0135595105480833,15.8595299111409
0.012715187060269,15.8619075086145
0.0119021131642159,15.8643495071724
0.0111210886731643,15.8668625273733
0.0103547409270956,15.8695178191287
0.00959977281235293,15.8723525434697
0.00885857603845196,15.8753883192426
0.00813297860939141,15.8786505041123
0.00742391493297701,15.8821686591001
0.00673079873076824,15.8859774845749
0.00605057709663611,15.8901180661708
0.0053763240130844,15.8946397230545
0.00469518424286995,15.8996033740995
0.00398561220728148,15.9050875952038
0.00325738398365847,15.9108568969774
0.00288794803029855,15.9137743335887
0.00263932626607719,15.9157286959671
0.00240491184577754,15.9176830583455
0.0019017395883957,15.922389179973
0.00141128995145121,15.9277052619753
0.000936190529329711,15.9337230753044
0.000486303911639283,15.940250945653
0.000136572131262283,15.9458653648783
-0.000139175096101658,15.9506966992761
-0.000371916714749238,15.9551830746275
-0.000572750241087809,15.9595299640841
-0.000746459059026038,15.9638783993458
-0.00089227161770303,15.9682701532955
-0.0010002516546512,15.9723462940317
-0.0010770435332434,15.9761193557329
-0.00112917541752378,15.9796165605117
-0.00116219294874148,15.9828649299266
-0.00118058462648101,15.9858898273183
-0.00118787970375615,15.9887161759241
-0.0011867823595157,15.9913672521558
-0.00117932443341969,15.9938663855342
-0.00116699255110819,15.9962369650725
-0.00115082330932903,15.9985041281621
-0.00113145901839299,16.0006970568106
-0.00110913585198084,16.0028540216081
-0.0010835247517378,16.00503537805
-0.00105302046860295,16.0073692081513
-0.00100920699544992,16.010389546169
-0.000981509996744369,16.0121527500293
-0.000952361406531855,16.0139159538896
-0.000924536237456251,16.0155254967944
-0.000897018376321952,16.0170568995591
-0.000868142784331053,16.0186075216479
-0.000835886033694861,16.0202793000881
-0.000796217873709995,16.0222574498406
-0.000731997358205456,16.0253010517192
-0.00065724319236228,16.0286233408902
-0.000589085193460987,16.031465516428
-0.000515643594463181,16.0343494680872
-0.000423868129501141,16.0377223634083
-0.000293437195008935,16.0421404773684
-0.00016916636792184,16.0459814769156
-2.70023957565552e-05,16.0499360314917
0.000151808959338145,16.0542181535619
0.000345918901559861,16.0582030869492
0.000555852542128735,16.0618833986586
0.000785257916959137,16.0652844969736
0.00103942025829079,16.0684398572833
0.00132459310250143,16.0713822396895
0.00164856580245791,16.0741498680986
0.00202150256609799,16.0767891896272
0.00245740656303984,16.0793592372889
0.00297818332417746,16.0819487329642
0.00362368340550221,16.0847157785622
0.0042099307252108,16.0869988160541
0.00481624095150174,16.089281853546
0.00535997605610647,16.0913706010594
0.00588411016150271,16.0935224764598
0.00645289359765043,16.0961393509596
0.00707369255466666,16.0994691306638
0.00752278681716266,16.1021391876501
0.00790399670654065,16.1043946554914
0.00830511806565956,16.1065814645584
0.00876064233251974,16.1087520819972
0.00930228398766829,16.1109355513627
0.00995214105669507,16.1131160099887
0.0107164416443492,16.1152427612429
0.0116115965053115,16.1173140671813
0.012645545058575,16.1193128129161
0.0138252593287873,16.1212284373465
0.0151569279369019,16.1230544379979
0.0166529322569612,16.1247946423202
0.0183279170916967,16.1264535377076
0.0202000045670558,16.1280366367228
0.0222916355596033,16.1295501489832
0.0246281823306242,16.1309993086908
0.0272398649809159,16.1323894702619
0.0301612458859752,16.133725382686
0.0334324721019226,16.1350115716375
0.0371004792620475,16.1362524467095
0.0412200466382441,16.1374522466664
0.0458561281323967,16.1386152786085
0.0510861560551748,16.1397459247007
0.0570036839032594,16.1408487927922
0.0637238328516018,16.1419289365671
0.0713908941970492,16.1429920680511
0.0801908448680322,16.1440449968455
0.0903721018390378,16.1450963248154
0.10228336951923,16.1461577447786
0.116451668362988,16.1472468144329
0.133160295167659,16.148356112956
0.152619045067111,16.149478040826
0.175494727001779,16.1506335524901
0.202860277643069,16.1518587726422
0.233995105782066,16.1531201084521
0.26217783317413,16.1541928818411
0.287353043469205,16.1551312809542
0.310160913312865,16.1559946323526
0.330583508929054,16.1568101256376
0.348351371898172,16.1575940261515
0.363070217442715,16.1583590570006
0.374223215937583,16.1591169392764
0.381121589852108,16.1598796075616
0.382815036523021,16.1606602377245
0.377937892692036,16.1614750011559
0.364284963785726,16.162352168542
0.340865971549398,16.1632444266024
0.306868653832825,16.1641559236224
0.276324096360048,16.1648139575842
0.241429608180456,16.165471991546
0.209145605700668,16.1660313628409
0.18048133250606,16.1665078489229
0.154575340475031,16.1669335551912
0.130882265387295,16.1673270359555
0.109072204362563,16.1676998212795
0.0889085742527596,16.168060349589
0.0701883884183021,16.1684159931452
0.0526956874818568,16.1687747993975
0.0361180440153634,16.1691486963844
0.0197262620126822,16.169565566476
0.00783139267885375,16.1699107852597
0.000421914662374628,16.1701512786883
-0.00629598916391315,16.1703917721169
-0.0119668277239952,16.170616086416
-0.0172128698293176,16.1708458971455
-0.0223477580879289,16.171097752642
-0.0272044045546395,16.1713685111762
-0.0316810207949495,16.1716564934598
-0.0357235461228722,16.171961368439
-0.0393047549737767,16.1722837009312
-0.0428903030923819,16.1726867259043
-0.0453756021667749,16.1730471308864
-0.0473882549444641,16.1734294693484
-0.0489450220919176,16.1738374860014
-0.0500572602213894,16.17427472046
-0.0507361250564671,16.1747454745107
-0.0509914179842025,16.1752550173406
-0.0508303779265546,16.1758098722786
-0.0502556968453228,16.1764187418462
-0.0492618273429212,16.1770936026932
-0.0478341904065148,16.1778493282542
-0.0459436291361452,16.1787069886842
-0.0435339987357869,16.1796991783163
-0.0404866650621968,16.1808850140259
-0.0369387115166942,16.1822335608415
-0.0335439434599486,16.1835273792944
-0.0303427617315378,16.1847723780688
-0.0273505931608754,16.1859726746307
-0.0245727128917396,16.1871304076022
-0.0220084185932843,16.1882466457435
-0.0196530967598825,16.1893218795763
-0.0174994514600262,16.1903562797797
-0.0155383415196739,16.1913498305446
-0.0137594085301877,16.1923023926669
-0.0121515756277877,16.1932137248174
-0.0106064883729037,16.194143614757
-0.00912198905528139,16.1950972945255
-0.00770222424227752,16.1960766881551
-0.00635109620176103,16.1970840691531
-0.00507227087222439,16.1981221073278
-0.0038691281403063,16.1991939706851
-0.00274470918268944,16.2003034601588
-0.00170166035212249,16.2014551922621
-0.000742173110610597,16.2026548530774
0.000132081273701108,16.2039095620236
0.00092002486676226,16.2052284113887
0.00162125906824166,16.2066233011542
0.00223617329215828,16.2081103004909
0.00276609668003977,16.2097120231664
0.00319099896139913,16.2113612167125
0.00352508253988041,16.2130652019099
0.00378406165629027,16.2148427856993
0.00398261891655478,16.216718039132
0.00413494151647458,16.2187238746548
0.00425539088852026,16.2209085209507
0.00435969578438053,16.2233498398555
0.00446780221257143,16.2261943340711
0.00461454956924749,16.2298147835501
0.00479867195093658,16.233615699177
0.00502138368011078,16.2374404386758
0.00528041702456033,16.2412714290629
0.00557579902320417,16.2451583423989
0.005909056793826,16.2491424601028
0.00628471996857664,16.2532613695502
0.00671141544053237,16.2575524421772
0.00720313065663141,16.2620557521877
0.0077813177477154,16.2668172176942
0.00845265722792924,16.2717131958387
0.00917526638016553,16.2763340132724
0.00995872934497203,16.2807125600251
0.0108179091933094,16.2848986402424
0.0117739675791024,16.2889535464908
0.0128601148922001,16.2929637203153
0.0141387241489367,16.2970824068571
0.0154229418762477,16.3007581476179
0.0164588371739061,16.3035013907552
0.0175386346503484,16.3062446338924
0.0184815266557026,16.3086192537147
0.0192951566535611,16.3107225441066
0.0200072821958083,16.312678333816
0.0206316698141437,16.3145744812689
0.0211695661763612,16.3164812263192
0.0216088833096707,16.3184597388411
0.0219277432842183,16.3206091404041
0.0220771146893722,16.3231794772041
0.0219766676733424,16.3257928154885
0.0216562410432053,16.3284061537729
0.0212663728482918,16.3305540639295
0.020833711547163,16.3325575560632
0.0206032459831136,16.333553352952
0.0203828905084445,16.3345491498407
0.0199307606467118,16.3371367435288
0.0196354820033902,16.3398372657219
0.0195077530448255,16.342633030155
0.0195544815949761,16.345547862439
0.019786718986539,16.3486085607072
0.0202186676518634,16.3518452460888
0.0208648797755368,16.355293077475
0.021733206392486,16.3589944622485
0.0228083591926283,16.3630021142947
0.0237715117939565,16.3664719987314
0.024584351031011,16.3695963375146
0.0252358380551607,16.3725714410642
0.0256826276294023,16.3754255396514
0.0258961775333526,16.3781798328756
0.025858444625174,16.380954808294
0.0255189854899462,16.3839170374045
0.0248530641840049,16.386967039804
0.023971148200466,16.3898124275652
0.0229563657541574,16.3924743588771
0.0218706272656553,16.3949805853809
0.0207571017204808,16.3973563351
0.0196427958627119,16.3996266766719
0.0185411308145951,16.4018195033555
0.0174577514860047,16.403961424758
0.0163944558479196,16.4060761569587
0.0153527260809495,16.4081817010306
0.0143342272403893,16.4102917630935
0.0133406024443072,16.4124175288287
0.0125661596401598,16.4141325592339
0.0118181479900798,16.4158475896392
0.0111562607651359,16.4174212234124
0.0105388228009632,16.4189438684166
0.00992834940084569,16.4205085571585
0.00928632244217294,16.4222266245544
0.00853950963264919,16.4243332247002
0.00773111426547746,16.4267682408574
0.00695229156691731,16.4292973010594
0.00623587939923103,16.4318166443216
0.00554307395613158,16.434467878718
0.00485148038673716,16.4373742307487
0.00417517271187771,16.4405298087939
0.00356427054825847,16.4437155835912
0.00302422278413969,16.4468649641674
0.0027528605703986,16.4485899532176
0.0025136985861733,16.4503149422679
0.00220557336138639,16.4531950048752
0.00197355521323989,16.4562163829897
0.00176580689430375,16.4602173663209
0.00164409613241695,16.4642992016465
0.00160731066670797,16.467670690486
0.00162630979188692,16.4706381481849
0.0016933191184102,16.4733683423982
0.00180766293487593,16.4759344051471
0.00197359260592392,16.4783950526508
0.00219795257064178,16.4808168403316
0.00249393930659116,16.4833005960087
0.00289575872007208,16.4860752755556
0.00325945854326139,16.488336013175
0.00362466885534214,16.4905967507943
0.00392877884224438,16.4926554785298
0.00418521654241839,16.4947555668217
0.0043937041187976,16.4971781445838
0.00451549173526448,16.5000020753211
0.00452739520775056,16.5031224498129
0.0044769661831872,16.5057004739689
0.00440763377565476,16.5082296651129
0.0043390410498276,16.5109623257962
0.00429492460795051,16.5141068329916
0.00431063337712744,16.5176442625451
0.00442270277229977,16.5216542113992
0.00472653266978614,16.5270244106995
0.0051356347598923,16.5317303355833
0.00559567627965952,16.5357617429879
0.00611577345309828,16.5394558140033
0.0066941423534815,16.5428635912802
0.00733588187242262,16.5460356762069
0.00804488194333226,16.548993984605
0.00882438639168411,16.5517522186075
0.00967701297943709,16.5543217496587
0.0106051352124874,16.5567144590353
0.0116319454446159,16.558985872585
0.0127799982714289,16.5611669324157
0.0140640605876859,16.5632622532548
0.0155008685180238,16.5652765459263
0.0171098324372582,16.5672150427096
0.0189135762443998,16.5690833451393
0.0209385649569418,16.570887290279
0.0232163808663433,16.5726332377789
0.0257849909787125,16.5743279948302
0.028690680915815,16.575978962205
0.0319917275180925,16.5775947912521
0.0357632617826979,16.5791857980323
0.0401071967063835,16.580765470151
0.0451712038452301,16.5823531028445
0.0511924958148658,16.5839801089781
0.0583721083417179,16.585654007626
0.0667950194567663,16.5873596396068
0.0769049527947299,16.5891613602573
0.0851741920191449,16.5905085169182
0.0938440245754161,16.591855673579
0.101568859384906,16.5930455018638
0.108267939417063,16.5941140305272
0.1139949148862,16.5951074792427
0.118695378718693,16.5960535433383
0.122245798408212,16.5969716853153
0.124465050879513,16.5978788929506
0.125097610925672,16.5987939567601
0.123748595284396,16.599744223609
0.119622666013938,16.6007902469509
0.112163462410558,16.6018888520901
0.103719607641131,16.6027912347006
0.093436550583078,16.603693617311
0.0834417151457654,16.604468160898
0.0739152561548842,16.6051574072389
0.0647719829569848,16.6057973303294
0.0559950003664621,16.6064069352142
0.0475898766509436,16.606998300842
0.0395624537503365,16.6075807481213
0.0319098557538,16.6081629028436
0.0246119251480185,16.608754553296
0.0176121014167871,16.6093699886966
0.0107487118179798,16.6100386389161
0.00327104313272211,16.6108768720772
-0.00104760034417531,16.6114385375094
-0.00483506753358641,16.6120002029416
-0.00790980938827607,16.6125229709672
-0.0104589514464997,16.6130202964252
-0.0126651260179904,16.6135166882467
-0.0146595310283483,16.6140411332016
-0.0164208723297994,16.6145933432836
-0.0179373152135662,16.6151738368933
-0.0192042349909503,16.6157839976266
-0.0199510216280833,16.6162369165871
-0.0204999250273597,16.6166898355476
-0.0209318520207457,16.6172665410144
-0.0211130091013372,16.6178761258431
-0.0210504312506866,16.6185212222532
-0.0207526560821378,16.6192053730531
-0.0202272967330823,16.6199347962604
-0.0194830142332807,16.6207143843269
-0.0185296230137289,16.6215498725545
-0.0173780057306991,16.6224481093306
-0.0160399228267896,16.623417525986
-0.0145274836641758,16.624469028995
-0.0128517370147324,16.6256178540589
-0.0112990910112078,16.6266914265522
-0.00983368730055124,16.6277298430247
-0.00840432324524627,16.6287805709816
-0.00701981017998683,16.6298478961257
-0.00568684241357007,16.6309363793469
-0.00441118976650756,16.6320504808815
-0.00319777564851184,16.633194844858
-0.00205072365179221,16.634374552825
-0.000973368082627943,16.6355953974167
3.17665728206992e-05,16.6368642161178
0.000963017254902196,16.6381893375611
0.00181967109203097,16.6395812226995
0.0026021068308099,16.6410534461925
0.00331202283047559,16.6426242995843
0.00395282662530723,16.6443196174948
0.00450498095589411,16.6460881027006
0.00497427357861743,16.6479142210912
0.00537976482664358,16.6498235113384
0.00573930910204533,16.6518469195536
0.00607124279362125,16.6540272275488
0.00639630179166181,16.6564292766968
0.00674169541597529,16.6591646450975
0.00715348176811256,16.6624710020404
0.00767007198358113,16.6664568185087
0.00826100229696957,16.6706973415241
0.00896399518628235,16.6753428451566
0.00970627572355198,16.6798671644033
0.0105032456493163,16.6843649399999
0.011358654158101,16.6888268202061
0.0123002944106381,16.6933375497478
0.0133446124353297,16.6978887913151
0.0145208301543247,16.7025062403142
0.0158742294405038,16.7072468952739
0.0174888209288536,16.7122506271672
0.0195939784825887,16.7179751719797
0.0215041697276612,16.7226327680987
0.0235424415794806,16.7272903642177
0.0252042337632749,16.7310414252909
0.026576710659325,16.7342791924446
0.0277303216411648,16.737294834675
0.0286638621005398,16.7402171561251
0.0293239016532851,16.7429930220185
0.0297146685730507,16.7457394675565
0.0298147643253833,16.7485968602335
0.0295423555416583,16.7518270024368
0.0285876044776747,16.7561330416433
0.0277183526297024,16.758771752624
0.0266802041621611,16.7614104636047
0.0256239130388391,16.7638103194231
0.0245640107077234,16.7660602025331
0.0235012872455446,16.7682264450177
0.0224387545559588,16.7703458468044
0.021380227695111,16.772441381811
0.0203295128769367,16.7745290850212
0.0192901751860661,16.7766210681828
0.0182654739538174,16.7787270639274
0.0172583669064911,16.7808552771682
0.0162715089776565,16.783012948057
0.0153072762513351,16.7852066889608
0.0143677676455082,16.787442763616
0.0134548169074816,16.7897272793384
0.0125700023338204,16.7920663415482
0.0117146396173971,16.79446622754
0.010889795323238,16.7969334934571
0.0100914836874018,16.7994910528679
0.00930162532249823,16.8022170284929
0.00852338091782116,16.8051306944414
0.00775966741974139,16.8082552858503
0.00701331472541656,16.8116177994205
0.00628689479559265,16.8152497844511
0.00558246136155064,16.8191883828375
0.00490116236071939,16.8234777656196
0.00424266242421289,16.8281713499473
0.00360423654537375,16.8333361418649
0.0029795408785032,16.8390605001685
0.00235847469467595,16.8454525032222
0.00204259113266381,16.8489668516877
0.00175408978650889,16.8524812001531
0.00133132547632177,16.8587917449036
0.000943022877410332,16.8662662838818
0.000645436999543129,16.8732268355967
0.000405914174221978,16.8796429552026
0.000208689684687289,16.8855528645221
4.56693200071009e-05,16.8909959837518
-8.84452739936894e-05,16.8960106512936
-0.000197848662498649,16.9006338330665
-0.000286184819439318,16.9049009224678
-0.000356708032004686,16.9088456424621
-0.000412306863610298,16.9124996630446
-0.000455508457389106,16.9158929139407
-0.000488478060573662,16.9190534774653
-0.000513040144316555,16.9220082013436
-0.000530702292432642,16.924782875248
-0.000542689780903578,16.9274032839858
-0.000549972612321099,16.9298960602806
-0.000553291514430707,16.9322908343212
-0.000553158146003461,16.9346239905086
-0.000549816746781391,16.9369476251622
-0.000543071705753325,16.939356441354
-0.000531356438946159,16.9421173742434
-0.000519376540582627,16.944261826319
-0.000504940078538027,16.9464062783946
-0.000490534714741069,16.9482562361138
-0.000475963968689414,16.9499290286197
-0.000460297815205303,16.9515650799455
-0.000442520250701051,16.9532662385391
-0.000420856691102722,16.9551660276916
-0.000390417608143711,16.9575883426425
-0.00032792029901615,16.9619208028593
-0.000263606690296384,16.9657223038198
-0.000199835232458761,16.9690282741222
-0.000121263223593509,16.9726408566021
-6.50473348163598e-06,16.9772563448843
0.000121427880204872,16.9816922737982
0.00027627322964202,16.9862860301877
0.000446923300255675,16.9905395209191
0.000636267711921575,16.9944622555371
0.000851816755966882,16.9980845560229
0.00109774941328341,17.0014407480616
0.00137914672933487,17.0045708464861
0.00170297428611187,17.0075163143835
0.00207882727100188,17.0103270899546
0.00252054200973626,17.0130689524168
0.00305034705529666,17.0158414846143
0.00371319524712309,17.0188422209922
0.00429471002166436,17.0212532078908
0.0048902521258331,17.0236641947894
0.00543199454665906,17.0259192380024
0.00597080692242264,17.0283288053728
0.00662451967865101,17.0316089906735
0.00706707175760028,17.0340801608915
0.00749359789149584,17.0365513311096
0.00791089778510059,17.0388845463931
0.00835485710133964,17.0411319041546
0.00885797013945267,17.0433405401849
0.00945440456854267,17.0455535054698
0.0101538474688073,17.0477209694486
0.010970479378743,17.0498313422972
0.0119149054095908,17.0518717282466
0.0130004331864341,17.05384026875
0.0142296476525392,17.05571977224
0.0156154355611562,17.0575144180388
0.0171691108375821,17.0592249463408
0.0189080405281713,17.0608575150964
0.0208520511274563,17.062417561134
0.0230240594598137,17.0639102081879
0.0254517557635648,17.0653410135639
0.0281665020421595,17.0667147514972
0.031205086923313,17.0680361614595
0.0346101709558916,17.0693097142595
0.0384313766038125,17.0705396816224
0.0427274526068408,17.0717304113625
0.0475679749852369,17.0728862467922
0.0530364908557878,17.0740117010134
0.059235019599379,17.0751116517298
0.0662901146350514,17.0761915024121
0.0743628059569945,17.0772575556085
0.0836645315679629,17.0783175610108
0.0944850814816004,17.0793816986244
0.107247430905458,17.0804645905048
0.122525475379791,17.0815827370594
0.14027172868447,17.082706908919
0.161039626802337,17.0838546877731
0.185676469650753,17.0850549958719
0.215732050698356,17.0863647308756
0.244449414001142,17.0875213763759
0.269695543242244,17.0885028836591
0.292544260684223,17.0893934104745
0.313164679645592,17.0902291480523
0.331347547082369,17.0910287317929
0.346732747250473,17.0918051808829
0.358850469151398,17.0925696790755
0.367096831034199,17.0933331275335
0.37067178767378,17.0941071305994
0.368472763439797,17.0949052857148
0.358852734392762,17.0957481871739
0.339857397212041,17.096638478869
0.310981511855063,17.0975410857804
0.280041400750594,17.0982858505265
0.251150519001313,17.0988807993113
0.219223665024231,17.099475748096
0.18992596622764,17.0999895367939
0.163518655417898,17.1004408226734
0.139425781020352,17.1008523501684
0.117270726268586,17.1012381926786
0.0968019146220017,17.1016079298195
0.0778204799951047,17.1019692273105
0.0601358601223637,17.1023295276514
0.0435127665607226,17.1026981757289
0.0275298303491049,17.1030920106381
0.0107543303803007,17.1035672945362
0.00212369238676232,17.103847894699
-0.00560075252058698,17.1041284948618
-0.01135781150393,17.1043614522972
-0.0165177141580379,17.1045927523786
-0.0215835158039743,17.1048466784569
-0.0263870594382405,17.1051200234251
-0.0308224927174858,17.1054109160213
-0.0348332946942932,17.1057189112038
-0.0383917853778235,17.1060445045337
-0.0415850500633981,17.1064029220344
-0.0441210304327217,17.1067624738153
-0.0461929482414002,17.1071441884061
-0.0478120686670502,17.1075510774763
-0.0489892717968802,17.1079865205038
-0.0497355946954886,17.1084546253456
-0.0500610502006582,17.1089604066589
-0.0499734752947584,17.1095100420841
-0.0494770276597827,17.1101114692478
-0.0485682054844728,17.1107761444087
-0.0472355769633237,17.1115177519308
-0.0454555208008326,17.1123553090863
-0.0431828026104056,17.1133173319302
-0.0403257967618893,17.1144526333063
-0.0368135699270138,17.1158080450023
-0.0334470997179615,17.1171053628468
-0.0302705019823181,17.1183518918775
-0.0273007913953255,17.119552486605
-0.0245439429599132,17.1207097069658
-0.0219995640461401,17.121824876844
-0.0196631699689281,17.1228986485532
-0.0175275100324131,17.123931299117
-0.0155834528705928,17.1249228842855
-0.0138206391860739,17.125873313366
-0.0122276816625874,17.1267825603156
-0.010690484015585,17.1277145072746
-0.00921435928612349,17.1286702976215
-0.00780341727329462,17.1296519179995
-0.00646158228710839,17.1306616720949
-0.00519253991376969,17.1317022656185
-0.00399968910735216,17.1327769100228
-0.00288609109085365,17.133889460165
-0.00185441526144091,17.1350446011669
-0.000906881810275147,17.1362481086895
-4.52001539315329e-05,17.1375072224813
0.000729498782970042,17.1388312018509
0.00141674031259344,17.1402321879325
0.00201680140382593,17.1417266157076
0.00253083963302532,17.1433376908511
0.00293786407025539,17.1449905999404
0.00325429165972375,17.1466996835788
0.00349546712315563,17.148483886465
0.00367569567185051,17.1503678020916
0.00380867214634513,17.1523851960868
0.00390806084764989,17.1545858376872
0.00398849578280884,17.157050775245
0.0040679468557848,17.1599348051415
0.00417682678321863,17.1636457769734
0.00431386583511498,17.1674646909381
0.00449094288598391,17.1715040180174
0.00470462059282152,17.175693416057
0.00495191659196004,17.1800681287986
0.0052302327461741,17.1846657269203
0.0055393020806054,17.1895280391743
0.00588222608201973,17.1947040140492
0.00624960590461667,17.2000166669842
0.00662813651179513,17.2052351240663
0.0070237965609508,17.2104050485417
0.00743735330271487,17.2154914359806
0.00787278117459225,17.2204998770914
0.00833412915946176,17.2254331269567
0.00882612895734196,17.2302974532338
0.00935382553420655,17.2350970303835
0.00992265570285131,17.2398339142571
0.0105385213633305,17.2445080276181
0.0112079125072807,17.2491176815157
0.0119501241212784,17.2537318401388
0.0127816183141515,17.2583698804245
0.0137204001616715,17.2630384930871
0.0147921500398626,17.2677609146791
0.016036708500682,17.2725912850249
0.0175292517733776,17.277666244002
0.0194759837818729,17.2834319315706
0.0212677342399903,17.28816634704
0.0226738182804984,17.2916574501283
0.0241167813898369,17.2951485532167
0.0254973485514862,17.2985325944522
0.0266736968146349,17.3016306196714
0.0276492109098966,17.3045976706955
0.0283787018438763,17.3074351374776
0.0288435579962387,17.3101853221534
0.0290335032460091,17.3129709229246
0.0289010461664963,17.3159693908341
0.0282669401938126,17.3196613602326
0.0274084509656307,17.3226575388442
0.0262958761662347,17.3256537174559
0.0251795734742268,17.3282324197273
0.0240727413809682,17.3305732302353
0.0229659139100352,17.3327933146329
0.0218588085760885,17.3349472792801
0.0207542502056176,17.3370656772991
0.0196557209830324,17.3391685755635
0.0185666946583841,17.3412705980972
0.0174904460854525,17.343383234112
0.0164300008427451,17.3455160669685
0.0153881217445279,17.3476775223526
0.0143673202443069,17.3498753430288
0.0133698587504347,17.3521169551399
0.012397766757679,17.3544097336982
0.0114528487892957,17.3567612481146
0.010536686041962,17.3591795138493
0.00965065917899369,17.3616731994632
0.00879594172655046,17.3642519387663
0.00797352010781347,17.3669266235266
0.00716742248027788,17.3697715899368
0.00637740998391927,17.3728230669013
0.00560748202652,17.3761092977301
0.00489966309095755,17.3794737411057
0.00430282422130094,17.3826345056515
0.00379576197214427,17.3856129479743
0.00335996335304065,17.3884404805866
0.00298033313846228,17.391151937087
0.00264405312763604,17.3937898042061
0.00234224833856842,17.3964147189126
0.00211638480372613,17.3987182057295
0.00186054122272662,17.4018038584264
0.00168546483319017,17.4042771793047
0.00153126363010644,17.406750500183
0.00141395239209703,17.408852755673
0.00131830557116217,17.4107348715546
0.00123296396250839,17.4125666343779
0.0011520801250635,17.4144640776077
0.00107065911339824,17.4165736588672
0.00097997799574311,17.419240203407
0.000845638872103978,17.4242011710959
0.000766413299239937,17.4283894559828
0.000722659800760026,17.4319465224928
0.000698494816799045,17.4358185780826
0.000701359095863501,17.4406612796383
0.000743852941920866,17.4453764911393
0.000822956821156989,17.4496968969176
0.000932119456955171,17.4536859168458
0.0010693951974898,17.4573898905371
0.00123572536626146,17.4608483966754
0.0014339025036275,17.4640986917778
0.00166850206482649,17.4671827978668
0.00194639785168175,17.4701532499117
0.00227803556651982,17.4730820713894
0.00268003653361195,17.4760776486898
0.00319056375984644,17.4793943107707
0.00364156831506071,17.4821249983324
0.00408776622094461,17.4848556858941
0.00446546462786256,17.4873722063207
0.00480932912884105,17.4900578997091
0.0051652035765067,17.4936853568285
0.00538153832088978,17.496748392913
0.00555350269732048,17.4998114289974
0.0057070012817605,17.5026733065231
0.00588681904755414,17.5055908301936
0.00613076993115163,17.5086865569616
0.00647101358042866,17.5119419204694
0.00693998248581644,17.5153354862569
0.00752635109549594,17.518615712334
0.00820563060188282,17.5216417849875
0.00896690682192407,17.5244116336594
0.00980478311833905,17.5269471679841
0.0107168285327959,17.5292731281215
0.0117202334589123,17.5314485296425
0.0128397761807787,17.5335207813074
0.0140886588688286,17.5354983782161
0.0154821615818462,17.5373887732988
0.0170380273952399,17.5391988377163
0.0187759734122481,17.5409341870983
0.0207190332522934,17.5426005223722
0.02289361028625,17.5442031596006
0.0253302331458877,17.545747239206
0.0280648014251269,17.547238012677
0.0311393466242486,17.5486806376428
0.0346043603282458,17.5500806282584
0.0385207409698939,17.5514437623538
0.0429637961548454,17.5527764909021
0.0480289180073811,17.554086303754
0.0538412578239526,17.5553824411043
0.0605732455010115,17.5566772000592
0.0684803867967241,17.557988690665
0.0779877354801225,17.5593476774916
0.0891100771726934,17.5607218311784
0.102185024961395,17.5621302887267
0.117914914550533,17.5636277043807
0.130880618281716,17.5647595832741
0.14445586920098,17.5658914621676
0.156725765747954,17.5669043390451
0.167586622478034,17.5678284106034
0.177060023285509,17.5686971788697
0.185019152978984,17.5695307617436
0.191242341836392,17.5703431763221
0.195431398961005,17.5711462051872
0.197199969446625,17.5719520586607
0.196018983999538,17.5727769358328
0.191020906119143,17.5736514111073
0.180859341903276,17.5746025474956
0.165315063432939,17.575576262312
0.151216000790633,17.5762740537085
0.135043583317395,17.576971845105
0.119426741820179,17.5775892385867
0.104727996415581,17.5781442138363
0.090833616498311,17.5786601105749
0.0776854067366286,17.579151051103
0.0652520235592621,17.5796267326721
0.0535039556782362,17.5800950581853
0.0423996650349407,17.580563751975
0.0318677915864065,17.5810422229764
0.0217602762865921,17.5815457528084
0.0116466517209024,17.5821125395471
0.00453919051000311,17.5825651806138
-0.00172944321073643,17.5830178216805
-0.00650092578343649,17.5834089558106
-0.0103697289659858,17.5837665740521
-0.0137374550139659,17.5841176011894
-0.016910180338816,17.584494130753
-0.0198238444050353,17.5848942994964
-0.0224380629510107,17.5853172399552
-0.0247318696573091,17.5857633150891
-0.0266959103309544,17.5862337392836
-0.0283279299539843,17.5867303790169
-0.0296301062096715,17.5872556656128
-0.0306561994727885,17.5879037963782
-0.0310947405080022,17.5884542445091
-0.031210885303303,17.5890402939585
-0.0310138343528167,17.5896672616511
-0.0305107753594008,17.5903415508041
-0.0297068676425577,17.5910707720456
-0.0286068418958567,17.5918631144447
-0.027214548177299,17.5927287310099
-0.025532297936709,17.5936806196729
-0.023559421488374,17.5947362831172
-0.0212884530979505,17.5959213446324
-0.0190346042753331,17.5970987042256
-0.0169479035936171,17.5982110707342
-0.0150342905252854,17.5992648283059
-0.0132895845747573,17.6002651849039
-0.0117064220595272,17.60121541875
-0.0101801215293025,17.6021796408589
-0.00870782901742513,17.6031652291173
-0.00729473760515119,17.6041746951813
-0.00594551730481411,17.6052108367498
-0.00466440032926348,17.6062767926975
-0.00345516422324743,17.6073761704826
-0.00232110317460986,17.6085132045178
-0.00126498809548182,17.6096929638305
-0.00028901555156147,17.6109216360835
0.000605256121768624,17.6122069318805
0.00141698792232663,17.6135586848292
0.00214616767569035,17.6149897851874
0.00279376276267718,17.6165177174207
0.00336195873480147,17.6181672814553
0.00382682091724218,17.6198609907327
0.00420520314253032,17.62161330639
0.00451348668541062,17.6234452711753
0.00476712309493948,17.6253840863579
0.00498133930703439,17.6274673777161
0.00517214194835561,17.6297515100553
0.00535827103342203,17.6323309087192
0.00556652003614311,17.6353957422687
0.00583477644785333,17.6392176427018
0.00613951132613716,17.6431938760185
0.00652584143412629,17.6477624996272
0.00699355917717635,17.6528299863495
0.0074812468988208,17.6577539434459
0.00799447108096598,17.6626371929904
0.00853108202315934,17.667449226029
0.00909634074667455,17.6721994979455
0.00969715966791928,17.6768929550536
0.0103413379407569,17.6815317275145
0.0110368698834124,17.686113535848
0.0118012028158303,17.6906864478867
0.0126554555843611,17.6952934910329
0.0136173452450638,17.6999349553005
0.0147126847808805,17.7046316736697
0.015980440490021,17.7094321195932
0.0174921497381936,17.7144588635739
0.019433608672106,17.7200963542151
0.0213511150113699,17.7250509509912
0.0229415000576649,17.7288867346148
0.0245683565338164,17.7327225182384
0.0259616820274153,17.7360992265793
0.0271289289401607,17.7391812106156
0.028085342521616,17.7421431839628
0.0287830165186095,17.7449676740457
0.0292102107663002,17.7477145376613
0.0293585678587938,17.7505085969167
0.029182015354124,17.7535370803677
0.0284726719334197,17.7573498774168
0.0276008457086963,17.7602701727301
0.0264953200133362,17.7631904680435
0.0253834424762551,17.7657349433268
0.0242787150789226,17.7680594556069
0.0231735964830097,17.7702698915377
0.0220681805118734,17.7724173811687
0.0209652582226473,17.7745311167357
0.019868200381019,17.7766304632416
0.018780357250738,17.7787296114278
0.01770488498721,17.7808397402065
0.0166446961197906,17.782970186694
0.0156024507362807,17.785129152519
0.0145805649978198,17.7873241636411
0.0135812168038132,17.7895624150345
0.0126063634899112,17.7918510202542
0.011657746546028,17.7941972531245
0.010736906645974,17.7966087534203
0.00984519371952528,17.7990937488993
0.00898377742863711,17.8016612996991
0.00815169607673738,17.8043281158542
0.00733019632938492,17.8071783382458
0.00652332907515444,17.8102344672284
0.00573514963023308,17.813524278172
0.00496999230228255,17.8170812022432
0.00424828372499852,17.8208577709357
0.00365104628709585,17.8243842570443
0.00315428482377329,17.8276749374892
0.00273686759105107,17.8307594348029
0.00238225800077641,17.8336675824455
0.00208079724584587,17.8364301974011
0.00184592450506849,17.8389621627485
0.00164007257637227,17.8415450198766
0.00146176991424061,17.8441154067787
0.00129937919739286,17.846779545127
0.00113586831274171,17.84984260342
0.0010257639561838,17.8521757682419
0.000926833362667414,17.8545089330638
0.000849431998678272,17.8565340565288
0.000785746244905693,17.8583695151389
0.000729113113204418,17.860167243003
0.000675978669149268,17.8620399754271
0.00062334259429358,17.8641385341808
0.000565972812075257,17.8668414566824
0.000491513039581327,17.8716511052848
0.000455975427085212,17.8756605591675
0.000443855641562671,17.8791391793878
0.000449762350742334,17.8829688987176
0.000484988150556967,17.8877915198023
0.000550400719671864,17.8924806059492
0.000641330843789656,17.8968100648446
0.000759285930864718,17.9008163084803
0.000905752030522777,17.9045330141188
0.00108106817493938,17.9079979764928
0.00128785849506892,17.9112493082872
0.00153063282217403,17.9143273524995
0.00181597057320376,17.9172793050981
0.00215376432199833,17.9201696198789
0.00256051192024475,17.9231007191189
0.00306821240162544,17.926269442396
0.00355271269561645,17.9290456072323
0.00404156580915574,17.9318217720685
0.00445053773551125,17.9342981690939
0.00482264670487238,17.9368678062715
0.00519243467284225,17.9400325610875
0.00546774842827293,17.9431245618196
0.00568726894528921,17.9462165625517
0.00587511163731771,17.9490689893084
0.00607654590716761,17.951854651676
0.00633076926924904,17.954731955635
0.00667366278766703,17.9577566707316
0.00714294092922912,17.9609446214352
0.00772655176109343,17.9640344791599
0.00841621520011289,17.9669484126694
0.00919531753794443,17.9696338883075
0.0100532985563245,17.9720909291147
0.0109882339504226,17.9743464878582
0.0120288784950606,17.9764791654777
0.0131897655339015,17.9785080639752
0.0144850545937503,17.9804433092641
0.0159300883854551,17.9822920309407
0.0175429324257953,17.9840610963172
0.0193443245916334,17.9857566956641
0.0213577450509256,17.9873842720217
0.0236106539156424,17.9889493006643
0.0261344432066923,17.9904567786501
0.0289661082908255,17.9919118562893
0.0321489181200294,17.9933195633209
0.0357346448724192,17.9946851985687
0.0397855594643561,17.9960142836316
0.0443785058562821,17.9973129749507
0.0496099972635355,17.998588263993
0.0556058123714036,17.9998487115804
0.0625368737026597,18.0011054478704
0.0706516293340438,18.0023744623955
0.0803496291081512,18.0036818217012
0.0917834695778882,18.0050130841684
0.105177533298483,18.0063697141923
0.121156590668532,18.0077945672109
0.13552647361219,18.0089587533513
0.15076759307785,18.0101229394918
0.164581938809248,18.0111542661361
0.176848361619892,18.0120855631057
0.187662431752711,18.0129562334713
0.19692097375509,18.0137884852314
0.204404993763886,18.0145968361567
0.209812901065945,18.015392688618
0.212759743118867,18.0161869234802
0.21274295001466,18.0169926015719
0.20902841112911,18.0178302803506
0.200155039611187,18.018750654027
0.185585411639514,18.0196969323605
0.170041901287092,18.0204563387501
0.151489384176588,18.0212157451397
0.133935444376092,18.0218583481577
0.117645986181013,18.0224202143824
0.102345379900487,18.0229345113697
0.0879163308610577,18.0234187929698
0.0743042232747966,18.0238840698439
0.0614686183740843,18.0243386727662
0.0493638635872322,18.0247901183185
0.0379228697592119,18.025246710336
0.0270240438725054,18.0257203384201
0.0163740074966277,18.0262354559878
0.0046358395548739,18.0268934191165
-0.000964476720238114,18.0272566001855
-0.00596850881827183,18.0276197812546
-0.0101409935653017,18.0279598283391
-0.0137373269328069,18.0282891244645
-0.0171561880817514,18.0286438915358
-0.0203198889715144,18.0290219101573
-0.0231784308001751,18.0294219602956
-0.025705483040042,18.0298441574624
-0.0278887437518317,18.0302895235975
-0.0297244012430965,18.0307597605715
-0.0312138823535899,18.031257147577
-0.0323253788840561,18.0317845107484
-0.0330032055859988,18.0323138891799
-0.0333284842926004,18.0328696148682
-0.0333228076723989,18.0334639628486
-0.0329943010873287,18.0341020400074
-0.0323483629479257,18.0347918307678
-0.0313889240751186,18.0355412812569
-0.0301187032592828,18.0363600409949
-0.028538456945295,18.0372603771691
-0.0266456551471875,18.038258555196
-0.0244313685957906,18.0393776704698
-0.0219627606907561,18.0406088166273
-0.0196535410779893,18.041772509596
-0.0175228821752789,18.0428749224855
-0.0155706149838443,18.0439225586192
-0.0137914673352383,18.0449194585532
-0.0121774982884447,18.0458681289294
-0.0106388021565172,18.0468213581248
-0.00915473810108655,18.0477963027178
-0.00773050235788571,18.0487951886683
-0.00637065611893817,18.0498206407061
-0.00507937357765203,18.0508756237732
-0.00386041766059575,18.0519635606005
-0.00271710761232973,18.0530884780687
-0.00165227724764835,18.0542551998057
-0.000668224064731147,18.0554696093852
0.000233352024264547,18.0567390235468
0.00105142369461762,18.0580727426567
0.00178573196781241,18.0594828998145
0.00243691702783339,18.0609858433217
0.00300671438740554,18.0626045464772
0.00347573335038831,18.0642814463073
0.00385419747317032,18.0660127908798
0.00415863394435672,18.0678189077609
0.00440433997888556,18.0697251246433
0.00460617121323969,18.071766033727
0.00477936158060736,18.073992496989
0.00494100982705095,18.0764873266573
0.00511376770566239,18.0794089977382
0.00534063325537681,18.0831777080842
0.00559684598275312,18.0870596114903
0.00592011751698166,18.0914518454083
0.00632684143406628,18.0964685757667
0.00676874122877701,18.1015258701329
0.00722925510475702,18.1064967785627
0.00770918557598237,18.1114020882367
0.00821086950757008,18.1162340685951
0.00874095501924381,18.1210045481114
0.00930673673316179,18.1257181288483
0.00991585048382567,18.1303752888582
0.0105762295849046,18.134973891745
0.0113028756728073,18.1395502891035
0.0121181977059584,18.1441603766877
0.0130392444869246,18.148801320966
0.0140910774953626,18.1534920379601
0.0153105236485473,18.158275077122
0.0167625621215068,18.1632563574123
0.0186036041761374,18.1687501314159
0.0210345133082692,18.1750732218328
0.0225941768459766,18.1788080537478
0.0241911474229589,18.1825428856628
0.0255885292606395,18.1858889277309
0.0267701305473259,18.1889585340304
0.0277465945157953,18.1919174004604
0.0284648096171698,18.1947334404704
0.0289168921093143,18.1974791304678
0.0290903443002138,18.2002811722024
0.0289304267787597,18.2033352242114
0.0282095802481984,18.2072557448429
0.0273582694031519,18.2101209357015
0.0262843788188288,18.21298612656
0.0251974819446463,18.2155049319385
0.0241135067897632,18.2178172775266
0.0230276817484113,18.2200208908006
0.0219411414083262,18.2221642442239
0.0208571324768009,18.2242754609184
0.0197792780793818,18.2263733569916
0.0187110879532025,18.228471790964
0.0176558253206985,18.2305817131263
0.0166164738409005,18.2327122863025
0.0155957397412339,18.2348715593295
0.0145960609676702,18.2370669164712
0.0136196209922702,18.2393053954291
0.0126683601756991,18.2415939395629
0.0117439862332693,18.243939613622
0.0108479885281192,18.2463497925637
0.00998164376523568,18.2488323720964
0.00914603189674748,18.2513959671697
0.00833628115653858,18.2540699365706
0.00753788340394958,18.2569269802682
0.00675466326762799,18.2599892009991
0.0059904541665645,18.263283391676
0.00524931726591571,18.2668412389702
0.00453548927351097,18.2707007219619
0.00385330927658157,18.2749081161815
0.0032070666499538,18.2795213984651
0.00260071079529868,18.2846167929735
0.002262387136119,18.2878978702676
0.00196996088504659,18.2911789475616
0.00166077755549244,18.2954503948805
0.00142415137989646,18.2994483246271
0.00123737104109127,18.3031660283436
0.00108604478189324,18.3066372997596
0.000961446623989803,18.3098961598494
0.000857733117327752,18.3129767854746
0.000770624128560853,18.3159155001354
0.00069676415061291,18.3187544939576
0.000633349241482249,18.3215498984507
0.00057776452378152,18.3243937572622
0.000526689785128665,18.3275013420447
0.000488237783753992,18.3303481568093
0.000457276395594448,18.3331949715738
0.000437433555655971,18.3355002173038
0.000423749989174231,18.3375171336308
0.000413707180414249,18.3394614127049
0.000406529444193487,18.3414600421464
0.000402249948441209,18.3436600470726
0.00040214104084386,18.3463812953273
0.000418482360264506,18.3517983479997
0.000451256080772251,18.3563951783167
0.000498364174021617,18.3601663961122
0.000571441431673617,18.3642177028701
0.000689525669298953,18.3692391233977
0.000828613480885623,18.3739745041717
0.000985100265431992,18.3783591076077
0.00116114788754139,18.3824279916117
0.00136074647191242,18.3862168028925
0.0015889925629683,18.3897639148322
0.00185241369282614,18.3931167745931
0.00215928203481773,18.3963304648228
0.00252083516508858,18.3994764634786
0.00295410957792036,18.4026618400203
0.0034928353139007,18.4061039178419
0.00401008447151664,18.4091463128439
0.00453172090616167,18.4121887078458
0.00497530270674949,18.4149320239577
0.00540493943087285,18.4179128338137
0.00590234653325889,18.4220036048386
0.006219809974321,18.4250217174307
0.00652989662194213,18.4280398300227
0.00684021573561666,18.4308229054793
0.00720371901857638,18.4336134805463
0.00764947027766086,18.4364255174593
0.0081932814128058,18.4392039962602
0.00885214020639444,18.4419329649026
0.00960615436393289,18.4444888130962
0.010454351877879,18.4468734236605
0.0113871100295623,18.4490749230525
0.0124352503020938,18.4511690785884
0.0136082397099206,18.4531615582622
0.0149188782501623,18.4550603817554
0.0163818584460772,18.4568723952081
0.0180148005048616,18.4586045029771
0.0198377817866365,18.4602627208257
0.0218742232420345,18.4618528586005
0.0241508260542352,18.4633801234932
0.0266987861041362,18.4648496787489
0.0295540024839759,18.4662663163586
0.0327588565018618,18.4676349466224
0.0363630471197884,18.468960365637
0.0404262624635683,18.4702476529013
0.045020571347304,18.4715021289585
0.0502351210997336,18.4727297252077
0.0561826571011829,18.4739372896326
0.0630104432076981,18.4751331848154
0.0709203627858471,18.4763284786462
0.0802078402844153,18.4775391658253
0.0913531171377018,18.478791647098
0.104390006630409,18.4800579823961
0.119672019300811,18.4813512917233
0.137914594501805,18.4827125285798
0.154525576427012,18.4838393405223
0.172150139225399,18.4849661524649
0.188210615356166,18.4859684787655
0.202594513789853,18.4868790631714
0.215384273665287,18.4877340833305
0.226441383023229,18.4885538176667
0.235499503036909,18.489351419551
0.242202364806506,18.4901370361087
0.246106993883893,18.4909200587598
0.246656449323088,18.4917112640503
0.243087543076816,18.4925265966346
0.234051390977308,18.4934023759204
0.218393663245994,18.4943232787586
0.195772152516176,18.4952718106867
0.17763089741071,18.4958968530664
0.157416446429408,18.496521895446
0.138194494112448,18.4970776085578
0.120290040154789,18.4975789774228
0.103533715502911,18.4980454119123
0.0878173893604782,18.4984893210181
0.0730671303075694,18.498919584753
0.0592147311522159,18.4993437058606
0.0461781926224248,18.4997693565849
0.0338316901880641,18.5002065440119
0.0219156628003252,18.5006734556463
0.00953265796217054,18.5012277325259
0.00202404457845159,18.5016140336439
-0.00460003301985025,18.5020003347619
-0.00934714667249209,18.5023130080234
-0.0133574500010115,18.5026084285384
-0.0172206583539619,18.5029289548594
-0.020834395946241,18.5032719524792
-0.0241307034408466,18.5036357299652
-0.0270733735533651,18.5040200656712
-0.029644834412184,18.5044257149654
-0.0318386313849646,18.504854145043
-0.0336550778982243,18.5053074140204
-0.0350700910965412,18.5057881318557
-0.0360352593440275,18.5062810123344
-0.0366134597888136,18.5067987134257
-0.0368313653676112,18.5073529176094
-0.0366970777517136,18.5079486752834
-0.0362171444364701,18.5085925177614
-0.0353942345224015,18.5092933827854
-0.034228713988035,18.5100609262112
-0.0327176600056953,18.5109074964986
-0.0308530272410795,18.5118495293117
-0.0286178281959991,18.5129103185248
-0.0259762190578386,18.5141265978008
-0.0233023009857616,18.5153542485803
-0.0208055696246809,18.5165208792659
-0.0184985285099889,18.5176322832797
-0.0163805036531808,18.5186931427517
-0.0144461071989374,18.5197063266408
-0.0126872855134578,18.5206735905857
-0.0110869784969082,18.5216004320215
-0.00953844899119008,18.5225488795827
-0.0080474973353353,18.5235203414313
-0.00661853780004387,18.5245170656262
-0.00525567711884349,18.5255415940116
-0.00396267346338766,18.526596859616
-0.0027428960493298,18.5276863017488
-0.00159927595446058,18.5288140160036
-0.000534247947858666,18.5299849560254
0.000450318280019847,18.5312052136677
0.00135320108260032,18.5324824214292
0.00217393103791322,18.5338263531872
0.00291292988481345,18.5352498627174
0.00357171118457064,18.5367704346588
0.0041513428577319,18.5384070889696
0.00462906453959891,18.5400833068141
0.00502407533311945,18.5418187695594
0.00535315455264139,18.5436337036486
0.00563261392141935,18.5455546474139
0.00587909316552456,18.5476184011363
0.00611091720036295,18.5498800963735
0.00635090069705002,18.5524318891703
0.00663415598375691,18.5554583528639
0.007015709880427,18.5592371284867
0.00746279989650606,18.5631606730981
0.0080461886029759,18.5676522150267
0.00878593590867726,18.5726614698569
0.00966066931055812,18.5779225881311
0.0105975674895278,18.5830056853201
0.0116029150299952,18.5880315119776
0.012383921477056,18.5917502781206
0.0131743158311464,18.5954690442636
0.0138599406719329,18.5987738145506
0.0144423654509639,18.6017696108038
0.0149346342754703,18.6046022302658
0.0153391853752543,18.6073784507466
0.0156504503800697,18.6102025978703
0.015852831510512,18.6132221854385
0.0159055353676809,18.6167731905101
0.0157156825092305,18.6210268529336
0.0153653364129819,18.6247400811031
0.015088907147018,18.627740136521
0.0149486139570621,18.63049928374
0.0149113885324302,18.6336545599189
0.0150044673642065,18.6370048052432
0.0152459687074314,18.6405819906238
0.0156649539796891,18.6444322353698
0.0163059682472551,18.6486136371164
0.0171897615698943,18.653003903874
0.0182305068351771,18.6571808015801
0.0193576818776045,18.6610511336061
0.0205127207148454,18.6646283661819
0.0216694507607006,18.6680312466995
0.0227708582710448,18.6712892836197
0.0237255756138674,18.6743265604491
0.0244931024586775,18.6771749503891
0.0250468912307326,18.6798501197257
0.0253811605546477,18.6823756464185
0.0255041327321033,18.6847761901595
0.025432095935807,18.6870785309857
0.0251831565913304,18.6893146119839
0.0247704281270128,18.6915282116773
0.0241914141136316,18.6937932277498
0.0233941326920398,18.6962880388338
0.022393874079857,18.6989475280344
0.0216566510604767,18.7007272942048
0.020878443446683,18.7025070603751
0.0201394519302992,18.7041359282719
0.0194124645506061,18.7057013489174
0.0186594247455333,18.7073002887377
0.0178336002571309,18.7090426882244
0.016838138677233,18.7111471600018
0.0158438145600566,18.7132739324009
0.0148614786910807,18.7154186640449
0.0138939467709152,18.7175918147831
0.0129433343591418,18.7198040017791
0.0120114628153688,18.7220657200253
0.0110995060822201,18.7243887188297
0.0102083230078249,18.7267857427844
0.00933769909021564,18.7292732666826
0.00848687946469142,18.7318712453945
0.00765337682987179,18.7346085894395
0.00683219028903936,18.7375297448022
0.00601372293961933,18.7407098999061
0.00517444543994311,18.7443119371984
0.00489108939084428,18.7456195963762
0.00464097424928892,18.746927255554
0.00429377790237933,18.7491564864904
0.00399343011401851,18.7517035646006
0.00372637529687802,18.7548888740936
0.00355034399609642,18.7582322717835
0.00347815400849123,18.7611709966547
0.00348122025364657,18.7638701400698
0.00355093618153345,18.766448362418
0.00368948439654551,18.769020683467
0.00391202237156192,18.7717800322316
0.00417737198745021,18.7743975580734
0.00445987528430134,18.7770150839153
0.00467471640759318,18.7792079621876
0.00483805223416759,18.7813676784682
0.00494341132802275,18.783806961637
0.00495552723298886,18.7865639374781
0.00484889826222969,18.7898375178705
0.00469931249099932,18.7925359619242
0.00453503703847675,18.7951593053717
0.00436661407227066,18.7979818017875
0.00420878808366717,18.8012526016641
0.00409950627003005,18.8048458916049
0.00406226408279169,18.8089682576283
0.00415384414064953,18.8148444387827
0.00434158408467615,18.8196714258812
0.00461328259016528,18.824428010859
0.00492505219302184,18.8286297223091
0.00529433274139731,18.8326704410209
0.00571918340647115,18.8365076338379
0.00620667660178837,18.8401710776773
0.00676094470022991,18.84365094439
0.0073853175431747,18.8469374323108
0.00808201395579101,18.8500237194604
0.00885268889999368,18.8529094608777
0.00969884474838244,18.8556004160652
0.010622280429049,18.8581072079569
0.0116403799803821,18.8604758764822
0.0127810435638469,18.8627540611908
0.0140592509786419,18.8649464387496
0.0154926031593356,18.8670586321753
0.0171017491317733,18.8690967890556
0.0189112277485093,18.871067652948
0.0209505462300843,18.8729786002019
0.023255123779538,18.8748373287256
0.0258698698220363,18.8766533039877
0.028851381136363,18.8784371319984
0.0322764896632198,18.8802030904681
0.0362532164318011,18.8819704102044
0.0409523455425167,18.8837703273184
0.0466102079877077,18.8856382697555
0.0532335686056665,18.8875328750849
0.0611476174773403,18.8895186498969
0.0678685395141259,18.8910518077424
0.0749605088272107,18.892584965588
0.0812531188713395,18.8939263432797
0.0866647046391437,18.8951163191932
0.0912707966083642,18.8962141425463
0.0950451344613533,18.8972541631617
0.0978991853879162,18.8982597466289
0.0996956190895827,18.8992508472374
0.100235601076644,18.9002491889701
0.0992055917514867,18.901286076687
0.0959623940184527,18.9024303311777
0.0900446457239132,18.9036348212349
0.0833758077490437,18.9046182020788
0.0752573050197729,18.9056015829227
0.0673004615543815,18.9064526192099
0.0596682256174425,18.9072143023199
0.0523075168932237,18.9079244371881
0.0452129420944397,18.9086032540417
0.0383949695250753,18.9092636966326
0.0318633790166355,18.9099158169476
0.0256201576701973,18.9105690087499
0.0196523630155436,18.9112340819398
0.0139155867145943,18.9119271278887
0.00827284143561537,18.9126822726003
0.002031480078005,18.9136446156417
-0.00168614278244467,18.9143130611936
-0.0049199582954653,18.9149815067455
-0.00752970620546969,18.9156059091037
-0.00967728964801922,18.9162020109925
-0.0114814571597737,18.9167860293481
-0.0130834088914247,18.9173988119082
-0.0144752865240162,18.9180418616808
-0.0156515001433833,18.9187161611622
-0.0163988798533889,18.9193051772913
-0.0168701266712295,18.9198941934203
-0.0171120124136978,18.9205051258946
-0.0171392614288107,18.9211488964311
-0.0169593999500403,18.92182813039
-0.0165803417044999,18.9225473381992
-0.016010194200252,18.9233111989645
-0.0152585445832694,18.9241240362451
-0.0143362381959463,18.9249909133831
-0.0132552120732408,18.9259179121011
-0.0120281643615263,18.9269126378397
-0.0106678292806352,18.927985201624
-0.00925189517269483,18.9290976277398
-0.00786166173633706,18.9302079693064
-0.00650544777682189,18.9313266492406
-0.00519162259609928,18.932460749654
-0.00392713534060676,18.9336164648516
-0.00271775243733492,18.9347996974913
-0.00156817548756196,18.9360165079238
-0.000482097908168591,18.9372735081693
0.000537789203962995,18.9385782797799
0.00148983953604659,18.9399398900643
0.00237354959561926,18.9413696057605
0.00318973380503359,18.9428819688737
0.00394082544147916,18.9444965493551
0.00463141374676289,18.9462410490799
0.00524275398552827,18.94807053312
0.00577637229431329,18.9499594730484
0.00625328151730036,18.951937272883
0.00669333170902527,18.954038915984
0.00711772551479039,18.9563132237943
0.00755201777133946,18.9588358026777
0.0080330725713008,18.9617420412461
0.00863306566795681,18.9653454022194
0.00935312105019953,18.9694677515058
0.0101862996346879,18.9738979030951
0.0110698263787871,18.9782240908982
0.0120431638118727,18.982603813408
0.0131245829362487,18.9870542274025
0.0143394240165485,18.9915943082685
0.0157305246397128,18.9962752481964
0.0173809855163504,19.0012315879631
0.0195228530326073,19.0069190925087
0.0214572484077929,19.0115506791184
0.0235139732571251,19.0161822657281
0.0251915032216898,19.0199215094932
0.0265775987386761,19.0231530244869
0.0277435459470786,19.0261648313047
0.0286885893895905,19.0290848005773
0.0293590318901785,19.0318594111153
0.0297594951661667,19.0346054867718
0.0298689097488732,19.0374635963585
0.029605653930451,19.0406969730427
0.0286659072132716,19.0449900579595
0.0278045411393638,19.0476273810033
0.026773936401864,19.0502647040472
0.0257240511195675,19.0526635285893
0.0246697077795415,19.0549126302896
0.0236119378972274,19.0570781976341
0.0225538745639964,19.0591969696995
0.0214993975100799,19.0612918903013
0.0204523460206041,19.0633789805272
0.019416298368666,19.0654703468676
0.0183945130053097,19.0675757216128
0.0173899326062949,19.0697033185614
0.0164051874188071,19.0718603886
0.0154426140207019,19.074053568344
0.0145042610290495,19.0762891502035
0.0135918958768914,19.0785732849149
0.0127070122554112,19.0809121398752
0.011850823565804,19.0833120675056
0.0110242669340343,19.0857797324253
0.010223339569294,19.0883376608501
0.00942960698870544,19.0910641481367
0.00864585710647663,19.0939785268293
0.00787450267975394,19.097104127065
0.00711769314012175,19.100468091939
0.00637708126229566,19.1041021996774
0.00565348214790207,19.1080439575153
0.00494638819926913,19.1123381321503
0.00425328668268822,19.1170391513951
0.00356867261363145,19.1222157998964
0.00288282929792133,19.1279598709442
0.00268427031693241,19.1297262711523
0.00249227562877595,19.1314926713604
0.00226830112652266,19.1337029991973
0.00189058285758777,19.1378684249141
0.00156967830124292,19.142033850631
0.00119969013811944,19.1478242747368
0.000871752280071862,19.1538974751702
0.000604640684977626,19.1595249548243
0.000382989160272827,19.1647137687768
0.00019785825016263,19.1694995222467
4.33856917939269e-05,19.1739173913742
-8.49758054310127e-05,19.1780009165618
-0.000191074457486131,19.1817818343962
-0.000278269178544416,19.1852901802583
-0.000349499674907026,19.1885543933702
-0.000407317097702295,19.1916015104929
-0.000453909043865531,19.19445756889
-0.000491127921970557,19.1971482121686
-0.000520518894618852,19.199699519575
-0.000543352339891363,19.2021396528597
-0.000560645532645565,19.2045015666914
-0.000573172755796882,19.2068293141019
-0.00058143109259613,19.2091944014804
-0.000585443337310989,19.2117579897134
-0.000584514467055523,19.2142866143884
-0.000580541039778782,19.2162472469529
-0.000573800715037343,19.2182078795173
-0.000565516835980622,19.2199529335648
-0.00055575605394884,19.2215999736613
-0.000544037001342838,19.2232592257409
-0.000529384100619249,19.2250383759952
-0.000509464784869662,19.2271245577403
-0.000474466270267176,19.2302201170112
-0.000425758760818138,19.2337958985163
-0.000377340186576991,19.2368172280444
-0.000322088627978629,19.2398351870841
-0.000249507715668106,19.2433159100006
-0.00014257753927242,19.2477579622433
-1.79144650825498e-05,19.2521953758715
0.000132888823962054,19.2567713380081
0.000299311173635568,19.2610176347506
0.000483550199695506,19.2649378473366
0.000689362842461561,19.268560215405
0.000921692182729589,19.2719211297168
0.0011863346385419,19.275056102643
0.00149053320751431,19.2780052731601
0.00184556279156391,19.2808185302654
0.00226431767039031,19.2835590800723
0.00276662523273393,19.2863199503796
0.00339152314726956,19.2892789354735
0.0039646022542371,19.2917483325388
0.00455472062161073,19.2942177296041
0.00508023519899743,19.2964759393337
0.00559047311969381,19.2988373641637
0.00616473047339554,19.3018460904102
0.00660554627604557,19.30448152656
0.00701448882059841,19.3071169627098
0.00739048395440978,19.3095206640718
0.0077836443883408,19.3118301688598
0.00823089328360582,19.314119211908
0.0087666651793456,19.3164311913526
0.00940655628645689,19.3187227674518
0.0101583412166755,19.320951456859
0.0110234065274124,19.3230841905787
0.012019843447116,19.3251397187666
0.0131523112144147,19.327104940114
0.0144301086628956,19.328979779106
0.0158626459366009,19.3307645411825
0.0174659819127976,19.3324665648609
0.01925718457596,19.3340909428929
0.0212581179550735,19.3356442264576
0.0234933363045095,19.3371318007226
0.0259915762439594,19.3385589024865
0.0287862319559905,19.3399304978134
0.0319156789956566,19.341251129971
0.0354250736633947,19.3425253656547
0.0393670935585826,19.3437575799036
0.0438041676629422,19.3449522070257
0.0488110168025952,19.3461138270445
0.0544781062626294,19.3472472703413
0.0609172842823969,19.3483578946031
0.0682696251676596,19.349451831388
0.0767185993628334,19.3505365067663
0.0865128337117003,19.3516215321894
0.0980090550498061,19.3527203949959
0.111766258562862,19.353854320339
0.127859768253325,19.3550007864448
0.146656799433149,19.3561661519734
0.168886774321543,19.3573775764309
0.19584851713923,19.358687136997
0.222943543114327,19.3598961784072
0.246492977959876,19.3609043939361
0.267742128330731,19.3618121839207
0.286974357052954,19.362662523119
0.30402366409078,19.3634757482881
0.318550138487506,19.3642647604868
0.330106967130705,19.3650397475738
0.338140505302699,19.3658101140649
0.341955430320236,19.366585624214
0.340643222399432,19.3673777277635
0.332910097386035,19.3682037484178
0.316528952121418,19.3690972509155
0.29113267851487,19.3699995886542
0.255814203094627,19.3709308718827
0.229826990633643,19.3715072895667
0.201339926254349,19.3720837072507
0.174808660468223,19.3725916299818
0.150641627783613,19.3730438622288
0.128437309495087,19.37346001885
0.107916879316016,19.3738527994366
0.0888860093818228,19.3742311789618
0.071182777597985,19.3746026170917
0.0546412547804412,19.3749746790743
0.0390394596808534,19.3753573701156
0.0239418339285956,19.3757699449925
0.00763205830897674,19.3762859174894
0.000475701411156374,19.3765459756771
-0.00599830730553812,19.3768060338649
-0.011466232908007,19.3770493723739
-0.0164041890039673,19.3772932094548
-0.0212244929076826,19.3775599566365
-0.0257752610594788,19.377846489102
-0.02996218130478,19.378151061615
-0.033735213819928,19.3784733348095
-0.0370701608544456,19.3788138991479
-0.0399524861374294,19.3791740245609
-0.0427299040974836,19.3796237364842
-0.0445599527416281,19.3800256298727
-0.0459495616474825,19.3804532958461
-0.046913386667118,19.3809111172004
-0.0474617048171455,19.3814034306192
-0.0476035888842,19.381935507795
-0.0473458849257885,19.3825138301563
-0.0466907917128796,19.3831474655997
-0.0456336405433596,19.3838478965942
-0.0441622881573566,19.3846295699353
-0.0422524934318415,19.3855126699244
-0.039858059979149,19.3865277981057
-0.0368835285623628,19.3877286025895
-0.0335590518563377,19.3890474649991
-0.0303993052860563,19.3903101907057
-0.0274369980876394,19.3915222353419
-0.0246825042363125,19.39268789307
-0.0221376327942711,19.3938095301437
-0.0197991214448687,19.3948884345533
-0.0176604326179716,19.3959252870222
-0.0157128648149616,19.3969204093538
-0.0139463230962494,19.3978738921717
-0.0123498952091288,19.3987856540424
-0.0108111759846888,19.3997186398184
-0.00933316147533484,19.4006753392208
-0.00792003225052357,19.4016577448164
-0.00657575362449921,19.4026681738141
-0.00530404441757591,19.4037093417005
-0.00410833042599416,19.4047844662914
-0.00299169449448134,19.4058974053876
-0.00195682328133284,19.4070528433314
-0.00100595048191823,19.408256550569
-0.000140795604826261,19.4095157558531
0.000637503678135789,19.4108396992858
0.0013284695662178,19.4122404901479
0.00193238036983294,19.413734510425
0.00245040120545577,19.4153448740748
0.00286177234481066,19.4169988255593
0.0031822521182936,19.418708671773
0.00342726048427167,19.4204934228063
0.00361115006322988,19.4223776505458
0.00374765806100522,19.42439506213
0.00385049083768034,19.4265952956776
0.00393433055945267,19.4290590947987
0.00401721178184115,19.4319403935886
0.00412962828692727,19.4356430716867
0.00426997229489488,19.4394635864605
0.00445262193529894,19.4435577124666
0.00467301849726249,19.4478159399814
0.00492817849737084,19.4522730987508
0.00521548501401095,19.4569665638911
0.00553487078486579,19.46193816403
0.00589004528912003,19.467236670797
0.00625410792714001,19.4724251918127
0.00663520619280827,19.4775876673647
0.00703319553849756,19.4826710161341
0.00745242216988273,19.4876797383214
0.00789715457138976,19.4926126803187
0.00837262947833122,19.4974756765419
0.00888447611237857,19.5022729581465
0.00943881192172772,19.5070071101333
0.0100422553925912,19.5116783990014
0.0107020514531883,19.5162854095435
0.0114380129167222,19.5208960985526
0.0122677519358933,19.5255310868799
0.013210330995985,19.5301966272222
0.0142926342776574,19.5349155069102
0.0155558881038793,19.5397407752668
0.01707707142213,19.5448061050081
0.0190644837516755,19.5505438912315
0.0209286988731801,19.5553212602308
0.0225160624457963,19.5591143673225
0.0241448997326197,19.5629074744143
0.0255479031638232,19.5662557601165
0.0267323805928532,19.5693245842309
0.0277110640389157,19.5722831068079
0.0284309741824229,19.5750988940855
0.0288845398636931,19.5778447668575
0.0290593847233273,19.5806475402889
0.0289007894384786,19.583703423802
0.0281802760735505,19.5876311673666
0.0273313968998675,19.5904934236558
0.0262609469367632,19.593355679945
0.0251772111023829,19.5958731902624
0.0240962087806738,19.5981850433973
0.0230133377798227,19.6003884995799
0.0219297962754488,19.6025318765882
0.020848856995116,19.6046432349346
0.0197741548372141,19.6067413604382
0.0187092058580323,19.6088400926946
0.0176572753155186,19.6109503705559
0.0166213475485493,19.6130813461839
0.0156041269711051,19.6152410600392
0.0146080494878464,19.6174368847773
0.0136352941005663,19.6196758469691
0.0126877972774344,19.6219648713071
0.0117672614836219,19.624310998663
0.010875169672963,19.6267215720278
0.0100127924217072,19.629204439575
0.00918120302517437,19.6317681495558
0.00837537391897484,19.6344425808132
0.00758101551363667,19.6372999178778
0.00680193138770454,19.6403621425373
0.00604193117574687,19.64365584181
0.00530504782355961,19.647212355602
0.00459548859700879,19.6510690596855
0.00391756257787363,19.6552711844205
0.00327554237758526,19.6598747914605
0.00267339989863931,19.6649523981467
0.00226968521210464,19.6689227606552
0.00192871331568078,19.6728931231637
0.0015911011889962,19.6778729209095
0.00133938315885822,19.6825094093755
0.00114486475056233,19.6867957918633
0.000990668548335324,19.6907707649373
0.000866779005407387,19.6944721137875
0.000766460600631854,19.6979359150523
0.00068476031640775,19.7011976342477
0.000617860829754227,19.7042938215392
0.000562751430825284,19.707265000958
0.000517014195613647,19.7101614610528
0.000478636241057844,19.7130573597477
0.000445729658441411,19.716096725743
0.000415332136896469,19.719767922024
0.000400645768384966,19.7221852752716
0.000389951538055395,19.7246026285193
0.000383635405780307,19.7267798456243
0.000380519751533784,19.7288023504904
0.000380014693103379,19.7308143263564
0.00038228288739887,19.7329442291249
0.000388462818697242,19.7353929065953
0.000403469140341201,19.7387972105718
0.00042809577101394,19.742430037573
0.000466033880548173,19.7460628645742
0.000517817413379801,19.7494682445873
0.000591432192709316,19.753218975486
0.000699933618914031,19.7577079509774
0.000843443150950204,19.7626256224157
0.00100412242449491,19.7672116427445
0.00118307608741507,19.7714636973629
0.00138429595963281,19.775415818979
0.00161326948147659,19.7791120135828
0.00187659393696461,19.7825991010283
0.00218234986666242,19.7859304397828
0.00254136322384469,19.7891758085674
0.00297035574018351,19.7924427234375
0.00349685597415562,19.7959080783119
0.00404187096539908,19.7991724611809
0.00459925861967497,19.8024368440498
0.00506798069344245,19.8053110088611
0.00552467257501894,19.8084025341297
0.00606947250532763,19.8126724244341
0.00641231703397437,19.8156523853384
0.00675805706374482,19.8186323462426
0.00711318656925889,19.8214122338269
0.00752247186607048,19.8241564408042
0.00801796856733695,19.82690999068
0.00861386068922064,19.8296193459544
0.00930824307476608,19.8322064717123
0.0101033427957404,19.8346546314886
0.0109857001639923,19.8369237976238
0.0119713783685262,19.8390611525275
0.0130768676573348,19.8410940743326
0.0143149169360138,19.8430320443117
0.0156976265565517,19.8448795702732
0.0172416524114366,19.846644359264
0.0189649723181034,19.8483320005027
0.0208893781530675,19.8499487046617
0.0230393963419494,19.8514997430268
0.0254436469148921,19.852990327213
0.0281352282461056,19.8544253987211
0.0311525223846469,19.8558096886876
0.034540846862808,19.8571480201065
0.0383535454342437,19.8584451523382
0.042654874693911,19.8597061498326
0.0475228058750762,19.8609363769
0.0530541680409613,19.862141840933
0.0593723722941563,19.8633295910718
0.0666400600761504,19.8645083577188
0.075082917991362,19.8656898948541
0.0850373980897723,19.8668916140888
0.0969928464735554,19.8681361002129
0.110902014346559,19.8693891961967
0.127249837840672,19.8706754256183
0.146870677758934,19.8720409604464
0.163924980035386,19.8731265352622
0.181880847471563,19.874212110078
0.198280560592246,19.8751867875766
0.213016026000028,19.8760808549151
0.226102557758244,19.8769252051514
0.237359651020992,19.8777377908334
0.2464876361091,19.8785306504775
0.253097880502026,19.8793133469501
0.256711716636358,19.8800949996515
0.256727127320884,19.8808864015954
0.25231065619206,19.881704050391
0.241933751295735,19.8825876055542
0.224655350302175,19.883505989153
0.200030258477406,19.8844547707841
0.181102450373835,19.8850609476788
0.160200553278856,19.8856671245735
0.140384103960609,19.8862079588334
0.121950378625403,19.8866974916475
0.104726304476937,19.8871537966981
0.0885963177314391,19.8875886812914
0.07347788942382,19.8880107584761
0.0592936887597562,19.8884274467435
0.0459505328089818,19.8888465218086
0.0333040016150359,19.8892784892126
0.0210452093645481,19.8897435230153
0.0079755191873657,19.890314211989
0.00152318311297369,19.8906375222385
-0.00426867840757967,19.890960832488
-0.00909881105349025,19.8912620688606
-0.0132206536848237,19.8915490476217
-0.0172058543083357,19.8918611296819
-0.0209429792433757,19.8921954570542
-0.0243589685526401,19.8925502357494
-0.0274148574108873,19.8929251713729
-0.0300916239172758,19.8933209598237
-0.0323821104046211,19.8937390146432
-0.0342863587121976,19.8941813418385
-0.0358984586832507,19.8946969401613
-0.0368864031266394,19.8951762283162
-0.0374969689359338,19.8956871887638
-0.0377399814665149,19.8962345812765
-0.0376234286178352,19.8968234788192
-0.0371537564930952,19.8974603741376
-0.0363331536725085,19.8981544310791
-0.0351610703115127,19.8989155284004
-0.033633110998151,19.899756368032
-0.03173888443843,19.9006939734308
-0.0294575239719369,19.9017526982869
-0.0267460136545174,19.9029714958202
-0.0239797465928204,19.904209594261
-0.0213911648797875,19.9053873591316
-0.0189946094337435,19.9065104611426
-0.0167903526458071,19.9075835135023
-0.0147736041458967,19.9086093204861
-0.0129366783692755,19.909589586563
-0.0112701914607444,19.9105253250117
-0.00968787667760305,19.9114633791213
-0.00816082677245947,19.9124240617297
-0.00669370861553546,19.913409308074
-0.00529057693799866,19.9144215074366
-0.00395514845745613,19.9154634076103
-0.00269075435346119,19.9165382203832
-0.00150028549980139,19.9176497558508
-0.000386126873145361,19.9188026015216
0.000649921226923441,19.9200023684832
0.00160673996901782,19.9212560407837
0.00248401581556787,19.9225724895087
0.00328240819318957,19.9239632618632
0.00400379358724872,19.9254438564819
0.0046516535678442,19.9270359237664
0.00520792582760551,19.9286926658152
0.00567961873037861,19.9304011650478
0.00608544231955746,19.9321808181518
0.00644354516008789,19.9340553332836
0.00677285796982512,19.9360568370742
0.00709474729825058,19.9382319391144
0.00743630505291167,19.9406549404773
0.00783861198810996,19.9434628501675
0.00838713483263883,19.9469891729606
0.00905962304126244,19.9508005075621
0.00991332359586881,19.9550196331921
0.0110624434124168,19.9600086355943
0.011866979425718,19.9632310673296
0.0126932163783224,19.966453499065
0.0134113201870997,19.9692963610636
0.0140147096975474,19.9718322063547
0.0145199747892778,19.9742007034146
0.0149306299290545,19.9764941510071
0.0152409588156328,19.9787908162452
0.015435263231953,19.9811833946353
0.015478215632614,19.9838326294179
0.0152570244453763,19.9872425948491
0.0148630321084489,19.9900045506525
0.0143073884245548,19.9927665064559
0.0137048626125763,19.9952396944388
0.0131353563860897,19.9976170502353
0.012655576104744,20
