ecg,time
0.0210316050054963,15.0004301223891
0.0195154079865182,15.0019054677551
0.0178724936651918,15.0034836692276
0.0165482109592751,15.0047823543996
0.0152973104729292,15.0060810395717
0.0132938068943436,15.0083532808764
0.0119361363269882,15.0100637139421
0.0107012296288151,15.0117741470078
0.00969198478470359,15.0133085806694
0.00881689939556831,15.0147617406602
0.00800818850210223,15.0162284328767
0.00721742023075744,15.0178033386436
0.00638343869265257,15.0196524651759
0.00538159791043221,15.0222089169841
0.00450291803172909,15.0248685619264
0.00380676349057094,15.0273745942115
0.00320854972647856,15.0299371846695
0.0026477900425758,15.0328500601432
0.00215485364184725,15.0360522990557
0.00174695827006275,15.0394769520745
0.00142224013944028,15.0431653066471
0.00118304644003314,15.0471723992061
0.00104009974508795,15.0515695456766
0.00101547398899965,15.0558521071511
0.00109468221785354,15.0596805810364
0.00126034608732208,15.0631241342371
0.00150344050307711,15.0662269777937
0.00182021947137165,15.0690367896353
0.00221119841332527,15.0716026397037
0.00268109071461079,15.0739737503035
0.0032396450743207,15.0761997530005
0.00390520277177128,15.0783372561251
0.00471188975508549,15.0804577093011
0.00571991437888643,15.0826519139684
0.00706165361708712,15.0850865363483
0.0088598295057056,15.0878174888332
0.0104427235217953,15.089886559423
0.0122457590549524,15.0919556300129
0.0140353208774712,15.0937540462885
0.015845113032742,15.0953488371622
0.0177769267519395,15.0968375655005
0.01987300895875,15.0982431455873
0.0221814101877936,15.0995841093453
0.0247517959101393,15.1008727004606
0.0276207800077314,15.1021105429473
0.030839335337497,15.1033036825049
0.0344536769285148,15.1044537907816
0.0385167561729832,15.1055632817256
0.0430916366277585,15.1066354615266
0.0482463767469371,15.107672714933
0.0540630390977424,15.1086782308829
0.0606376894757017,15.1096552444475
0.0680834553138325,15.1106070239317
0.0765354553860246,15.1115369995269
0.086159441033105,15.1124490622719
0.0971579937983715,15.1133473423176
0.109783511286001,15.1142364490198
0.12435543713183,15.1151216451371
0.141288301797025,15.1160092460678
0.161132664461885,15.1169070438925
0.184651715746717,15.1178254233084
0.212092628988593,15.1187520020624
0.243886512131767,15.1196850826342
0.280886470131634,15.1206358230069
0.32434748037768,15.1216239277526
0.364513009653689,15.1224546809854
0.407115168577536,15.1232854342183
0.443916600331992,15.1239893441211
0.47572692256065,15.1246122729852
0.503674780037471,15.1251974139571
0.527999793106274,15.125771515957
0.548408067826066,15.1263577515646
0.564047116435765,15.126985109147
0.572931034012152,15.1277068619348
0.571101901863164,15.1284679191869
0.557079091036265,15.1292616077972
0.529268454794504,15.1301080463437
0.487305930768822,15.1309885194197
0.4306174158453,15.1319038488094
0.378317666456208,15.132612233941
0.319636158179569,15.1333206190726
0.268878275166126,15.1338913619113
0.226802932966614,15.13435103569
0.190601515022766,15.1347464484871
0.158560031090375,15.1351036485027
0.129732509065469,15.1354373172588
0.103518451650683,15.1357573088031
0.0794643856575766,15.1360717762241
0.0571403376897059,15.1363895362256
0.0359557387077147,15.1367244553189
0.0143526816581677,15.1371158961638
-0.000471164225323326,15.1374282266795
-0.0080086079854821,15.1376064688041
-0.0149076360608079,15.1377847109287
-0.0209259008396042,15.1379548800469
-0.0271041649005881,15.1381474793927
-0.0331614971101587,15.1383588886209
-0.03889756192455,15.1385863338012
-0.0441986031395223,15.1388286237345
-0.0490033697061056,15.1390856163751
-0.0532822079101471,15.1393578982507
-0.0570248078532294,15.1396466227317
-0.0602328053275381,15.1399534446307
-0.0629093215906914,15.1402805185843
-0.0650919991904788,15.1406370895935
-0.0667066117122047,15.1410104958199
-0.0678333264145526,15.1414139075414
-0.0684860415539071,15.1418525237958
-0.0686748357645261,15.1423327729804
-0.06840450972471,15.1428629277997
-0.0676707023360241,15.143454639178
-0.0664542239106893,15.1441240806522
-0.064713904204484,15.1448943173154
-0.0623651923057285,15.1458031782027
-0.0592113431950662,15.146926998771
-0.0550071458794443,15.148360610385
-0.050895323507189,15.149743751659
-0.0469398545011857,15.1510858685078
-0.0431757308057675,15.1523899368374
-0.0396216119192292,15.1536570744686
-0.0362873566574616,15.1548874623857
-0.0331771460689387,15.1560808276514
-0.0302910056125109,15.1572366987637
-0.0276257133198001,15.1583545394433
-0.0251754607990521,15.1594338153702
-0.0229324054524985,15.160474021934
-0.020887163948153,15.161474687846
-0.0190292613491361,15.1624353627505
-0.0173475371214147,15.163355593356
-0.0157619322545526,15.1642758955003
-0.0142354274822094,15.1652198234031
-0.0127724244332933,15.1661890156035
-0.0113768219578684,15.1671856085424
-0.0100523139531613,15.1682121120669
-0.00880233518094672,15.1692715035952
-0.00763000700723531,15.1703673504867
-0.00653808022876963,15.1715039751774
-0.00552887456755879,15.1726866832891
-0.00460421376917078,15.1739220875196
-0.00376535414725699,15.1752185828456
-0.00301290244262098,15.1765870718859
-0.00234671502907429,15.1780421276459
-0.00176576228180942,15.1796039769857
-0.00128471199051308,15.1812371617402
-0.000901029271886722,15.182919286367
-0.000598454177241437,15.1846686849452
-0.000362255202955507,15.1865073015379
-0.00017845694429055,15.1884646452067
-3.33443922041802e-05,15.1905829314
8.73350036723897e-05,15.1929279725977
0.000200042792837835,15.1956165874324
0.000328652545052455,15.1989109132423
0.000483938897684096,15.2026565798104
0.000672101541510342,15.206707549623
0.000916629706295175,15.2114624835607
0.00116997591541058,15.2161052816437
0.00141266488385422,15.2204648778807
0.00165200901309409,15.2247747751657
0.00190149522534412,15.2293246982524
0.00217259613890237,15.2343460917684
0.00243390150574625,15.2392350249556
0.00270093621465026,15.2442487181041
0.00292968319177796,15.2485173173527
0.00314273312048519,15.2524536956353
0.00335152761284203,15.2562571020357
0.00356197354407848,15.2600215110831
0.00377816921555819,15.2638046589495
0.00400358106029475,15.2676489093195
0.00424152136463954,15.2715890564062
0.00449541564459136,15.2756561219282
0.00476902944401072,15.2798800540781
0.00506665629909808,15.2842911635179
0.00539336416969991,15.2889213586769
0.00575538622570304,15.2938054605559
0.00616075107790245,15.2989822984564
0.00658182146727858,15.3040433384689
0.00702778186271009,15.3090693559152
0.00749875605891706,15.3140186672145
0.00799960804917465,15.318897564712
0.0085354145419373,15.3237061735908
0.00911248408569633,15.328448890204
0.00973784310418887,15.3331286134089
0.0104192652907177,15.3377467445169
0.0111808620179317,15.3423936450156
0.0120376483851666,15.3470686266319
0.0130106126446609,15.3517858724756
0.0141287072195001,15.356573579157
0.0154378334136826,15.3614972542025
0.0170284027877688,15.3667251497015
0.019178929810877,15.3728643645533
0.0209203474900751,15.3773249588645
0.0227621425469245,15.3817855531757
0.0243110350066627,15.3855183556187
0.025600519442614,15.3887900074417
0.0266798148320187,15.3918561600248
0.0275402107575311,15.394833302565
0.0281315864838647,15.3976723313714
0.028454561358794,15.4004936213749
0.0284824656202397,15.4034475272942
0.0281182523274607,15.40683459063
0.0270848352799679,15.4111708415537
0.0261819157297438,15.4138428548867
0.0251222214120801,15.4165148682197
0.0240491241464469,15.4189595167404
0.0229748885374129,15.4212617917197
0.0219002065913313,15.4234847596855
0.0208279466940057,15.4256641357058
0.0197617619770521,15.4278226184126
0.0187053351395849,15.4299762533674
0.0176621433017154,15.4321372977264
0.0166353964516161,15.4343156864115
0.0156280265812777,15.436519877473
0.0146426925410631,15.4387573836256
0.0136817936348359,15.4410351212582
0.0127474763221987,15.4433596761467
0.011841646604967,15.445737495613
0.0109659812285021,15.4481750448827
0.0101219297015127,15.4506789676603
0.00931072956190084,15.4532562011842
0.00853340947897694,15.4559141249098
0.00776900395567368,15.4587447839954
0.0070205174969811,15.4617705176032
0.00629175028635745,15.4650149536577
0.00558664183010567,15.4685053699845
0.00490929693516451,15.4722733369021
0.00426392723506942,15.4763555798387
0.00365474214327088,15.4807952197045
0.00308577462998949,15.4856438218986
0.0025606509355752,15.4909648993794
0.00208228803657832,15.4968405855343
0.00165280289578158,15.5033805031765
0.00128295976031038,15.510527678311
0.00097445042026513,15.5182607096074
0.000720661055786153,15.5267054645721
0.000521790149012887,15.5360290800477
0.00038674643198956,15.545401253121
0.000287470708405222,15.5552856677082
0.000217287277944661,15.5652856677082
0.000168486838787446,15.5752856677082
0.000135033442999523,15.5852856677082
0.000112544523904943,15.5952856677082
9.77789331134614e-05,15.6052856677082
8.84066718268344e-05,15.6152856677082
8.28094378590024e-05,15.6252856677082
7.98870936813086e-05,15.6352856677082
7.88963893506419e-05,15.6452856677082
7.93343749323108e-05,15.6552856677082
8.08610138020661e-05,15.6652856677082
8.32491430416917e-05,15.6752856677082
8.63515371225245e-05,15.6852856677082
9.00785448196665e-05,15.6952856677082
9.43826565700177e-05,15.7052856677082
9.92479508260472e-05,15.7152856677082
0.000104683119808532,15.7252856677082
0.000110717158758826,15.7352856677082
0.000117397063300963,15.7452856677082
0.000124787095068003,15.7552856677082
0.000132969358774017,15.7652856677082
0.000142045587641598,15.7752856677082
0.000152140168662626,15.7852856677082
0.000163404570810202,15.7952856677082
0.000176023487710648,15.8052856677082
0.000190223195101773,15.8152856677082
0.000206282884438114,15.8252856677082
0.000224550114845762,15.8352856677082
0.000245462102570232,15.8452856677082
0.000269575467640874,15.8552856677082
0.000297608501874834,15.8652856677082
0.000330502402364015,15.8752856677082
0.000369511949746505,15.8852856677082
0.000416343168063747,15.8952856677082
0.000473021952503974,15.9052297986437
0.0005373927216742,15.9144316744757
0.000610243759670326,15.9229220939211
0.000692660017277483,15.930755812104
0.000785907333306968,15.937984561265
0.00089142973796575,15.9446563041183
0.00101086464350237,15.9508155187832
0.00114606659198129,15.9565034841131
0.00129913641859507,15.9617585127725
0.0014724550906409,15.9666161476456
0.00166872057691164,15.9711093735194
0.00189099513723179,15.9752688323311
0.00214275877216273,15.9791230187235
0.00242797362684375,15.9826984444388
0.00275116535669582,15.9860198203933
0.00311752399884505,15.9891102568806
0.00353303700619722,15.9919914552527
0.00400466191787004,15.9946839167448
0.00454056509751736,15.9972072007788
0.00515046193565834,15.9995802356065
0.00584611736658456,16.0018217308933
0.00661580294280468,16.0038863172933
0.00746632528941335,16.005801271617
0.00841094645845763,16.0076007027006
0.00946980791324267,16.0093197141715
0.0106769386324384,16.0110006936467
0.0121162808258169,16.0127275848643
0.0140756533396053,16.0147479377283
0.0157557206736684,16.0162804098096
0.017573386828953,16.0178128818909
0.0192576038023834,16.019175931353
0.0207354672288434,16.0203737728839
0.0220597606878357,16.0214934078764
0.0232427936006815,16.0225849513533
0.0242740122346033,16.0236866989992
0.0251257257251834,16.0248415033139
0.0257444713657513,16.0261178878129
0.0260036535520284,16.0276878920844
0.0256609289619225,16.0294344952402
0.0247498701511046,16.031181098396
0.0236561490987035,16.0326390514821
0.022418335520348,16.0340277446671
0.0210369560499771,16.035437706175
0.0195212338682575,16.0369127456858
0.0178787766994191,16.0384904939282
0.0165608434741931,16.0397824670403
0.0153154527497219,16.0410744401525
0.0128439444853694,16.0439156294927
0.0115843662670067,16.0455472499345
0.0104348205305785,16.0471788703763
0.00946813456121081,16.0486812393825
0.00861431518438086,16.0501297535382
0.00781438123915834,16.0516131082859
0.00702009563244631,16.0532343963089
0.0061588444213353,16.0552026674345
0.00518461852361103,16.0577784546405
0.00433167871974129,16.0604593255156
0.00366180710473617,16.0629676427667
0.00307490912540268,16.0655909835812
0.00251838419667716,16.0686319811501
0.0020465295101801,16.0718869350877
0.00165920515113609,16.0753721852141
0.0013551074548245,16.0791334632285
0.00113819011035101,16.0832293087357
0.00102222521963334,16.087736096536
0.0010267696701309,16.0918870674946
0.00112944206181943,16.0956133330645
0.00131562472918087,16.0989648348043
0.00157789036696134,16.1019883053945
0.00191355469013888,16.104730795307
0.0023242173527271,16.1072419627821
0.00281564650347075,16.1095705289426
0.00339954061952221,16.1117681278778
0.00409583102770446,16.1138896670606
0.00494703722002623,16.1160199096567
0.00602361979456086,16.1182559784622
0.00748684815957355,16.1207905366418
0.00937928799312197,16.1235389939248
0.0109374576373837,16.1254954108504
0.0127039325146101,16.127451827776
0.0144876917671695,16.1291855901557
0.016318573458293,16.130745787224
0.0182902676517525,16.1322134543807
0.0204353033955867,16.1336010593079
0.0228070771959962,16.1349287585692
0.0254489943766386,16.1362040137782
0.0284031941424522,16.1374306307449
0.0317166558794372,16.1386123169497
0.0354409819844823,16.1397522871704
0.0396271305577007,16.1408518375444
0.0443418680964412,16.1419148016865
0.0496574556797647,16.1429439019172
0.055656565414609,16.143941818608
0.062440557091514,16.1449120614739
0.0701279378644325,16.145857965945
0.078860714492923,16.146783041035
0.0888125889986148,16.1476911805342
0.100197790437669,16.1485866581395
0.113283997137134,16.1494742395289
0.12841186727426,16.15035941926
0.146024922098852,16.1512487875476
0.166718769294988,16.1521506778019
0.191330777290053,16.1530764490132
0.219822832932794,16.1540038855203
0.252863262445892,16.1549402346295
0.291379828047762,16.155898138293
0.33680838942299,16.1569014017548
0.37508866943078,16.157677363423
0.415213012931641,16.1584533250913
0.450728585394359,16.1591336014772
0.481694629429823,16.1597460358648
0.508907610285952,16.1603270297801
0.53247675089718,16.160901675557
0.552008884910211,16.1614935247912
0.566497085759593,16.1621342947069
0.573516694677317,16.1628850575681
0.569113235761201,16.1636514122185
0.552227653542693,16.1644550543656
0.521108203717252,16.1653154206116
0.476105870391159,16.1662000066147
0.416146907901846,16.1671225237872
0.365501643803533,16.1677860520321
0.309520267685886,16.168449580277
0.260803280062171,16.1689930305844
0.219983108888939,16.1694381798663
0.184620842369112,16.1698253052338
0.153207807075394,16.1701774317118
0.124883954405362,16.1705080216461
0.0990858230634474,16.170826445788
0.0753728706280011,16.1711407913346
0.0533048378158601,16.1714603213388
0.0322203957060909,16.1718008633499
0.0100355500716331,16.1722153268357
-0.000694074461244152,16.1724462080816
-0.00820350530578458,16.1726242147042
-0.0150769672869826,16.1728022213268
-0.021085843179407,16.1729725442485
-0.027264009356806,16.1731656699889
-0.0333150560473248,16.1733775221375
-0.039040976400739,16.1736053623804
-0.0443297353612965,16.1738480322778
-0.049121117863288,16.1741054118729
-0.0533860998209265,16.1743781039246
-0.0571147593408975,16.1746672752823
-0.0603089722613924,16.1749745935669
-0.062971673862656,16.1753022268901
-0.0651331970389824,16.1756580111838
-0.0667367577352305,16.1760320217045
-0.0678528260600215,16.1764361545806
-0.0684951609502598,16.1768756186999
-0.0686737471687903,16.1773568768268
-0.0683932407899135,16.1778882503725
-0.0676489996997785,16.1784814955845
-0.0664214605720108,16.1791528857769
-0.0646687968263468,16.1799257080927
-0.0623050367388047,16.180838277376
-0.0591290712460601,16.1819684297562
-0.0549260586813565,16.1834008007416
-0.050816786345753,16.1847831049593
-0.0468647854343395,16.1861244665028
-0.0431046066056536,16.1874278134001
-0.0395546911340121,16.1886942390593
-0.0362247667657705,16.1899239123688
-0.0331189228895189,16.1911165548211
-0.0302371146072876,16.1922716927839
-0.0275760641576494,16.1933887896152
-0.025129918630485,16.1944673114525
-0.0228908009990964,16.1955067543919
-0.0208493025959829,16.1965066477338
-0.0189949314843026,16.1974665413398
-0.01731651753261,16.1983859815727
-0.0157319973747426,16.1993067294904
-0.014206676058998,16.2002511250746
-0.0127449329639367,16.2012208230222
-0.0113506635731701,16.202217966165
-0.0100275572971346,16.20324507239
-0.008779043395656,16.204305129193
-0.00760823665882706,16.2054017167319
-0.00651788017899955,16.2065391739529
-0.005510284773752,16.2077228281794
-0.00458726397809415,16.2089593212915
-0.00375006243250005,16.210257088618
-0.00299927348102237,16.2116270905475
-0.0023347378955277,16.2130839865259
-0.00175540730971882,16.214648140453
-0.00127641465986826,16.2162820923762
-0.000894447394663653,16.2179653443459
-0.000593293312130216,16.2197162417893
-0.000358239097154634,16.2215568450604
-0.000175319715482891,16.2235168489183
-3.08187814485382e-05,16.2256387942719
8.95385082634577e-05,16.2279891332792
0.000202286636652167,16.2306862005012
0.000331567627034031,16.2339972805515
0.000487243777500255,16.2377448169694
0.000676293721391172,16.2418057512109
0.000922229606893882,16.2465801263508
0.00117536133293906,16.2512153087738
0.00141787582190773,16.2555712219655
0.00165727026208802,16.259882877311
0.00190721304664805,16.2644426530017
0.00217790634792948,16.2694578209877
0.0024391472758944,16.2743462873
0.002706480536137,16.279365540131
0.00293469252504139,16.2836232798229
0.00314755222745278,16.2875550049819
0.00335632935776799,16.2913566565517
0.00356686568308024,16.2951209317018
0.00378323601049965,16.2989050526806
0.0040088992965736,16.3027511457763
0.00424716789746606,16.3066938840627
0.00450147283166033,16.3107642392
0.00477558957683775,16.3149921525397
0.00507382638581909,16.3194079580897
0.00540127295054839,16.3240436163478
0.00576419568787015,16.3289340313476
0.00617067480562736,16.3341181348496
0.00659205456162497,16.3391753318007
0.00703865060761073,16.3442005311209
0.00751025252065575,16.3491478814203
0.00801187187347152,16.3540251253943
0.00854857788264445,16.3588321118637
0.00912670706157001,16.3635733110628
0.00975330080503086,16.3682515647387
0.0104361514267891,16.3728682433082
0.0111998460227224,16.3775160891498
0.012059091363186,16.3821918207588
0.0130350933911745,16.3869103180417
0.0141570562301665,16.3917002524948
0.0154714812774225,16.3966284984052
0.0170705905563447,16.4018675160986
0.0192433474209326,16.4080488316009
0.0209726403352669,16.412467104458
0.02279847334387,16.416885377315
0.0243398677675344,16.4206019705009
0.0256246948176498,16.4238672129063
0.026699799577743,16.4269309132138
0.0275546426619383,16.4299039600253
0.0281406967481673,16.432741382823
0.0284581552275475,16.435563668441
0.0284795590934221,16.4385223480973
0.0281051975870683,16.4419244639408
0.0273228652542046,16.4453677654911
0.0261982043859856,16.4488110670414
0.0250987335299332,16.4515830255111
0.0240221598120217,16.4540311813478
0.0229476547813584,16.4563313670869
0.0218729675627396,16.4585529319447
0.020800803999128,16.4607315715596
0.0197348126389774,16.4628897844215
0.0186786718461303,16.4650434956483
0.0176358521833073,16.4672048898532
0.016609556357277,16.4693838566288
0.0156027093190635,16.4715888246414
0.0146179630094453,16.4738272881419
0.0136577101378814,16.4761061524501
0.012724090931598,16.4784319976249
0.0118190052339393,16.4808112701396
0.0109441240700283,16.4832504376085
0.0101008912863506,16.485756150004
0.00929053904795164,16.4883353539515
0.00851409083869533,16.4909954418091
0.00775003565757913,16.4938307474424
0.00700200092213859,16.4968616471683
0.00627378201873471,16.5001118832253
0.00556932258540779,16.503608831634
0.00489273101271205,16.5073841792658
0.00424822031179985,16.5114747937102
0.00363999778161807,16.5159239768073
0.00307209353625632,16.5207835002305
0.00254810916647165,16.5261173376295
0.00207094914791148,16.5320081254607
0.0016427097449669,16.5385663153741
0.00127448931531607,16.5457269629758
0.000967434274708478,16.5534761737751
0.000714937259277201,16.5619407748946
0.000517464677267898,16.571289071754
0.000387073827212014,16.5803966591214
0.000286662170469405,16.5903966591214
0.000216717777018344,16.6003966591214
0.000168091734503006,16.6103966591214
0.000134765489291122,16.6203966591214
0.000112367096698274,16.6303966591214
9.76646909037226e-05,16.6403966591214
8.83363154147001e-05,16.6503966591215
8.27698642754504e-05,16.6603966591215
7.98695240164144e-05,16.6703966591215
7.88949186887732e-05,16.6803966591215
7.93450049551607e-05,16.6903966591215
8.08810460685464e-05,16.7003966591215
8.32767935825001e-05,16.7103966591215
8.63856793214535e-05,16.7203966591215
9.01185310951941e-05,16.7303966591215
9.44281941635432e-05,16.7403966591215
9.92990176104339e-05,16.7503966591215
0.000104739910235243,16.7603966591215
0.000110780052463275,16.7703966591215
0.000117466610993465,16.7803966591215
0.000124864018291866,16.7903966591215
0.000133054561796765,16.8003966591215
0.000142140181165209,16.8103966591215
0.000152245506325481,16.8203966591215
0.000163522300796547,16.8303966591215
0.000176155623400215,16.8403966591215
0.000190372210849899,16.8503966591215
0.000206451845651485,16.8603966591215
0.000224742856095572,16.8703966591215
0.000245683474522254,16.8803966591215
0.000269831684710384,16.8903966591215
0.000297907640586179,16.9003966591215
0.000330855130558453,16.9103966591215
0.000369932618635106,16.9203966591215
0.00041685149120179,16.9303966591215
0.000473599284519576,16.9403334385949
0.000538046061386092,16.9495282466911
0.000610982742320599,16.9580121406061
0.000693495959414629,16.9658398461941
0.000786853172922599,16.9730630581444
0.000892500138944027,16.9797297043952
0.00101207621387273,16.9858842312267
0.00114743813918062,16.9915678881861
0.00130068926422162,16.9968189604978
0.00147421338230136,17.001672965611
0.00167071171706501,17.0061628649208
0.00189325021933019,17.0103192789992
0.00214531318760959,17.0141706827703
0.0024308677049259,17.0177435698869
0.00275444524843642,17.0210626350094
0.00312124278717873,17.0241509740961
0.00353725610163707,17.0270302759757
0.00400945301233381,17.0297210315697
0.00454601284964709,17.0322427927029
0.00515666782805685,17.0346144833325
0.00585320561045736,17.0368548135545
0.00662362957840519,17.0389177983152
0.00747499089104193,17.0408314706968
0.0084206063164546,17.0426299485205
0.00948070744142627,17.0443483669502
0.0106895214156684,17.0460292385965
0.0121322129415479,17.0477576430792
0.0140997449244788,17.0497832799619
0.0157754588160076,17.0513099044232
0.0175872615914214,17.0528365288845
0.0192689601216163,17.0541973388257
0.0207455386560803,17.0553943260757
0.0220688077523427,17.0565136044965
0.0232508070690181,17.0576050866469
0.0242808554618727,17.0587070478587
0.0251311264819359,17.0598624305235
0.0257478881917904,17.0611400854913
0.0260035094667947,17.0627136291907
0.0256572753550374,17.0644566180096
0.024745763150796,17.0661996068285
0.0236517591798892,17.0676566095269
0.0224134372438915,17.0690452238263
0.02103154535162,17.0704553515844
0.0195153428459538,17.0719307003116
0.0178724231922733,17.0735089067877
0.0165480691689407,17.0748076670882
0.0152971067807627,17.0761064273888
0.013293526929718,17.0783787866836
0.0119358661835608,17.0800892388848
0.0107009706611423,17.081799691086
0.00969173927250645,17.083334137742
0.00881667093784908,17.0847873026193
0.00800797959837032,17.0862539937127
0.00721723430965993,17.0878288907389
0.00638328345856829,17.0896779914134
0.00538146154725475,17.0922344529675
0.00450279810681392,17.0948941113767
0.00380665769768115,17.0974001552639
0.00320846041792341,17.0999627403158
0.00264771840389395,17.1028755965242
0.00215479104015578,17.1060778578673
0.00174690375076768,17.1095025388628
0.00142219310940332,17.1131909271343
0.00118300663382653,17.1171980606487
0.00104006753458323,17.1215952576085
0.0010154494489405,17.1258778059309
0.00109466304806953,17.1297062730121
0.00126033096422539,17.1331498202398
0.00150342864670353,17.1362526592115
0.00182021035111046,17.1390624669022
0.00221119177930072,17.1416283139002
0.00268108650330994,17.143999422406
0.00323964330340846,17.1462254235566
0.00390520333900368,17.1483629248702
0.00471189230000755,17.1504833751847
0.00571991821272064,17.1526775753107
0.00706165444456401,17.1551121852413
0.00885983266453988,17.1578431331626
0.0104427255083465,17.1599121950247
0.0122457602583227,17.1619812568869
0.0140353289188928,17.1637796725913
0.0158451285313356,17.1653744628106
0.0177769490600272,17.1668631893568
0.0198730403562482,17.1682687687651
0.0221814506242348,17.1696097312464
0.0247518468580336,17.1708983213736
0.0276208421624828,17.1721361627219
0.030839410225008,17.1733293013028
0.0344537654060027,17.1744794084811
0.0385168604536937,17.1755888985795
0.0430917587727319,17.1766610776355
0.0482465189280741,17.1776983303557
0.0540632043427212,17.1787038457677
0.0606378812509368,17.1796808589195
0.0680836777752132,17.1806326381199
0.0765357136492078,17.1815626135769
0.0861597414828146,17.1824746763493
0.0971583445141779,17.1833729566143
0.109783922695363,17.1842620637644
0.12435592295651,17.1851472606088
0.141288880751251,17.1860348626273
0.161133363007435,17.1869326620261
0.184652573520985,17.1878510437219
0.212093629519445,17.1887776234549
0.243887684149754,17.1897107055018
0.280887854415354,17.1906614481141
0.324349145135353,17.1916495565206
0.364514271285972,17.1924803004347
0.407115914344941,17.1933110443488
0.443917109449705,17.1940149514379
0.475727281092112,17.1946378796315
0.503675007732745,17.1952230207936
0.527999888326184,17.1957971235676
0.548408014923747,17.1963833605549
0.564046880329065,17.1970107204057
0.572930531428721,17.1977324773884
0.571101041147389,17.1984935358857
0.557077843933273,17.1992872262308
0.529266774712446,17.2001336668615
0.487303762979304,17.2010141423462
0.430614712380559,17.201929474134
0.378315312012302,17.2026378513006
0.319634341931019,17.2033462284672
0.268876857917251,17.2039169666006
0.226801758712618,17.2043766379884
0.190600502114083,17.2047720494924
0.158559138603374,17.2051292487589
0.129731713011334,17.2054629170916
0.103517735506722,17.2057829084514
0.0794637360067069,17.2060973759079
0.0571397406473973,17.20641513622
0.0359551720372636,17.206750056152
0.0143520633118856,17.2071414999442
-0.000470782444120435,17.2074538099161
-0.00800827177368922,17.2076320525461
-0.0149073412620872,17.2078102951762
-0.0209256384585706,17.2079804646795
-0.0271039010647434,17.2081730633268
-0.0331612405942472,17.2083844719733
-0.0388973185862658,17.2086119166491
-0.044198376281465,17.2088542061055
-0.0490031610876063,17.2091111982633
-0.0532820183520059,17.2093834796257
-0.057024637596096,17.2096722035431
-0.0602326542506907,17.2099790248093
-0.0629091894519914,17.2103060980412
-0.0650918880166119,17.2106626686099
-0.066706517862215,17.2110360739126
-0.0678332494011828,17.2114394845412
-0.0684859809975883,17.211878099495
-0.068674791432904,17.2123583471127
-0.0684044816213584,17.2128885000164
-0.0676706909300956,17.2134802089534
-0.0664542303038835,17.2141496472887
-0.0647139306217369,17.2149198797358
-0.0623652434140795,17.215828734498
-0.0592114311425078,17.21695254447
-0.0550072321899919,17.218386158047
-0.0508954061445765,17.219769300577
-0.0469399321166759,17.2211114185223
-0.0431758027484583,17.2224154878743
-0.0396216778702144,17.2236826264984
-0.0362874164871823,17.2249130154017
-0.0331771997738645,17.226106381658
-0.0302910532818415,17.2272622537706
-0.0276257551143022,17.228380095462
-0.0251754969350264,17.2294593724126
-0.0229324361882421,17.2304995800115
-0.0208871895718863,17.2315002469696
-0.0190292821681683,17.2324609229312
-0.0173475534524941,17.2333811546055
-0.0157619471184229,17.2343014561508
-0.0142354407601238,17.2352453834249
-0.0127724360366584,17.2362145749452
-0.011376831802713,17.237211167144
-0.010052321961686,17.2382376698575
-0.0088023412829521,17.2392970604906
-0.00763001114164913,17.2403929063853
-0.00653808234527578,17.2415295299554
-0.00552887462836316,17.2427122367934
-0.00460421175095126,17.2439476395582
-0.0037653500434,17.2452441331721
-0.00301289626592964,17.2466126201761
-0.00234670681528627,17.2480676734597
-0.00176575209465402,17.2496295196989
-0.00128469925839501,17.2512627034252
-0.000901014471166549,17.2529448265386
-0.000598437720793245,17.2546942231037
-0.000362237480860648,17.2565328370276
-0.000178438335369185,17.2584901771229
-3.33252813574313e-05,17.2606084584018
8.73541947259925e-05,17.2629534924884
0.00020006153205567,17.2656420959916
0.000328669913939806,17.2689363994133
0.000483955232816102,17.2726820635536
0.000672116171510018,17.2767330200615
0.000916641908333951,17.281487928084
0.00116998593911738,17.2861307000482
0.00141267391855117,17.2904902860452
0.00165201808737523,17.2948001878478
0.00190150560842024,17.2993501368177
0.00217260560577079,17.3043715136278
0.00243391092676174,17.3092604454581
0.0027009464814746,17.3142741532261
0.00292969202432659,17.3185427235124
0.00314274139963327,17.3224790894362
0.00335153576869753,17.3262824911995
0.00356198183713231,17.3300468999179
0.00377817784485014,17.3338300503955
0.00400359020384583,17.3376743056863
0.00424153119778765,17.3416144596821
0.00449542635277346,17.34568153397
0.00476904123284622,17.3499054767264
0.00506666940506161,17.354316598678
0.00539337887598997,17.3589468083962
0.00575540288924369,17.3638309271077
0.00616077017282249,17.3690077843938
0.0065818409290321,17.37406881588
0.00702780244927345,17.3790948323469
0.00749877768706507,17.3840441397217
0.0079996310021777,17.388923034036
0.00853543907777948,17.3937316398008
0.00911251052316856,17.3984743535746
0.00973787178770897,17.4031540740828
0.010419296596939,17.4077722025619
0.0111808971943709,17.412419104863
0.0120376881111073,17.4170940879247
0.0130106579988551,17.4218113361358
0.014128759742801,17.4265990469765
0.0154378957490687,17.4315227304843
0.0170284808919654,17.4367506464534
0.0191790485247952,17.44288993793
0.0209204434655198,17.4473504529132
0.0227622086185131,17.4518109678965
0.0243110872930341,17.4555437404213
0.0256005632654936,17.4588153805139
0.0266798510666889,17.4618815285977
0.027540236936897,17.4648586636732
0.0281316030353581,17.4676976895305
0.0284545679406571,17.4705189812866
0.0284824604737454,17.4734728957508
0.0281182289577767,17.4768599859581
0.0270847960428359,17.4811962271956
0.0261818729267661,17.4838682270895
0.0251221783431839,17.4865402269834
0.0240490811650192,17.4889848676718
0.0229748455167677,17.4912871384527
0.021900163600843,17.4935101040857
0.0208279038711242,17.4956894788816
0.0197617194704628,17.4978479611135
0.0187052930925316,17.500001596148
0.0176621018475137,17.5021626410249
0.016635355712273,17.5043410305937
0.0156279866678792,17.5065452228576
0.0146426535538684,17.5087827305023
0.0136817556637572,17.511060469899
0.0127474394473962,17.5133850268154
0.0118416108968626,17.5157628485725
0.0109659467486239,17.5182004004004
0.0101218965024475,17.5207043260149
0.00931069768784223,17.5232815626707
0.00853337896596384,17.5259394898454
0.00776897398633294,17.5287701562753
0.00702048823584469,17.5317958980516
0.00629172188637627,17.5350403432793
0.00558661444924965,17.5385307699399
0.00490927073734309,17.5422987485368
0.00426390238672264,17.546381004723
0.00365471880788009,17.5508206596949
0.00308575295987897,17.5556692792425
0.0025606310611094,17.5609903769048
0.00208227005700526,17.5668660869623
0.00165278688004797,17.5734060335121
0.00128294631180896,17.5805532299057
0.000974439271990003,17.5882862867292
0.00072065195108974,17.5967310729997
0.00052178334521643,17.6060547273954
0.000386748486298734,17.615426370492
0.000287469970952271,17.6253110310118
0.000217286786527969,17.6353110310118
0.000168486535224188,17.6453110310118
0.000135033282447391,17.6553110310118
0.000112544467642951,17.6653110310118
9.77789503756549e-05,17.6753110310118
8.84067405841694e-05,17.6853110310118
8.28095434376014e-05,17.6953110310118
7.98872266138951e-05,17.7053110310118
7.88965435650679e-05,17.7153110310118
7.93345465600478e-05,17.7253110310118
8.08612004769546e-05,17.7353110310119
8.32493434861017e-05,17.7453110310119
8.63517508845285e-05,17.7553110310119
9.00787720953844e-05,17.7653110310119
9.43828980846182e-05,17.7753110310119
9.92482077614393e-05,17.7853110310119
0.000104683393769668,17.7953110310119
0.000110717451772238,17.8053110310119
0.000117397377841303,17.8153110310119
0.000124787434111027,17.8253110310119
0.000132969725877202,17.8353110310119
0.000142045987056429,17.8453110310119
0.000152140605485641,17.8553110310119
0.000163405051183765,17.8653110310119
0.000176024019089584,17.8753110310119
0.000190223786609428,17.8853110310119
0.000206283547346334,17.8953110310119
0.00022455086322988,17.9053110310119
0.000245462954215859,17.9153110310119
0.000269576445320162,17.9253110310119
0.00029760963517632,17.9353110310119
0.000330503730371273,17.9453110310119
0.000369513525051823,17.9553110310119
0.000416345062942452,17.9653110310119
0.000473024097056894,17.97525513468
0.000537395141245738,17.9844569843063
0.000610246489334729,17.9929473795637
0.000692663098302468,18.0007810754656
0.000785910812934925,18.0080098041113
0.00089143366980411,18.0146815280851
0.0010108690883349,18.0208407253869
0.00114607161871532,18.026528674761
0.00129914210542719,18.0317836887693
0.00147246152621092,18.0366413102013
0.00166872786188902,18.041134523757
0.00189100338592436,18.0452939712944
0.00214276811475171,18.0491481473829
0.00242798421173964,18.0527235636975
0.00275117735379384,18.0560449310943
0.00311753760360822,18.0591353598134
0.0035330524447855,18.0620165511604
0.00400467945432682,18.0647090063322
0.00454058504363971,18.0672322847224
0.00515048466516816,18.0696053145664
0.00584614333682508,18.0718468055309
0.00661583162295366,18.0739113859973
0.00746635704925782,18.0758263355669
0.00841098186859681,18.0776257631081
0.00946984787455521,18.0793447723621
0.0106769847713536,18.0810257514023
0.0121163392522573,18.0827526481362
0.0140757415871069,18.0847730202525
0.0157557862213863,18.0863054649484
0.0175734232498485,18.0878379096444
0.0192576322591742,18.0892009521066
0.020735492384387,18.0903987914034
0.0220597832902999,18.091518425486
0.0232428136300213,18.0926099687945
0.0242740293486848,18.0937117169591
0.0251257392428131,18.0948665227027
0.0257444799339098,18.0961429103549
0.0260036532434528,18.0977129234161
0.0256609196191419,18.0994595181794
0.0247498590337623,18.1012061129428
0.0236561369970769,18.102664063676
0.0224183219622075,18.1040527566639
0.0210369410407257,18.105462718624
0.0195212174919122,18.1069377589796
0.0178787589971544,18.1085155084785
0.0165608082027778,18.1098075001115
0.0153154022208181,18.1110994917445
0.012843890439937,18.113940693783
0.0115843138341224,18.115572318184
0.0104347699808761,18.1172039425851
0.00946808664135934,18.1187063140679
0.00861427073339518,18.1201548289478
0.00781434092889793,18.1216381829098
0.00702006044949912,18.1232594679372
0.00615881681871719,18.1252277302205
0.00518459428382331,18.1278035191986
0.00433165736639702,18.1304843926371
0.00366178847335949,18.1329927110196
0.00307489383810229,18.1356160486622
0.00251837257870245,18.1386570388117
0.00204651926246157,18.1419119964063
0.00165919609024652,18.1453972512357
0.00135509946560393,18.1491585349304
0.00113818311776169,18.1532543873627
0.00102221923418148,18.1577611837368
0.00102676456206029,18.1619121547045
0.0011294375258584,18.1656384209526
0.0013156205782787,18.168989923378
0.00157788647249629,18.1720133945495
0.00191355098536169,18.1747558851395
0.00232421378925003,18.1772670532524
0.00281564301275631,18.1795956198358
0.0033995371483324,18.181793219072
0.0040958273983665,18.183914758094
0.00494703289377059,18.1860449993976
0.00602361418956343,18.1882810661596
0.00748683867251049,18.1908156185808
0.00937927685596354,18.1935640743936
0.0109374473191299,18.1955204925953
0.0127039234548555,18.1974769107971
0.0144876842714403,18.199210674374
0.0163185669999137,18.2007708719318
0.0182902619522867,18.202238539264
0.0204352985712295,18.2036261443978
0.0228070729250132,18.2049538436457
0.025448990825908,18.2062290989201
0.0284031911055201,18.2074557158527
0.0317166535485633,18.2086374020937
0.0354409803949091,18.2097773723472
0.0396271297631246,18.2108769227537
0.0443418681908745,18.2119398869349
0.0496574567718027,18.2129689872096
0.0556565676411095,18.2139669039503
0.062440560638633,18.2149371468749
0.0701279429698122,18.2158830514149
0.0788607214250788,18.2168081265817
0.0888125981813187,18.2177162661749
0.100197802412694,18.2186117438924
0.113284012652528,18.2194993254173
0.128411887374231,18.2203845053136
0.146024948360237,18.2212738738094
0.166718804137363,18.2221757643326
0.191330824689144,18.2231015359053
0.219822889616587,18.2240289726178
0.252863330787847,18.2249653219949
0.291379911761589,18.2259232260237
0.336808495514424,18.2269264900329
0.375088752435546,18.2277024513806
0.415213064603706,18.2284784127283
0.450728610104844,18.2291586889631
0.481694633374491,18.2297711233677
0.508907595176848,18.2303521173899
0.532476716118428,18.2309267633415
0.552008827997279,18.2315186128258
0.566497001426718,18.2321593831091
0.57351656931216,18.232910146126
0.569113068606826,18.2336765009837
0.552227441819896,18.234480143376
0.521107943030269,18.2353405098806
0.476105543572548,18.236225096374
0.416146519726412,18.2371476138173
0.365501307925834,18.2378111410671
0.309520006277868,18.2384746683168
0.260803073893927,18.2390181180288
0.219982937284429,18.2394632670052
0.184620694432879,18.2398503922072
0.153207677129773,18.2402025185912
0.124883839005007,18.2405331084759
0.0990857197756014,18.2408515326018
0.0753727774327097,18.2411658781644
0.0533047525514279,18.2414854082274
0.0322203146378275,18.241825950387
0.0100354558813078,18.2422404144701
-0.000694111657778667,18.2424712946782
-0.00820353700692618,18.2426493012749
-0.0150769939630411,18.2428273078716
-0.0210858715823878,18.2429976309495
-0.0272640374132731,18.2431907568179
-0.0333150823711216,18.2434026090754
-0.0390410002048617,18.2436304494185
-0.0443297562215517,18.2438731194139
-0.0491211355727995,18.2441304991093
-0.0533861143049258,18.2444031912672
-0.0571147706055221,18.2446923627395
-0.0603089803619888,18.2449996811502
-0.0629716787328011,18.2453273146134
-0.0651331953247321,18.2456830984118
-0.0667367538814321,18.2460571090542
-0.0678528201754814,18.2464612420776
-0.0684951530943599,18.2469007063666
-0.0686737373828586,18.2473819646915
-0.0683932290893517,18.2479133384716
-0.0676489860510942,18.2485065839721
-0.0664214448794732,18.2491779745233
-0.0646687788877837,18.2499507973039
-0.0623050161245829,18.2508633672368
-0.0591290468284504,18.2519935206937
-0.0549260345354997,18.2534258914422
-0.0508167627568018,18.2548081954866
-0.0468647625991179,18.2561495568661
-0.0431045846366067,18.2574529036017
-0.0395546700991863,18.2587193290979
-0.0362247467045128,18.2599490022417
-0.0331189038197654,18.2611416445251
-0.0302370965297722,18.2622967823155
-0.0275760470589731,18.2634138789714
-0.0251299024857203,18.2644924006303
-0.0228907857741744,18.2655318433888
-0.0208492882499183,18.2665317365474
-0.0189949179712395,18.267491629968
-0.017316504803675,18.2684110700131
-0.0157319849034517,18.2693318180375
-0.0142066638719059,18.2702762137336
-0.0127449210823289,18.2712459118021
-0.0113506520175428,18.2722430550765
-0.0100275460869476,18.2732701614455
-0.00877903254908713,18.2743302184074
-0.0076082261925489,18.2754268061232
-0.00651787010792234,18.2765642635431
-0.00551027511077266,18.2777479179955
-0.00458725473382401,18.2789844113677
-0.00375005361497354,18.280282178998
-0.00299926509536323,18.2816521812888
-0.00233472994354226,18.2831090777068
-0.0017553997893214,18.2846732321845
-0.00127640767817522,18.2863071842918
-0.000894440873219166,18.2879904365314
-0.000593287184059705,18.2897413343336
-0.000358233300287487,18.2915819380802
-0.000175314190699199,18.2935419425746
-3.08134701990769e-05,18.2956638888041
8.95436683810468e-05,18.2980142290802
0.000202291722847308,18.3007112983289
0.000331572775101844,18.3040223824095
0.000487248912029178,18.3077699192899
0.000676298960667269,18.3118308559305
0.000922235070229128,18.3166052357586
0.00117536623571011,18.3212404088696
0.00141788043310867,18.3255963181013
0.00165727491399219,18.3299079754145
0.0019072182213984,18.3344677618605
0.00217791112595766,18.339482923241
0.00243915201652914,18.3443713891312
0.00270648561669105,18.3493906480483
0.00293469703311585,18.3536483761313
0.0031475565233626,18.3575800963158
0.00335633362111724,18.3613817460235
0.00356687002483768,18.3651460210583
0.00378324051676223,18.3689301431173
0.00400890404527016,18.3727762382344
0.00424717296612206,18.3767189793536
0.00450147830292511,18.380789338082
0.00477559554293298,18.3850172557647
0.0050738329533334,18.3894330664361
0.00540128024754584,18.3940687306519
0.00576420387574295,18.3989591525375
0.00617068409811321,18.4041432639667
0.00659206409608006,18.4092004570799
0.00703866071691271,18.4142256557482
0.00751026318414451,18.4191730041812
0.00801188322523697,18.4240502466083
0.0085485900475518,18.4288572315636
0.00912672019188054,18.4335984293612
0.00975331506636256,18.4382766816903
0.0104361670014486,18.4428933589356
0.0111998635305775,18.4475412056593
0.0120591111403379,18.452216937975
0.0130351159744584,18.4569354364295
0.0141570823901359,18.4617253729619
0.0154715123435322,18.4666536231333
0.0170706295529089,18.47189265121
0.0192434072830079,18.4780740063893
0.0209726891144972,18.4824922405469
0.0227985075184325,18.4869104747046
0.0243398949551188,18.490627052844
0.0256247176174259,18.4938922892517
0.0266998184167338,18.4969559872706
0.0275546562543905,18.4999290302382
0.0281407053082164,18.5027664515417
0.02845815856557,18.5055887381292
0.0284795562675183,18.5085474223517
0.0281051850915785,18.5119495526274
0.0273228514974864,18.5153928300243
0.0261981952118789,18.5188361074212
0.0250987255188719,18.5216080600132
0.0240221519324295,18.5240562141617
0.0229476469021264,18.5263563991315
0.0218729596897651,18.5285779635718
0.020800796157377,18.5307566029701
0.0197348048557133,18.5329148157508
0.0186786641475348,18.535068526997
0.0176358445937939,18.5372299213007
0.0166095488990941,18.5394088882418
0.01560270201255,18.5416138564778
0.0146179558729101,18.5438523202545
0.0136577031877016,18.5461311848888
0.0127240841824359,18.5484570304378
0.0118189986985987,18.550836303375
0.0109441177597211,18.5532754713154
0.0101008852106365,18.5557811842336
0.00929053321488099,18.5583603887581
0.00851408525475743,18.5610204772512
0.00775003017448592,18.563855784231
0.00700199557011043,18.5668866854545
0.00627377682581741,18.5701369231932
0.00556931758038736,18.5736338734966
0.00489272622548891,18.57740922327
0.00424821577280447,18.5814998401436
0.0036399935207094,18.5859490260098
0.00307208958108522,18.5908085526147
0.00254810554061754,18.5961423937154
0.0020709458692357,18.6020331859332
0.00164270682586983,18.6085913811538
0.00127448686461952,18.6157520326673
0.000967432243662224,18.6235012481641
0.000714935601020878,18.6319658550458
0.000517463440548087,18.6413141590712
0.000387074082412641,18.6504216583852
0.0002866623484433,18.6604216583852
0.000216717901806802,18.6704216583852
0.000168091826310296,18.6804216583852
0.00013476556082244,18.6904216583852
0.000112367155039078,18.7004216583852
9.76647401147363e-05,18.7104216583852
8.83363581528709e-05,18.7204216583852
8.27699024900295e-05,18.7304216583852
7.98695591824697e-05,18.7404216583852
7.88949519035478e-05,18.7504216583852
7.93450370195574e-05,18.7604216583852
8.08810775692107e-05,18.7704216583852
8.32768249627086e-05,18.7804216583852
8.6385710934063e-05,18.7904216583852
9.01185632391618e-05,18.8004216583852
9.44282271089217e-05,18.8104216583852
9.92990516164019e-05,18.8204216583852
0.000104739945564243,18.8304216583852
0.000110780089393109,18.8404216583852
0.000117466649828551,18.8504216583852
0.0001248640593746,18.8604216583852
0.000133054605519898,18.8704216583852
0.000142140227986203,18.8804216583852
0.000152245556783973,18.8904216583852
0.000163522355536331,18.9004216583852
0.000176155683197585,18.9104216583852
0.000190372276650943,18.9204216583852
0.000206451918621986,18.9304216583852
0.000224742937688866,18.9404216583852
0.000245683566573073,18.9504216583852
0.000269831789566924,18.9604216583852
0.000297907761299552,18.9704216583852
0.000330855271160244,18.9804216583852
0.000369932784553666,18.9904216583852
0.000416851689903289,19.0004216583852
0.000473599508586029,19.0103584350196
0.000538046313392146,19.0195532403885
0.000610983025852657,19.0280371317871
0.000693496278699894,19.0358648350576
0.000786853532806793,19.0430880448747
0.000892500544932694,19.0497546891628
0.00101207667221599,19.0559092141896
0.00114743865697203,19.0615928694907
0.00130068984951937,19.0668439402798
0.00147421404424809,19.0716979439965
0.0016707124660537,19.0761878420264
0.00189325106717011,19.0803442549334
0.00214531414775813,19.0841956576338
0.00243086879273254,19.0877685437737
0.00275444648147996,19.091087608007
0.0031212441856904,19.0941759462865
0.00353725768903059,19.097055247436
0.0040094548159508,19.0997460023731
0.00454601490177903,19.1022677629194
0.0051566701674128,19.1046394530307
0.00585320828441314,19.106879782803
0.00662363253193122,19.1089427669477
0.00747499416248162,19.1108564388354
0.00842060996496269,19.1126549162907
0.00948071156044142,19.1143733344891
0.0106895261740825,19.1160542060888
0.0121322189751441,19.1177826111427
0.0140997540742618,19.1198082500386
0.0157754665149888,19.1213348724518
0.0175872672937534,19.1228614948651
0.0192689648337729,19.1242223039164
0.0207455428405745,19.1254192908115
0.0220688115136209,19.1265385690817
0.023250810402603,19.1276300512042
0.0242808583103869,19.1287320125025
0.0251311287313971,19.1298873954056
0.0257478896155873,19.1311650509006
0.0260035094039874,19.1327385960763
0.0256572737727864,19.1344815835445
0.0247457612278662,19.1362245710126
0.0236517570701592,19.1376815733227
0.0224134348762539,19.1390701875902
0.0210315427286077,19.1404803154275
0.0195153399821312,19.1419556643025
0.0178724200944531,19.1435338709983
0.0165480629384072,19.1448326345992
0.0152970978311326,19.1461313982
0.0132935146370918,19.1484037626692
0.0119358543226819,19.15011421571
0.010700959291389,19.1518246687508
0.00969172849373503,19.1533591159769
0.00881666090780528,19.1548122810688
0.00800797042663113,19.1562789721132
0.00721722614658642,19.1578538687565
0.00638327664207814,19.1597029682975
0.00538145555939061,19.1622594302796
0.00450279284077611,19.1649190892802
0.00380665305223426,19.1674251336767
0.0032084564961392,19.1699877184921
0.00264771525773742,19.1729005738564
0.00215478829090089,19.1761028361847
0.00174690135650546,19.179527518409
0.0014221910440967,19.1832159081606
0.00118300488584084,19.1872230434738
0.00104006612029152,19.191620242651
0.00101544837166091,19.1959027903946
0.0010946622067664,19.1997312571758
0.00126033030076131,19.2031748041401
0.00150342812683402,19.2062776429097
0.00182020995153547,19.2090874504174
0.00221119148907156,19.21165329728
0.00268108631967815,19.2140244056936
0.00323964322718688,19.216250406776
0.00390520336578629,19.2183879080101
0.00471189241408884,19.2205083581991
0.00571991838416797,19.2227025581264
0.00706165448546383,19.2251371675119
0.00885983280885746,19.2278681152332
0.0104427256003992,19.2299371767104
0.0122457603149212,19.2320062381875
0.0140353292753253,19.2338046538661
0.0158451292151763,19.2353994440562
0.0177769500430975,19.2368881705236
0.0198730417387202,19.238293749902
0.0221814524040558,19.2396347123271
0.0247518490999224,19.2409233024108
0.0276208448971054,19.2421611437091
0.0308394135194428,19.2433542822469
0.0344537692980503,19.2445043893769
0.0385168650406155,19.2456138794382
0.0430917641451655,19.2466860584614
0.0482465251815728,19.2477233111514
0.054063211610384,19.2487288265398
0.0606378896851888,19.2497058396734
0.0680836875588128,19.2506576188613
0.076535725007103,19.2515875943122
0.0861597546957318,19.2524996570858
0.0971583599373787,19.2533979373604
0.109783940787341,19.2542870445302
0.124355944320565,19.2551722414065
0.141288906210221,19.2560598434728
0.161133393724741,19.2569576429408
0.184652611239253,19.2578760247368
0.212093673514771,19.2588026045129
0.243887735685354,19.2597356866246
0.280887915284063,19.2606864293353
0.324349218336059,19.2616745379027
0.364514326764683,19.2625052814071
0.407115947145221,19.2633360249115
0.443917131846486,19.2640399318769
0.475727296868995,19.2646628600409
0.503675017757976,19.2652480012114
0.527999892527676,19.2658221040194
0.548408012613589,19.2664083410673
0.564046869964778,19.2670357010178
0.572930509348988,19.267757458185
0.571101003321976,19.2685185167371
0.557077789119694,19.2693122071584
0.529266700861906,19.2701586478807
0.487303667688051,19.2710391234713
0.430614593539738,19.2719544553645
0.378315208513177,19.2726628321809
0.319634262089773,19.2733712089974
0.268876795615369,19.273941946924
0.226801707092389,19.2744016182066
0.19060045758634,19.2747970296538
0.15855909936913,19.2751542288873
0.129731678016069,19.2754878972015
0.103517704024237,19.2758078885531
0.0794637074472655,19.2761223560112
0.0571397144005146,19.2764401163369
0.0359551471253732,19.2767750363058
0.0143520361277302,19.2771664802275
-0.000470765664300232,19.2774787892963
-0.00800825699671326,19.2776570319486
-0.0149073283052403,19.2778352746009
-0.0209256269265104,19.2780054441211
-0.0271038894687101,19.2781980427378
-0.033161229319957,19.2784094513586
-0.0388973078911978,19.2786368960123
-0.0441983663107279,19.2788791854478
-0.0490031519185464,19.2791361775843
-0.0532820100206828,19.2794084589241
-0.057024630113082,19.2796971828168
-0.0602326476106634,19.2800040040551
-0.0629091836443209,19.2803310772554
-0.0650918831304655,19.2806876478047
-0.0667065137374578,19.2810610530668
-0.0678332460163904,19.2814644636474
-0.0684859783360819,19.281903078544
-0.0686747894844679,19.2823833260929
-0.0684044803861472,19.2829134789124
-0.067670690428729,19.2835051877421
-0.0664542305847819,19.2841746259395
-0.0647139317826775,19.2849448582013
-0.0623652456601702,19.2858537126942
-0.0592114350076334,19.2869775222006
-0.0550072359831781,19.2884111358638
-0.0508954097763273,19.289794278449
-0.0469399355277143,19.2911363964425
-0.0431758059101752,19.2924404658394
-0.039621680768594,19.2937076045072
-0.036287419116532,19.2949379934538
-0.0331772021340233,19.2961313597536
-0.0302910553767317,19.2972872319102
-0.0276257569509901,19.2984050736461
-0.0251754985230217,19.2994843506417
-0.0229324375388902,19.3005245582861
-0.0208871906978562,19.3015252252902
-0.0190292830829729,19.3024859012982
-0.0173475541700515,19.3034061330195
-0.0157619477714963,19.3043264345384
-0.0142354413434961,19.305270361785
-0.0127724365464346,19.3062395532754
-0.0113768322352021,19.3072361454416
-0.0100523223134676,19.3082626481195
-0.0088023415509416,19.3093220387132
-0.007630011323163,19.3104178845641
-0.00653808243810319,19.3115545080849
-0.00552887463084004,19.312737214867
-0.00460421166205423,19.3139726175674
-0.00376534986283829,19.315269111106
-0.00301289599426651,19.3166375980205
-0.00234670645409196,19.3180926511952
-0.00176575164673018,19.3196544972982
-0.00128469869861897,19.3212876809793
-0.000901013820474588,19.3229698040262
-0.000598436997332333,19.3247192005028
-0.000362236701775605,19.3265578143094
-0.000178437517309966,19.3285151542476
-3.33244412414281e-05,19.3306334353106
8.73550383632348e-05,19.3329784690846
0.000200062355829368,19.3356670720898
0.000328670677479957,19.3389613745276
0.0004839559509135,19.3427070385612
0.000672116814655563,19.3467579944843
0.000916642444756555,19.3515129013678
0.00116998637976209,19.3561556721836
0.001412674315705,19.3605152577303
0.00165201848626248,19.3648251597316
0.0019015060648474,19.3693751098397
0.00217260602189744,19.3743964859152
0.00243391134085713,19.3792854176859
0.00270094693274482,19.3842991260968
0.00292969241251477,19.3885676951096
0.00314274176347229,19.39250406049
0.00335153612709927,19.3963074620493
0.00356198220155006,19.4000718707533
0.00377817822403486,19.4038550213458
0.00400359060562395,19.4076992768529
0.00424153162986729,19.4116394311526
0.00449542682330608,19.4157065058259
0.00476904175087055,19.4199304490487
0.00506666998097236,19.4243415715506
0.00539337952223549,19.428971781909
0.00575540362151309,19.4338559013606
0.00616077101195748,19.4390327594991
0.00658184178425471,19.4440937906106
0.00702780335390522,19.4491198070345
0.00749877863744411,19.4540691142368
0.00799963201075074,19.4589480084112
0.00853544015588488,19.4637566140393
0.0091125116848157,19.4684993276883
0.00973787304803347,19.473179048078
0.0104192979724923,19.4777971764415
0.0111808987399666,19.4824440788219
0.0120376898565933,19.4871190619471
0.013010659991631,19.4918363102622
0.0141287620505681,19.4966240212857
0.015437898487956,19.5015477051653
0.0170284843237032,19.5067756220339
0.0191790537408846,19.5129149168773
0.0209204476825529,19.5173754283751
0.0227622115216646,19.5218359398729
0.0243110895904836,19.5255687110832
0.0256005651910615,19.5288403506604
0.0266798526588326,19.5319064985465
0.0275402380872138,19.534883633294
0.0281316037626286,19.5377226590217
0.028454568229864,19.5405439508548
0.0284824602476088,19.5434978656945
0.0281182279309067,19.5468849570825
0.0270847943187501,19.5512211978945
0.0261818710459981,19.5538931971979
0.0251221764507312,19.5565651965013
0.024049079276409,19.5590098368455
0.0229748436264347,19.5613121074419
0.0219001617118349,19.5635350729724
0.0208279019894801,19.5657144477145
0.0197617176027154,19.5678729299256
0.0187052912449767,19.5700265649636
0.0176621000260088,19.5721876098632
0.0166353539221788,19.5743659994709
0.0156279849140764,19.5765701917876
0.0146426518407633,19.5788076994978
0.0136817539953,19.5810854389721
0.0127474378271086,19.5834099959776
0.0118416093278389,19.5857878178353
0.0109659452335678,19.5882253697756
0.0101218950436695,19.5907292955149
0.00931069628728482,19.5933065323082
0.00853337762521039,19.5959644596345
0.00776897266946891,19.5987951263871
0.00702048695009993,19.6018208685223
0.00629172063847159,19.6050653141531
0.00558661324612615,19.6085557412678
0.00490926958620282,19.6123237203779
0.00426390129487906,19.6164059771463
0.00365471778251638,19.620845632782
0.00308575200768846,19.6256942530921
0.00256063018782011,19.6310153516411
0.00208226926697807,19.6368910627489
0.00165278617631235,19.643431010569
0.00128294572087787,19.6505782078967
0.00097443878213104,19.6583112658419
0.000720651551025542,19.666756053488
0.000521783046261971,19.6760797095938
0.000386748576638482,19.6854513293979
0.000287469938583378,19.6953360007263
0.000217286764962885,19.7053360007263
0.000168486521908195,19.7153360007263
0.000135033275411543,19.7253360007263
0.000112544465186906,19.7353360007263
9.77789511483036e-05,19.7453360007263
8.84067436180672e-05,19.7553360007263
8.280954808833e-05,19.7653360007263
7.9887232465708e-05,19.7753360007263
7.88965503513308e-05,19.7853360007263
7.93345541109061e-05,19.7953360007263
8.08612086885349e-05,19.8053360007263
8.32493523023378e-05,19.8153360007263
8.63517602856197e-05,19.8253360007263
9.00787820899943e-05,19.8353360007263
9.43829087046502e-05,19.8453360007263
9.92482190588617e-05,19.8553360007263
0.000104683405815035,19.8653360007263
0.000110717464654628,19.8753360007263
0.000117397391669485,19.8853360007263
0.000124787449015789,19.8953360007263
0.000132969742014898,19.9053360007263
0.000142046004613912,19.9153360007263
0.0001521406246869,19.9253360007263
0.000163405072298752,19.9353360007263
0.000176024042445932,19.9453360007263
0.000190223812608098,19.9553360007263
0.00020628357648271,19.9653360007263
0.000224550896122559,19.9753360007263
0.000245462991646503,19.9853360007263
0.000262904530253645,19.9926680003632
0.000282283438156815,20
