ecg,time
0.00157678358767608,15.0052085447369
0.00121823473385196,15.0124121039779
0.000929052002074181,15.0202161441293
0.000700161138534287,15.0289950601656
0.000544838848296874,15.0372460112834
0.000412378383688116,15.0468707172478
0.000315841454054472,15.0568707172478
0.000249440714492119,15.0668707172478
0.000204452221757276,15.0768707172478
0.000174494674093045,15.0868707172478
0.000155003512806157,15.0968707172478
0.000142812733936501,15.1068707172478
0.000135771309462534,15.1168707172478
0.000132428767178108,15.1268707172478
0.000131807993963772,15.1368707172478
0.000133253830169799,15.1468707172478
0.000136335041261413,15.1568707172478
0.000140780167084728,15.1668707172478
0.00014643461123162,15.1768707172478
0.000153231815697792,15.1868707172478
0.000161174512416545,15.1968707172478
0.000170323624184649,15.2068707172478
0.000180793261252311,15.2168707172478
0.000192750905330925,15.2268707172478
0.000206422473448532,15.2368707172478
0.000222102579539893,15.2468707172478
0.000240171031633499,15.2568707172478
0.000261117537190019,15.2668707172478
0.00028557794274221,15.2768707172478
0.000314387453569966,15.2868707172478
0.000348659779944643,15.2968707172478
0.000389907182627748,15.3068707172478
0.000440227165961322,15.3168707172478
0.000498571981282798,15.3262801731028
0.000565033961189759,15.3349693093953
0.000640632785626416,15.3429872911441
0.000726599831537045,15.3503863987139
0.000824346362030487,15.3572153981246
0.000935474256095489,15.3635195694859
0.00106179788243796,15.3693409657945
0.00120537144491416,15.37471864835
0.00136852142342522,15.3796888943995
0.00155388242557656,15.3842853993484
0.00176444124721458,15.3885394740473
0.00200358729810794,15.3924802339623
0.00227517528442784,15.3961347758377
0.00258360084657728,15.3995283560573
0.00293389664165313,15.4026845771472
0.00333185624182013,15.4056255812485
0.00378419613648578,15.4083722586903
0.00429877744978161,15.4109444912965
0.00488491791645473,15.4133614501589
0.00555384895161452,15.415641986221
0.0063005664404142,15.4177564811764
0.00712605156060808,15.4197130722563
0.00804237202274229,15.4215460069003
0.00906781099371816,15.4232901992087
0.0102324700174862,15.4249861126682
0.0115947834616098,15.426693884657
0.0133899920025783,15.4286304463536
0.015192463342396,15.4303364283324
0.0171712526059554,15.4320424103111
0.0188823431948291,15.4334479842892
0.0203613041611572,15.4346609994853
0.0216837487284187,15.4357893978718
0.022865391792612,15.4368863775605
0.0238968571259991,15.437990624832
0.0247516927633188,15.4391442106074
0.0253789388892463,15.4404125272391
0.0256615920590358,15.441952508596
0.0253321676741753,15.4437773994685
0.0243840581866574,15.4456022903409
0.0232732314424188,15.44707669563
0.0220275895628344,15.4484703099654
0.020640585871284,15.44988395535
0.0191201549647839,15.4513624948542
0.0174734704156459,15.4529436259807
0.0160876812301685,15.4543055810143
0.0147826106216024,15.4556675360479
0.0122931883768273,15.4585528516172
0.0101582491933323,15.4614376183069
0.00848151443395218,15.4640867530223
0.00712887445245617,15.4665718378988
0.00595096203536756,15.4690877747599
0.00491803012570988,15.4716669364028
0.00407035805360047,15.4741428393861
0.00337332299896079,15.476510697286
0.00278948285419276,15.4788043701422
0.00228871064574776,15.4810710890468
0.00184380140071038,15.4833906584953
0.00141932396786723,15.4859584439237
0.00109303512606588,15.4882420772145
0.00080777094621895,15.4905257105052
0.000599715257449875,15.4924039994231
0.000433144651349994,15.494065837727
0.000285836156759346,15.4956744549864
0.000146980531795151,15.4973306140513
7.58985356178409e-06,15.4991529381856
-0.000146977661216791,15.5013956338135
-0.00040386370842658,15.5057754217197
-0.000606997003210106,15.5100216640181
-0.000753505901650158,15.5136927505678
-0.000884066208172472,15.5175755687453
-0.00102202253530091,15.5226550973413
-0.00112787912674683,15.5280306316887
-0.00117975753460952,15.5327980936382
-0.00117941356540383,15.5371113560168
-0.00112307122696527,15.5409955328733
-0.0010058699910164,15.5445010575439
-0.000822463374050808,15.5476750273493
-0.000566361312145993,15.5505743216931
-0.000229244666994393,15.5532553364958
0.000201283798788775,15.5557794682147
0.000746716085487148,15.5582214028099
0.00144614471674305,15.5606765084745
0.0023862094286725,15.5633115926073
0.0036941590437398,15.566280016529
0.00535329251912663,15.5693919087527
0.0066879058601416,15.5715524566871
0.00819726436534213,15.5737130046215
0.0097037438222525,15.5756111783026
0.0112878274949425,15.5773658129647
0.0129263224324366,15.5789554658042
0.0147293488246215,15.5804821849401
0.0167201952191532,15.5819456524411
0.0189179016166283,15.5833432063014
0.021372840316582,15.5846905515273
0.0241103643183096,15.5859850102399
0.0271751314421176,15.5872325441275
0.0306089617931376,15.5884352707928
0.0344546731252092,15.5895943157249
0.038770042659871,15.5907137300143
0.0436184896146252,15.5917965891168
0.0490737257157442,15.5928460353284
0.0552228642472877,15.5938654057487
0.062168619427194,15.5948580779613
0.0700386797034551,15.5958281885643
0.0789871512586018,15.5967799213325
0.0892053020442817,15.5977179343779
0.100935045514314,15.5986475796612
0.114488879319003,15.5995751981211
0.130284321760342,15.600508775739
0.148899972998138,15.6014588462538
0.170982232306413,15.6024321755434
0.196551722787927,15.603408746083
0.226275438245034,15.6043987348431
0.26104917539462,15.6054167905639
0.302220839551143,15.6064879014257
0.339970729118591,15.6073853335828
0.379859217439295,15.6082827657399
0.414686819437564,15.609052831504
0.444886118987163,15.6097367670987
0.471308646012041,15.610376485733
0.49412428461057,15.6109988926005
0.513043516185056,15.6116264303136
0.527294031000674,15.6122844300597
0.535246965419536,15.6130117691108
0.533687656503286,15.6138074119895
0.520606069590965,15.6146247886555
0.494637667391862,15.6154810514954
0.45395217856903,15.6163889613839
0.396483085487939,15.6173569768001
0.350371295701058,15.6180074804344
0.299160414559558,15.6186579840687
0.253790715635016,15.6191983081685
0.215181068360296,15.6196462691086
0.181419751650926,15.6200383452328
0.151262357373974,15.6203960587953
0.123973433119212,15.6207323458658
0.0990589520608066,15.6210563476512
0.0761265801428329,15.6213759675578
0.0547829416474755,15.6217001334844
0.034450093696156,15.6220435607419
0.0134612068468004,15.6224510486769
0.00125472672504013,15.6227246562812
-0.00618081385069743,15.6229098528062
-0.0129786407599193,15.6230950493311
-0.0188936453369131,15.623271626275
-0.0249395815236823,15.6234708442746
-0.0308492725756426,15.6236891106021
-0.0364320416522348,15.6239236517053
-0.0415804659130063,15.6241733036299
-0.0462372572802928,15.6244379640277
-0.0503751291274819,15.6247182656987
-0.0539841982991004,15.6250154134857
-0.0572705368427411,15.6253564134615
-0.0597515230297673,15.6256919101625
-0.0617224952370036,15.6260505566269
-0.0632008030430905,15.6264361224329
-0.0642006724145119,15.6268528402718
-0.064734545615794,15.6273059724067
-0.0648114759652831,15.6278021567738
-0.0644351409374005,15.6283499334971
-0.0635992840601955,15.628961678158
-0.0622832039099695,15.6296539085302
-0.0604438155056418,15.6304506234078
-0.057993136749328,15.6313915180975
-0.0547238234133701,15.6325582577373
-0.0506093128431707,15.6339741851832
-0.0466078297202823,15.6353408794222
-0.0427770815386396,15.6366657059316
-0.0391464957663743,15.6379516135207
-0.0357312692504203,15.6391997620231
-0.0325386413493492,15.6404104067713
-0.0295706133250469,15.6415833616312
-0.0268253467228491,15.6427182428648
-0.024298038833544,15.6438145960657
-0.0219815759359114,15.6448719582406
-0.0198670804473914,15.6458898819363
-0.0179443938974774,15.6468679357476
-0.016202508909899,15.6478056890715
-0.0146066167558066,15.6487164079478
-0.0130682247767249,15.6496502766247
-0.0115922530374028,15.6506085791614
-0.010182690148539,15.6515933189867
-0.00884334793198418,15.6526068378457
-0.0075778061089387,15.6536519022269
-0.00638936090084194,15.6547318117581
-0.00528097120571939,15.6558505441787
-0.00425520234535232,15.657012953489
-0.00331416696570135,15.6582250478364
-0.00245946205333113,15.6594943912492
-0.00169209992659192,15.6608307059717
-0.00101242902983267,15.6622468167396
-0.000420036292304446,15.6637602162599
8.15785374422347e-05,15.6653781876552
0.000477688055697667,15.6670373542897
0.000785528840847988,15.6687560835128
0.0010200650418293,15.6705540020774
0.00119528313195587,15.6724569856336
0.0013245756882068,15.6745009961825
0.0014213050636767,15.6767398942998
0.0014998037149258,15.6792634779807
0.00157787871178211,15.6822504942095
0.00168057252666801,15.6859868688596
0.00180749841537628,15.6898577658515
0.00198030757712584,15.6942725769176
0.00216084396889473,15.6983586745945
0.0023437105877601,15.7022324461166
0.00252896200372027,15.7060242470917
0.00271711073926828,15.7098075446735
0.00290930800850229,15.7136318799261
0.00310729181685651,15.7175357597339
0.00331328002157208,15.7215523979904
0.00352987535372403,15.7257127397456
0.00376001669383293,15.7300475045013
0.00400698495286848,15.7345886060591
0.00427451631569805,15.7393705458839
0.00456708055162275,15.7444318153227
0.00489039598572523,15.7498160968311
0.00523157495478511,15.7552478235467
0.00558332669702465,15.7605681864554
0.00595009717953335,15.7658057391366
0.00633412784833202,15.7709478832555
0.00673967347842697,15.7760067110496
0.00717103690638454,15.7809895296758
0.00763297052409263,15.785903761552
0.00813051110079301,15.790753979775
0.00866909979217779,15.7955425012394
0.00925466935440084,15.800269544575
0.00989376460842509,15.8049337510588
0.0105944106824704,15.8095374289357
0.0113823497656284,15.8141748055081
0.0122716194764641,15.8188342759149
0.0132846376588975,15.8235323724391
0.0144527437580849,15.8283008333424
0.0158277000809248,15.8332162443256
0.0175182644786487,15.8384834569391
0.0199179148433714,15.8449517288947
0.021589721475858,15.8490199957171
0.0233344880827349,15.8530882625395
0.0248446034908305,15.8566290591417
0.0261151796587638,15.8597943454585
0.0271778066478005,15.8627918338648
0.0280059077878093,15.8656794806557
0.028566099670332,15.8684535802858
0.028855546569476,15.8712335256265
0.028840696155966,15.8741775960328
0.0283993439461339,15.8776434578446
0.0276137798839483,15.8808581959833
0.0265246839274806,15.8840729341221
0.0254387935325468,15.8867443143784
0.0243672966935149,15.8891285502538
0.0232958102041419,15.891374917316
0.022223291216291,15.8935467035844
0.0211526568150895,15.8956774515068
0.0200875916094782,15.89778853015
0.0190317556785852,15.8998951553051
0.0179885811295283,15.902009012609
0.0169612208540815,15.904139619404
0.0159525441803254,15.9062951142895
0.0149651473085137,15.9084827544173
0.01400136395247,15.9107092600826
0.0130632800834661,15.9129810582735
0.0121527442275646,15.9153044797848
0.011271375256255,15.9176859303805
0.0104205787886132,15.9201320215115
0.00960154889480283,15.9226497343306
0.00880978867654829,15.9252653973069
0.00802920094462562,15.9280547780576
0.00726357958402792,15.9310377153546
0.00651671548936261,15.9342380053619
0.00579263823642878,15.937683169224
0.00509558763307685,15.9414051495439
0.00442995823046303,15.9454411937973
0.00380020667362009,15.9498350372346
0.00321068198847487,15.9546388653787
0.00266537167290243,15.9599168403461
0.00216758910141358,15.9657515579798
0.00171976041719948,15.9722542996275
0.00133823999706515,15.9792701353797
0.00102247187315004,15.9868475434155
0.000834023747724908,15.9930300298452
0.00063764132326812,16.0015641894378
0.00048414730133425,16.010747523723
0.000365478804353739,16.020747523723
0.000283408654463245,16.030747523723
0.000227376251602283,16.040747523723
0.00018970163672029,16.050747523723
0.00016483609558438,16.060747523723
0.000148883578739362,16.070747523723
0.000139175790384778,16.080747523723
0.00013390767543738,16.090747523723
0.000131861229939665,16.100747523723
0.000132215819825597,16.110747523723
0.00013442416648548,16.120747523723
0.000138131590189777,16.130747523723
0.000143122364139728,16.140747523723
0.000149283552943395,16.150747523723
0.000156580937375959,16.160747523723
0.000165043853798911,16.170747523723
0.000174756931941182,16.180747523723
0.000185857457084704,16.190747523723
0.000198537707285162,16.200747523723
0.000213052226933128,16.2107475237231
0.000229730655559522,16.2207475237231
0.000248997525845555,16.2307475237231
0.0002714015313995,16.2407475237231
0.000297658400465799,16.2507475237231
0.000328714140072015,16.2607475237231
0.000365839839756929,16.2707475237231
0.000410776969541602,16.2807475237231
0.000464914829358733,16.2905729750768
0.000526727226893834,16.2996622802786
0.000597066081735733,16.3080498818676
0.000677060318967815,16.3157896528491
0.000768020454376271,16.3229324237379
0.000871439440488827,16.3295253984738
0.000989009568992025,16.3356124083425
0.00112264698818706,16.3412341647639
0.00127452137536334,16.3464284805677
0.00144708984623165,16.3512304739428
0.00164313600075749,16.3556727684413
0.00186581666759432,16.3597856877545
0.00211871761001735,16.3635974387646
0.0024059206273051,16.3671342871542
0.00273208834301289,16.3704207390592
0.00310257059002554,16.3734797310647
0.00352354360154218,16.3763328279361
0.00400219547485691,16.3790004441944
0.00454698210582253,16.3815021086144
0.00516799445955637,16.383856795807
0.00587446151985261,16.3860746596892
0.00665484085263369,16.3881153710689
0.00751865706313763,16.3900131422872
0.00848041414517861,16.3918024368885
0.00956255502516835,16.3935196677742
0.0108043959387064,16.395211222595
0.0123203430072956,16.396989690775
0.0145047114627467,16.3991846806526
0.0161307316720593,16.4006388271513
0.0178639064074009,16.40209297365
0.0194576373721652,16.4033947969188
0.0208727278038891,16.4045671085136
0.0221423619990383,16.4056788149574
0.0232698073880076,16.406774121048
0.0242392559170064,16.4078912516268
0.0250168310270466,16.409077778105
0.025535776092167,16.4104189557747
0.0256098482680595,16.4121785773229
0.0250766794375366,16.4138634108034
0.0240583729708588,16.4155482442838
0.0229087166446086,16.4169797941838
0.0216197863296734,16.4183731578671
0.0201913916302243,16.4198025113276
0.0186321949836979,16.4213080412343
0.0169477740651239,16.4229287524083
0.0156101349597129,16.4242695966192
0.0131587221967346,16.4269763743291
0.0108335513437717,16.4299504358795
0.00901309048936843,16.43267810298
0.00756384035144402,16.4352078842376
0.00633075298457537,16.4377098438233
0.00525140863388299,16.4402650244161
0.00434210942728661,16.4427831452712
0.00359809292473205,16.4451847417269
0.00297913481435438,16.4474993847667
0.00245298468440917,16.449768626263
0.00199208530266709,16.4520572234252
0.00156628489529095,16.4545007026979
0.00110174297740465,16.4576535359643
0.000866051637029831,16.4595107406492
0.000654363926828257,16.461367945334
0.000479657378846899,16.4630633321895
0.000328063181950162,16.4646761263103
0.00018761671626001,16.4663081966001
4.94318710657918e-05,16.468065334047
-9.8176305167662e-05,16.4701377968752
-0.000294543314361054,16.4732771255436
-0.000481612560068035,16.4767861221764
-0.000618457257642319,16.4797724802966
-0.000738797354841838,16.4827814229052
-0.000859495142938654,16.4862765935452
-0.000988867509692726,16.4907958843964
-0.00110961118286966,16.4963994345581
-0.00117257038944699,16.5012618908395
-0.00118401519052263,16.5056773429487
-0.00114034775902279,16.5096514365051
-0.00103695115325118,16.5132361560882
-0.000868591777080172,16.5164780718118
-0.000629034128807714,16.5194334296477
-0.000310584877788729,16.5221572387979
9.7820143424066e-05,16.5247089571297
0.000614667904406524,16.5271584885778
0.00127744417209817,16.5296082156759
0.00215057658052329,16.5321767382987
0.00339075145588786,16.5351172529884
0.00497361571725305,16.5382018055241
0.0063612613808868,16.5405217937483
0.00794191845122376,16.5428417819724
0.00948147908455392,16.5448228201189
0.0110145814553386,16.5465570268477
0.012657272809852,16.5481870317227
0.0144243498142032,16.5497174501221
0.0163770973052848,16.5511871348487
0.0185367542545244,16.5525940510057
0.0209473937413182,16.5539497577949
0.023636022942781,16.5552526798553
0.0266459368519834,16.5565083760339
0.030016926038541,16.5577184576128
0.0337919730793967,16.5588844535681
0.03802766734628,16.5600104091992
0.042785274533732,16.5610992159889
0.0481360115360615,16.5621539010717
0.0541636567415006,16.5631776751419
0.0609712536277943,16.5641744466662
0.0686809108701533,16.5651480098625
0.077441554468624,16.5661024792608
0.0874375992537557,16.5670424246371
0.0989006758173097,16.5679730007625
0.112130854416321,16.568900442149
0.127525411218853,16.5698324080199
0.145630891977151,16.5707789042759
0.167203637893944,16.5717524932706
0.192170976674714,16.5727279406936
0.22117218199182,16.5737149214359
0.255057541496656,16.5747271520094
0.295072828799147,16.5757871696078
0.342348812904445,16.576917047683
0.384039296646358,16.5778522984597
0.418442007316229,16.5786134720728
0.448179341460877,16.579290641216
0.47418080851901,16.5799270936096
0.496563028285036,16.5805489385815
0.514986429634616,16.5811785954843
0.528607273499614,16.5818422673805
0.535638317576403,16.5825817627227
0.532780579155091,16.5833789797212
0.518267283539713,16.5842001008855
0.490673667118725,16.5850618565281
0.448126216159397,16.5859764363802
0.388549279992621,16.5869520866722
0.343185091177137,16.58757966366
0.293230805673816,16.5882072406478
0.248887826129198,16.5887327224594
0.210955519533426,16.5891723238347
0.177673895424937,16.5895594187433
0.147888379432091,16.589914018322
0.120903663570014,16.5902484124375
0.0962435877135343,16.5905714833439
0.073521228033551,16.5908911246086
0.0523345504816421,16.5912165990581
0.032056321742305,16.591564042649
0.0106427737984081,16.5919884927697
0.000503408126935254,16.5922197922911
-0.00683426815963566,16.5924040757819
-0.0135430786066673,16.5925883592727
-0.0194711675861807,16.5927668990547
-0.0255152327415,16.592968108655
-0.0314002850762234,16.5931880213129
-0.036945156589825,16.5934240377488
-0.0420484305045529,16.5936751159551
-0.0466563915293545,16.5939412348635
-0.0507439153151321,16.5942230871786
-0.0543017659323377,16.5945219279097
-0.0575360777373991,16.594865363738
-0.0599668292011919,16.5952030296635
-0.0618889767865842,16.5955641454036
-0.0633198824818348,16.5959525555337
-0.0642736677761814,16.59637258231
-0.0647625188648063,16.5968296052108
-0.064795059579314,16.5973304211801
-0.0643743101371723,16.5978837952069
-0.0634926891064333,16.5985025972848
-0.0621278361364907,16.5992038135652
-0.0602336193692655,16.6000125021474
-0.0577152715740238,16.6009707394965
-0.0543433928756523,16.6021679491673
-0.0502367580526756,16.6035784588619
-0.0462491240190756,16.6049411308787
-0.0424357934826038,16.6062623148684
-0.0388244624883473,16.6075447398895
-0.0354294235073992,16.6087894557731
-0.0322573547005056,16.6099966632057
-0.0293098599663193,16.6111661505198
-0.0265847982472627,16.6122975237272
-0.0240771303911282,16.6133903259266
-0.0217795597132514,16.6144440950815
-0.0196830721324041,16.6154583855371
-0.0177774142746865,16.616432766839
-0.0160515209408318,16.6173668073065
-0.0144607801842802,16.6182796277361
-0.0129280281735633,16.6192156948228
-0.0114580739380023,16.6201763697834
-0.0100548918691392,16.6211636844788
-0.00872227428514615,16.6221800163783
-0.00746377672643834,16.6232281765627
-0.00628266632362561,16.6243115210022
-0.00518186775020299,16.6254340996625
-0.00416390672905345,16.6266008607572
-0.00323085063052186,16.6278179379435
-0.00238424504078222,16.6290930668079
-0.00162504402139115,16.6304362116771
-0.000953529625347401,16.6318605528592
-0.000369211863356129,16.6333841331176
0.000121981282550296,16.6350052096933
0.000509360064200565,16.6366691295218
0.000809888320125295,16.6383942117829
0.00103842774068234,16.6402005516663
0.00120889215706218,16.6421147474398
0.00133464430414743,16.644173986347
0.00142908301127578,16.6464344188842
0.00150671385416277,16.6489908289705
0.0015859344952616,16.6520362093743
0.00168977403974761,16.6557697318365
0.00181983506879761,16.6596744574944
0.00199736000907683,16.6641514747354
0.00217821589164522,16.6682110905211
0.00236130292598839,16.6720727143523
0.00254679932254166,16.6758610570336
0.00273527659397652,16.6796463680304
0.00292794528007675,16.6834767484924
0.00312659357031087,16.6873900179701
0.00333347943136991,16.6914190681206
0.00355123887590117,16.6955947437167
0.00378284195621983,16.6999478199222
0.00403160612018577,16.7045103954248
0.00430132278008197,16.7093172971632
0.00459655391752138,16.7144074560634
0.00492317652476208,16.7198251213065
0.00526474376742157,16.7252373160443
0.00561804391452775,16.7305532501715
0.00598626044580095,16.7357804421794
0.00637220113970441,16.7409144336393
0.00678003159035196,16.7459655036047
0.00721413177508312,16.7509414653508
0.00767927009773558,16.755849358985
0.00818052180009603,16.7606935714251
0.00872336961805007,16.7654761890191
0.0093138003442317,16.7701972585214
0.00995842416879765,16.7748552979555
0.0106669232613437,16.7794622795237
0.0114638960834117,16.7841014085465
0.0123641076061135,16.7887638489959
0.0133905921555731,16.793466925652
0.0145760195832854,16.7982452078253
0.0159752989513143,16.8031823025032
0.0177076989645609,16.8085067960428
0.0201633783488601,16.8150416184362
0.0218013837909115,16.8189951204837
0.0235004387221094,16.8229486225313
0.0249813724521414,16.8264333957476
0.0262303715454834,16.8295739335595
0.0272724086184485,16.8325629112522
0.0280734087833524,16.8354339057566
0.0286071615859427,16.8382029332686
0.0288685918986538,16.8409908883152
0.0288194819205092,16.8439642762544
0.0283180511725388,16.8475297177235
0.0275191101017414,16.8506495346038
0.0264403742075471,16.8537693514842
0.0253586997469105,16.8564046800242
0.0242876569292179,16.8587747167959
0.0232160579862104,16.8610138989927
0.0221435620074371,16.8631816946987
0.0210732141308258,16.8653103501327
0.0200087125886401,16.8674206340094
0.0189537044737855,16.8695274319948
0.0179116018748211,16.8716422316718
0.0168855366342697,16.8737744252092
0.015878357177944,16.8759320715052
0.0148926399029361,16.8781223772454
0.0139306997388545,16.8803520331125
0.0129946040875485,16.8826274540498
0.0120861849335659,16.8849549688966
0.0112070446255637,16.8873409945205
0.010358572210464,16.8897921663617
0.00954194746750452,16.89231549587
0.008750903723136,16.8949435209144
0.00797131283080632,16.8977466379604
0.0072069633835384,16.9007449768966
0.0064616647933162,16.9039625910407
0.00573946386017307,16.9074273050743
0.00504461356625461,16.9111714285212
0.00438151723403838,16.9152326467131
0.00375463076595147,16.9196552431136
0.00316828559774568,16.9244921525352
0.00262643026916421,16.929808641463
0.00213231517684532,16.9356890630291
0.00168830090037083,16.9422473265502
0.00131178055225853,16.9493027748291
0.001001841577259,16.9569275982387
0.000805381669857832,16.9635881057033
0.000614942068527738,16.9722177486942
0.000467803818946758,16.981404306794
0.000354140321899158,16.991404306794
0.000275627587125862,17.001404306794
0.000222111366223761,17.011404306794
0.000186196835702166,17.021404306794
0.00016255539161978,17.031404306794
0.000147457203835245,17.041404306794
0.000138352776676145,17.051404306794
0.000133518505478161,17.061404306794
0.000131791459782212,17.071404306794
0.00013238862330188,17.081404306794
0.000134788982082173,17.091404306794
0.000138656626561438,17.101404306794
0.00014378955563083,17.111404306794
0.000150085165928418,17.121404306794
0.000157517367101911,17.131404306794
0.000166122324293389,17.141404306794
0.000175990912713023,17.151404306794
0.000187266688078799,17.161404306794
0.000200148795627495,17.171404306794
0.00021489985289219,17.181404306794
0.000231859509426752,17.191404306794
0.000251465206558546,17.201404306794
0.000274282795662557,17.211404306794
0.000301051398221622,17.221404306794
0.000332749679772521,17.231404306794
0.000370695427371066,17.241404306794
0.000416698615445159,17.251404306794
0.000471682677029535,17.2611421133947
0.000534430611390061,17.2701470974288
0.000605827486005602,17.2784568069986
0.000687023141308108,17.2861247795935
0.000779348489839909,17.2932014105725
0.000884318399815471,17.2997334985032
0.00100364973815663,17.3057645002892
0.00113928643434083,17.3113347803756
0.00129342974490392,17.3164818284914
0.00146857246763654,17.3212404632491
0.00166753904835957,17.3256430315225
0.00189353291786644,17.3297196023191
0.00215019376216841,17.3334981482163
0.00244166599898028,17.3370047212846
0.00277268597914269,17.3402636356939
0.00314869163618139,17.3432976584781
0.00357596590189156,17.3461282089356
0.00406182916859534,17.3487755842361
0.00461490557917593,17.3512592301784
0.0052455067715266,17.3535980833013
0.00596003602281896,17.3557937453003
0.00674940030379567,17.3578162812226
0.00762359994759489,17.3596998725109
0.00859781126834465,17.3614789666225
0.00969578969054982,17.3631905779742
0.0109599305773321,17.3648832116377
0.0125234799022905,17.3666862913268
0.0148638725955858,17.3689929987839
0.0164746975439313,17.3704102154424
0.0181780636868059,17.3718274321009
0.0197327320693999,17.3730967862063
0.0211192189227951,17.3742535478239
0.0223628639964434,17.3753592608783
0.023462630706024,17.3764556652378
0.0243996407022479,17.3775815213702
0.025135730871886,17.3787883299055
0.0255934616575985,17.3801757807843
0.0255209310156918,17.3821121003571
0.0249083545457235,17.3836765407684
0.0238991235457866,17.3852409811797
0.0227375653571666,17.3866505501747
0.0214297157923527,17.3880450175569
0.0199828093202342,17.389482637719
0.0184061301797708,17.3910016177797
0.017307144664018,17.3920575312191
0.0162318544396829,17.3931134446584
0.0151067286870706,17.3942740589921
0.0126448435290353,17.3970714456241
0.0104355871355993,17.3999890300979
0.0087010855700351,17.4026691147957
0.00731082849927133,17.4051686659285
0.00610999178472603,17.4076781536839
0.00505766265350034,17.4102468194495
0.00418437875104346,17.4127403262006
0.00346781834009071,17.4151221090926
0.00286941123605519,17.4174240746832
0.00235817753737998,17.4196908292112
0.00190685389492215,17.4219951046381
0.00148276381935904,17.4245024833151
0.00112680076175224,17.4269449980555
0.000882431211446995,17.428852452072
0.000663618224674127,17.4307599060884
0.000487149416233547,17.4324645663009
0.000334790160845653,17.4340787173758
0.000194021922060213,17.4357077566181
5.59271554133752e-05,17.4374561131326
-9.08488473318547e-05,17.4395065805475
-0.000282109609077455,17.4425402777732
-0.000473187005677713,17.4460916134824
-0.000612118984097359,17.4491012388972
-0.000732844097264424,17.4520988543324
-0.000853341449427471,17.4555603138798
-0.000982090789337559,17.4600078722438
-0.00110574106659688,17.4656522088912
-0.00117089631188606,17.470534522766
-0.00118466275837261,17.4749689797327
-0.00114350367090543,17.4789615860682
-0.0010428215642271,17.4825629978612
-0.000877381997956867,17.4858196290703
-0.000641170334096407,17.4887853265043
-0.000326425256812563,17.4915178161469
7.79487421933103e-05,17.494077096617
0.000590348976399495,17.4965329481092
0.00124378027222826,17.4989731633384
0.00210567373637975,17.501533701238
0.00333288616213329,17.5044690937889
0.00490072043337724,17.5075477342758
0.00629970678688381,17.5099013783073
0.0078958844797802,17.5122550223389
0.00944001152735905,17.5142492932023
0.0109715518334,17.5159878226729
0.0126133178690575,17.5176226989618
0.0143764101175406,17.5191551422903
0.016324752036067,17.5206268978895
0.0184789646962473,17.522035491423
0.0208832122359933,17.5233926852094
0.0235644006427968,17.5246969118637
0.0265660004298339,17.5259538874886
0.0299266754156595,17.5271648553354
0.0336909822008191,17.5283319650584
0.0379144976971914,17.5294589484702
0.0426582226906835,17.5305486889754
0.0479921730850971,17.5316040414031
0.0540014701588812,17.5326285557425
0.0607879526900446,17.5336259772776
0.0684731096537212,17.5346000892589
0.0772050926193407,17.5355549971725
0.0871672898751725,17.5364952577995
0.0985896773130366,17.5374259873043
0.111770653291753,17.5383534206497
0.127104381449177,17.5392851604434
0.145132685778952,17.5402311361357
0.166627929786698,17.5412047832844
0.191503761166376,17.5421800796752
0.220395344920068,17.5431666267847
0.254146349367089,17.5441780080313
0.29398814991552,17.5452364187717
0.341139054548439,17.5463657791445
0.383062708934825,17.5473071999094
0.41761339821005,17.5480714903169
0.447455237462601,17.5487501708292
0.473550253887831,17.5493873156599
0.496029203715391,17.5500092558137
0.514563740908695,17.5506384093407
0.52832641042181,17.5513007741403
0.535566763111784,17.5520374718499
0.533000810280286,17.5528343104784
0.518809707398304,17.5536545710001
0.491582105986314,17.5545150810582
0.449453837165179,17.5554281588384
0.390351051503053,17.5564020862849
0.344816781768529,17.557034739898
0.294580952156202,17.5576673935111
0.25000754398648,17.5581961789931
0.211922254078218,17.5586376521365
0.178531637385359,17.5590258670048
0.148661332780175,17.5593811671252
0.121607138143722,17.5597159851808
0.0968889380302564,17.5600392600759
0.0741186796103178,17.5603588849971
0.0528965264010939,17.5606840402965
0.0326074417744076,17.5610305119533
0.0113057364061615,17.5614506749746
0.000771741461901687,17.5616898559257
-0.0066013971810471,17.5618744786698
-0.0133424190070956,17.5620591014139
-0.0192587224245516,17.5622367131694
-0.025303610273801,17.5624371877054
-0.0311979363016513,17.562656496305
-0.03675688050053,17.5628919700776
-0.0418768450321229,17.5631425225546
-0.0465028196769195,17.5634081030771
-0.0506088960001866,17.5636893824625
-0.0541856078294798,17.5639875973161
-0.0574390876510039,17.5643301326746
-0.0598883250212954,17.5646669960643
-0.0618284368843013,17.5650271980584
-0.0632767826557117,17.5654145554441
-0.064247524054601,17.5658333572501
-0.0647529434016205,17.5662889394251
-0.0648018248736025,17.5667880397974
-0.0643974337460285,17.5673393396399
-0.0635326837927924,17.5679555248263
-0.0621858332967294,17.5686534057846
-0.0603118952335639,17.5694576424502
-0.0578186723714624,17.5704094091471
-0.0544852562192175,17.5715951423123
-0.0503756177317918,17.5730076400032
-0.0463827629377501,17.5743718065886
-0.0425629073904692,17.5756943467396
-0.0389443789664797,17.576978069921
-0.035541801943174,17.5782240661826
-0.0323620614755471,17.5794325561637
-0.0294069084062259,17.5806033374931
-0.026674313754706,17.5817360198865
-0.0241593259255941,17.5828301473144
-0.0218547159686644,17.5838852573606
-0.0197515202471389,17.5849009036991
-0.0178395203747605,17.5858766555362
-0.0161076723466523,17.5868120816192
-0.0145150091769193,17.5877241180409
-0.012980153090882,17.5886593648042
-0.0115079543474242,17.5896191543665
-0.0101023926829958,17.5906055079362
-0.00876726772560023,17.5916207895967
-0.00750614407116644,17.5926677937145
-0.00632229973759033,17.5937498551333
-0.00521867219905132,17.5948709967242
-0.00419780198224228,17.5960361313381
-0.00326177337934822,17.5972513454909
-0.00241215118542633,17.5985243102787
-0.00164991123393048,17.5998648989335
-0.000975360397622657,17.6012861577868
-0.000388037462603586,17.6028059219888
0.000107024210588355,17.6044258263159
0.000497643506110848,17.6060879579519
0.000800884549674213,17.6078106512492
0.00103164696647214,17.6096138246794
0.0012038712868641,17.6115238031817
0.00133093083186901,17.6135773095037
0.00142620987706039,17.6158296230824
0.00150414716159607,17.6183736207391
0.0015829115849987,17.6213967880435
0.00168629873337872,17.6251310559856
0.00181516801124108,17.6290228786733
0.00199089866158961,17.6334760750403
0.00217163364126276,17.6375454893829
0.00235463724191117,17.6414115983715
0.00254004017647579,17.6452011801803
0.00272839145270645,17.6489856743866
0.00292087924242722,17.6528137170958
0.00311927284317805,17.6567233832969
0.00332581511561675,17.6607476839003
0.0035431295078874,17.6649174997699
0.00377417424069429,17.6692635834599
0.00402225277484814,17.6738179619144
0.00429113525156813,17.6786153367197
0.00458534810349379,17.6836944706899
0.00491070714633576,17.6890993963277
0.00525212709361181,17.694519039947
0.00560483748586906,17.6998366819624
0.00597250115916802,17.7050678040819
0.00635771212754186,17.7102048868721
0.00676466978512306,17.7152588949678
0.00719772508269478,17.7202374548598
0.00766164027909185,17.725147751691
0.00816147596082351,17.7299942435845
0.00870269895381209,17.7347791040306
0.00929127541082912,17.7395024446842
0.00993379054846531,17.7441628297037
0.01063929242002,17.7487685560667
0.0114328159803872,17.753407012036
0.0123288479045985,17.7580683097861
0.0133501837552524,17.762769459902
0.014528976789445,17.767543929634
0.0159189047946914,17.7724725763373
0.0176350670246676,17.7777745703845
0.0200898140594721,17.7843351704206
0.0217375041893859,17.7883215639409
0.0234497341357745,17.7923079574612
0.0249394378148297,17.7958093170381
0.0261950486471543,17.7989572517502
0.0272434425005762,17.8019487089999
0.028052798875552,17.8048247057189
0.0285947274610949,17.8075951720918
0.028864854373713,17.8103804897665
0.0288264515400687,17.8133444764302
0.0283442286202661,17.8168774457696
0.0275494579211851,17.8200261802113
0.0264677021671642,17.8231749146531
0.0253847834274867,17.8258214863984
0.0243136122562436,17.8281960478934
0.023242051267752,17.8304375381329
0.022169546448389,17.8326066170855
0.02109910343794,17.8347359433817
0.020034416445631,17.8368464782809
0.0189791368908509,17.838953213694
0.0179366834244215,17.8410677010145
0.0169101947386171,17.8431993728168
0.0159025260713689,17.8453563137012
0.014916260280074,17.8475457465912
0.0139537183899683,17.8497743717295
0.0130169738846944,17.8520486077901
0.0121078641173477,17.8543747841914
0.0112279967795455,17.8567593141917
0.0103787663757115,17.8592088251525
0.00956135729848297,17.8617303186622
0.00877007871117499,17.8643543041721
0.00799016143279506,17.867152932345
0.00722539579150397,17.8701462377804
0.00647958522957742,17.873358189372
0.00575677086860223,17.8768165127728
0.00506120143873997,17.8805533973495
0.00439727746824256,17.8846063849665
0.00376945519986728,17.8890195792595
0.00318207197484922,17.8938456685402
0.00263908921684035,17.8991495554055
0.00214377797090198,17.9050150138515
0.00169852007833159,17.9115550891707
0.00132037327000697,17.918597550856
0.00100853885070369,17.9262068276681
0.000814974471709463,17.9326978899649
0.000622099854121385,17.9413173506189
0.000473177389728996,17.9504873149013
0.000357866247916811,17.9604873149013
0.000278182893980931,17.9704873149013
0.000223839172201023,17.9804873149013
0.000187345956473659,17.9904873149013
0.000163301987536027,18.0004873149013
0.000147922730450001,18.0104873149013
0.000138619663641828,18.0204873149013
0.000133642438303739,18.0304873149013
0.000131810030458613,18.0404873149013
0.000132327053183442,18.0504873149013
0.000134663847588924,18.0604873149013
0.000138478321244816,18.0704873149013
0.000143563947674214,18.0804873149013
0.000149814712011469,18.0904873149013
0.000157201833539427,18.1004873149013
0.00016575920989858,18.1104873149013
0.000175575634429267,18.1204873149013
0.000186792564565437,18.1304873149013
0.00019960683994536,18.1404873149013
0.000214278360707386,18.1504873149013
0.00023114340079817,18.1604873149013
0.000250635042464526,18.1704873149013
0.000273313336791836,18.1804873149013
0.000299909489431255,18.1904873149013
0.000331391104607373,18.2004873149013
0.000369060137781668,18.2104873149013
0.000414703314192306,18.2204873149013
0.000469402408495588,18.2302544142833
0.000531835308973736,18.2392875793699
0.000602875882632855,18.2476233206037
0.000683666944643304,18.2553152876664
0.00077553254672503,18.2624140213903
0.000879980175917744,18.2689664558627
0.000998718424098353,18.2750161731611
0.00113368186582325,18.280603653762
0.00128706112420678,18.2857664954316
0.00146133698016334,18.2905396169405
0.00165932012183912,18.2949554576468
0.00188419827698289,18.2990441716855
0.00213959296279543,18.3028338099382
0.00242962748160048,18.3063504958311
0.00275901331889909,18.3096186076179
0.00313315867489015,18.3126609688949
0.00355831044389782,18.3154990474106
0.00404174430157145,18.318153179295
0.00459202745553023,18.3206428376893
0.00521939676639492,18.3229869712416
0.00593120931688387,18.3251900285201
0.00671754332748868,18.3272186132528
0.0075882371199875,18.3291069153433
0.00855823622766061,18.330889382025
0.00965084308786322,18.3326028145934
0.0109073812402734,18.3342949753549
0.0124545272200801,18.3360894536004
0.0147384394546418,18.3383553238682
0.016355791685281,18.3397861430942
0.0180708353952221,18.3412169623202
0.0196386420558873,18.3424970346439
0.0210348509255428,18.3436588931576
0.0222874452215433,18.3447665106459
0.0233968108091836,18.3458623922966
0.0243451277189383,18.3469850590015
0.025095766521908,18.3481845529492
0.0255752464759136,18.3495551429857
0.0255582698689074,18.351422543338
0.0249776592678203,18.353019639942
0.023974531219606,18.3546167365461
0.0228216368669266,18.3560328546897
0.0215234800020699,18.3574262331971
0.0200857492781862,18.3588596425202
0.0185177184264403,18.3603718824848
0.0173086485062816,18.3615333850749
0.0161285627489356,18.3626948876651
0.0149367118815752,18.3639326320801
0.0124628155046329,18.366772643078
0.0102925390199737,18.3696726401462
0.008588052683141,18.3723365424631
0.00721879972134193,18.3748255081734
0.00602962754110974,18.377338066408
0.0049871127816382,18.3799119547264
0.00412683165136509,18.3823964902952
0.00342017852266036,18.3847711542038
0.00282916965834238,18.387068785033
0.00232325291919675,18.3893353165361
0.00187521560178172,18.3916469024045
0.00145109243811567,18.3941832610685
0.00111074926761458,18.3965413074806
0.000814546261819219,18.3988993538926
0.000604192489722335,18.4007930313301
0.000436943882373611,18.4024578929905
0.00028931375949001,18.4040666230999
0.000150334524574781,18.4057207547642
1.1045985707856e-05,18.4075376404552
-0.00014290936911221,18.409765436378
-0.000396175036030253,18.4140628176561
-0.000595524730880585,18.4181920765913
-0.000738517645033474,18.4217224380277
-0.000866370531921499,18.4254421660057
-0.00100053761728365,18.4302077156208
-0.00111589554516774,18.435722681189
-0.00117517278526748,18.4405546878299
-0.0011827013705148,18.4449344723472
-0.00113485599554323,18.4488781815498
-0.00102689740767495,18.4524367515318
-0.000853557637259142,18.4556561221858
-0.000608605310849402,18.4585919155626
-0.000284039230706406,18.4613011722446
0.000131789380555882,18.4638444394289
0.000658582982744555,18.4662935517406
0.00133188168769444,18.4687393662042
0.00222836590136941,18.471334225909
0.0034910231776812,18.4742839122024
0.00509952162626258,18.4773781524572
0.00646962727562851,18.4796442388043
0.0080265328317612,18.4819103251513
0.00953473842156828,18.4838381947665
0.0111089520543801,18.4856074470772
0.0127342834508109,18.4872083442067
0.014518937411028,18.4887433251662
0.0164848846626772,18.4902120285812
0.0186568417165318,18.4916162736904
0.021082065244735,18.4929697964123
0.0237852005282524,18.4942697359659
0.0268118855421081,18.4955228008297
0.0302025098336842,18.4967306583893
0.0339990411617105,18.497894368178
0.038259230783774,18.4990182427991
0.0430448508172218,18.5001051701315
0.0484282719345034,18.5011582808624
0.0544929226716755,18.502180573724
0.0613431658794023,18.5031760466617
0.0691023629204758,18.5041485149212
0.0779210148996709,18.5051021115286
0.0879856351417652,18.50604143297
0.0995313218912509,18.5069717190817
0.112861373387007,18.5078991894813
0.128379533705766,18.5088316275666
0.14664205088637,18.509779196897
0.168372209632383,18.5107526817175
0.193525489245027,18.5117284500494
0.22274960595975,18.5127163287608
0.256908526405145,18.5137303114023
0.297278157185882,18.5147936537386
0.344809503548453,18.515924677493
0.386037089011204,18.5168477471372
0.420141560089433,18.5176027047966
0.449665245318111,18.5182768416542
0.475474046555588,18.5189119175928
0.497656131612831,18.5195336112825
0.515848660847767,18.520164359121
0.529173480906485,18.5208308099544
0.535764212422687,18.52157626168
0.532298091686985,18.5223743058049
0.517112054564365,18.5231972515939
0.488753573756576,18.5240616221312
0.445330293672662,18.5249793399133
0.384763070804995,18.5259586015708
0.339756084416543,18.5265757419122
0.290385968844002,18.5271928822536
0.24652195599217,18.5277115402833
0.208909470534429,18.5281472541743
0.175856907938518,18.5285320140392
0.14625013520084,18.5288851520112
0.119412104028315,18.5292186651766
0.0948747657376775,18.5295413208755
0.0722533584871651,18.529861018885
0.0511407267131357,18.5301872091539
0.0308817558231581,18.5305368241941
0.00919541830878894,18.5309713392835
-0.00020584484710472,18.5311881751256
-0.00870373090257965,18.5314050109676
-0.0152174163215801,18.5315883926224
-0.0212216020435085,18.5317742220151
-0.0272450270948672,18.5319812433402
-0.0330459697150315,18.5322060035235
-0.038470867837392,18.5324464336172
-0.0434347610911811,18.5327018317896
-0.0478937335842804,18.5329724067188
-0.0518286125386552,18.5332590244402
-0.0552304199844086,18.5335630888032
-0.0581656262813123,18.5338956116949
-0.0604722323488783,18.5342384803963
-0.0622754685187611,18.5346057817529
-0.0635909451425154,18.5350013311107
-0.0644324511992241,18.5354296769659
-0.0648114797559025,18.5358964999203
-0.0647355217323889,18.5364090080899
-0.0642057525744032,18.5369766483738
-0.0632112271709137,18.5376134052322
-0.0617251642760926,18.5383376232799
-0.0596930344840546,18.5391772861916
-0.0570004474061696,18.5401813636923
-0.0533472977939071,18.5414641485998
-0.0492636467851737,18.5428616044437
-0.045314354287536,18.5442139070207
-0.0415477685119984,18.5455256044977
-0.0379875329120617,18.5467989066401
-0.0346457608422444,18.548034602934
-0.0315277440004227,18.5492327654756
-0.028634089938613,18.5503931233251
-0.0259618939285771,18.5515152595402
-0.023505520187171,18.5525987124978
-0.0212572123064296,18.5536430232377
-0.0192076164162229,18.55464775059
-0.017346246663317,18.5556124658131
-0.0156619009281493,18.5565367332012
-0.01408471476538,18.5574550721061
-0.0125667761184737,18.5583969195595
-0.0111126101461343,18.5593638383945
-0.00972615231525543,18.5603579370064
-0.00841114229311032,18.5613816890928
-0.00717107071239936,18.5624380260798
-0.00600912694255956,18.5635304563403
-0.00492814446982808,18.5646632257394
-0.00393054376083828,18.5658415388672
-0.00301827202190168,18.5670718722881
-0.00219273851168924,18.5683624326124
-0.00145474272508371,18.5697238529109
-0.000804390231604473,18.5711703034836
-0.000240985689005808,18.5727213745024
0.000223612359266601,18.5743511740087
0.000588726254721593,18.5760281969884
0.00087066042117696,18.5777707497451
0.00108401950902232,18.5796002423264
0.00124254317856914,18.5815453324997
0.00135953888218534,18.5836467483259
0.00144854229560348,18.5859673981674
0.00152461497830784,18.5886173038577
0.00160810936288097,18.5918361493727
0.00171598033121375,18.5955751288279
0.0018552452379567,18.5995816633125
0.00203392562807321,18.6039558334835
0.00221523233469775,18.6079600974709
0.00239879927199348,18.6117992767883
0.00258483524166766,18.6155823135271
0.00277404262320883,18.6193733534171
0.00296776028028051,18.6232177550594
0.00316788236590012,18.6271520188526
0.00337674995757517,18.6312084172576
0.00359706983644542,18.6354176583901
0.00383187856757649,18.6398106782182
0.0040845746038934,18.6444200113276
0.00435907547594048,18.6492812213805
0.00466015506358141,18.6544342050055
0.00499405483723865,18.6599244526243
0.00533646522912014,18.6652939431518
0.00569315310627839,18.6705997514786
0.0060645782469859,18.6758047458943
0.00645475907311483,18.6809215467131
0.00686763843422046,18.6859561733481
0.00730777230130649,18.6909176059913
0.007779960474633,18.6958120065683
0.00828936392452745,18.7006433674805
0.0088415579856442,18.7054132901142
0.00944264923438578,18.7101214661909
0.0100993926350182,18.7147661699378
0.0108251666487822,18.7193802558296
0.0116420546144146,18.72402337118
0.012566444258087,18.7286926355763
0.0136228347346434,18.7334074747258
0.014847103860002,18.7382093677811
0.0163020715771318,18.7431996406082
0.0181356018393479,18.7486714813253
0.0205954403180039,18.7550609753386
0.0221867751060953,18.7588526629595
0.0238197330669612,18.7626443505803
0.0252478889746233,18.7660344267056
0.0264547030697439,18.7691316357757
0.0274552601782864,18.7721075880514
0.0282020113958132,18.7749489709216
0.0286821737000698,18.7777114472375
0.0288858380251256,18.7805203983832
0.0287637771753214,18.7835636409534
0.0281183105827943,18.7873903493308
0.0272907813452165,18.7903297338136
0.0262276810073297,18.7932691182964
0.0251528152745868,18.7958285332277
0.0240823306288886,18.7981658488041
0.0230104313236925,18.800387912429
0.0219380761167231,18.8025461762978
0.0208685613790035,18.8046699287231
0.0198056048671518,18.8067785180075
0.0187528164122763,18.8088860361049
0.0177135556443973,18.8110034905851
0.0166909000425907,18.8131399692621
0.0156876447107469,18.8153033365818
0.0147063148897451,18.8175006780834
0.0137491775889582,18.8197386136521
0.0128182531502997,18.8220235306572
0.0119153300988257,18.8243617595521
0.0110419689677097,18.8267597483109
0.0101995166807455,18.8292241969462
0.00938911629939555,18.8317621989447
0.00859999143926999,18.8344224551622
0.0078230470121701,18.8372613976485
0.00706205710333752,18.8402999234732
0.00632087814527734,18.8435627630154
0.00560360062686246,18.8470785387011
0.00491451051654678,18.8508805233655
0.0042580310034809,18.8550075592792
0.00363861172310038,18.859505388738
0.00306053144791715,18.86442897165
0.00252763023944942,18.8698465885762
0.00204299191866351,18.8758473835631
0.00161119484664908,18.8825109978815
0.00124706252377382,18.8896674158488
0.00095145870836988,18.8974141904338
0.000714301320887855,18.9062621011279
0.000558595508310807,18.9143214091265
0.000421945034722347,18.9239587323221
0.00032246420023402,18.9339587323222
0.000253964642157497,18.9439587323222
0.000207493227331535,18.9539587323222
0.000176499779427301,18.9639587323222
0.000156287649868147,18.9739587323222
0.000143591838584911,18.9839587323222
0.000136191378986131,18.9939587323222
0.00013258819435301,19.0039587323222
0.000131772995255874,19.0139587323222
0.000133068526540577,19.0239587323222
0.000136027997607274,19.0339587323222
0.000140368719863271,19.0439587323222
0.00014592778010601,19.0539587323222
0.000152632241153846,19.0639587323222
0.000160479675021076,19.0739587323222
0.000169526506369335,19.0839587323222
0.000179882553004192,19.0939587323222
0.000191710805261978,19.1039587323222
0.000205232087464023,19.1139587323222
0.000220734865857461,19.1239587323222
0.000238591176019723,19.1339587323222
0.000259280553517929,19.1439587323222
0.000283425160373509,19.1539587323222
0.000311841338475658,19.1639587323222
0.000345616175489589,19.1739587323222
0.000386223424638029,19.1839587323222
0.000435703379950433,19.1939587323222
0.000493402136274428,19.2034289970167
0.000559150353893266,19.2121766201188
0.000633941471374796,19.2202486173371
0.000718991362978355,19.2276975019718
0.000815695917463386,19.2345723417484
0.000925640296147997,19.2409186980123
0.00105062013736958,19.2467788839683
0.0011926684500703,19.2521922026981
0.00135408767280791,19.2571951562414
0.00153748512787734,19.2618216481171
0.00174581639521988,19.2661031809648
0.00198243500727206,19.270069046802
0.00225115422082812,19.273746504296
0.00255632107944675,19.2771609565793
0.00290291080927154,19.280336137028
0.00329664789999058,19.2832943021755
0.00374416423778652,19.2860564382417
0.00425321502782466,19.288642500835
0.00483298142079142,19.2910717072193
0.00549451240021877,19.2933629167145
0.00623501847411568,19.2954921938456
0.00705350105069882,19.2974607270772
0.00796160629560708,19.299302726413
0.00897695994201346,19.3010529471679
0.0101282824387118,19.3027510427856
0.0114703533959482,19.3044544343096
0.0132143227896463,19.306359753047
0.0150805026001673,19.3081421830858
0.0167069364264896,19.3095594680065
0.0184190489934237,19.3109767529271
0.0199474402232144,19.3122254639706
0.0213120052231317,19.3133715085805
0.022534936873276,19.3144734476857
0.0236122234033361,19.3155716492425
0.0245225184420316,19.3167056553441
0.0252238423566565,19.3179308167685
0.0256282166748455,19.3193615925932
0.0253953079193931,19.3215083223418
0.0246936500294133,19.3230147431059
0.0236481474533133,19.32452116387
0.0224532157934265,19.3259190402156
0.0211126580541387,19.3273195120833
0.0196352646027975,19.3287725211617
0.0180297399847873,19.3303153937139
0.0170175412147898,19.3312901724832
0.0160339193098515,19.3322649512524
0.0136214947674868,19.3348657022821
0.0111908547479931,19.3378902423665
0.00929063251321631,19.3406629111686
0.00778762160460496,19.3432208210406
0.00652576441453963,19.3457171990754
0.00542247306446311,19.3482614577417
0.00448097341440604,19.3508013306933
0.00371238889308639,19.3532207727383
0.00307502249727233,19.3555473880655
0.00253538138103852,19.3578206499842
0.00206547653320435,19.3600997140284
0.00163657608063104,19.3625006926284
0.00119205318132435,19.365421821836
0.000937804405160475,19.3673532771921
0.000710576502629245,19.3692847325483
0.000525762228717806,19.3710295495525
0.000369117779273464,19.3726545589199
0.000226475712672792,19.3742716110776
8.85814055866921e-05,19.3759803199232
-5.46270031743671e-05,19.3779326861428
-0.000227137412783186,19.3805736747004
-0.000457698223256867,19.384731823354
-0.00062028415708903,19.388242250108
-0.000747795353738897,19.3914504723744
-0.000871141765322224,19.3950722620104
-0.00100321957736124,19.3997938851949
-0.00111764107494031,19.4053035416144
-0.00117590079423695,19.4101240960731
-0.00118237829096838,19.4144953846244
-0.00113335073265543,19.4184326949846
-0.00102418085612085,19.4219818922746
-0.000849405303141883,19.425196078791
-0.000602841788508757,19.4281274929854
-0.000276759760021518,19.430831024816
0.000140475604366072,19.4333685501642
0.000667601178073255,19.4358084184612
0.00134138751483033,19.4382480529263
0.00223808249924372,19.440837319946
0.00350343156275514,19.4437878513543
0.00511511120107783,19.446883237146
0.00648735170271134,19.4491493880228
0.00804646933125974,19.4514155388995
0.00956974825668732,19.4533591242474
0.0111194243590179,19.4550972659813
0.0127819941702985,19.4567313152092
0.014562560765338,19.4582575204147
0.0165331718821879,19.4597248217809
0.018709559753023,19.4611271391246
0.0211396711567914,19.4624787368011
0.0238504336361295,19.4637778372487
0.0268850767948906,19.4650297996267
0.0302846535617325,19.4662366013384
0.0340913919838642,19.467399357544
0.0383630826724508,19.4685223346937
0.0431617279386707,19.4696084320307
0.0485599716147746,19.4706607874598
0.054641722403233,19.4716824292613
0.061511580426978,19.4726773243066
0.0692935270277713,19.4736493065796
0.0781387888326411,19.4746025184076
0.088234846051311,19.4755415689476
0.0998182418813457,19.4764717254568
0.113193967498794,19.4773992189515
0.128768677127315,19.4783318838051
0.147103099252554,19.4792799564095
0.168905097356444,19.4802534029172
0.194143246261618,19.4812293280507
0.223469150827786,19.4822176289327
0.257753134354163,19.4832324288569
0.298285267960332,19.4842973228314
0.345933694388257,19.4854289212633
0.386954431404287,19.486346588539
0.420923653280977,19.4870987648612
0.450349082243578,19.4877715393431
0.476068626037117,19.4884060047806
0.498157576667295,19.4890276522262
0.516242254939019,19.489658932527
0.529428175657188,19.4903267115462
0.535810753237823,19.4910750114761
0.53205966716036,19.4918734625845
0.516558121015654,19.4926972782259
0.4878406989918,19.4935628822432
0.44400654763021,19.4944820722232
0.382975001411561,19.4954630339477
0.338136668896313,19.496075353915
0.289039058486519,19.4966876738823
0.245398864638617,19.4972031658
0.20793669965094,19.4976370662995
0.174992365260408,19.4980207330098
0.145470303155285,19.4983731864899
0.118701890381467,19.4987062890209
0.0942228150157946,19.4990287556744
0.0716492346075972,19.4993484918203
0.0505713253368792,19.4996750426639
0.0303196548766159,19.5000257481666
0.00848375887906485,19.5004655954196
-0.000602946883835323,19.5006763864713
-0.00883756671541183,19.5008871775231
-0.0153224516813911,19.5010700575242
-0.0213295506204386,19.5012563000042
-0.0273509168282325,19.5014636672392
-0.0331462316494111,19.5016887206507
-0.0385634863380549,19.5019294211517
-0.0435186550975452,19.5021850865068
-0.0479683805271923,19.5024559388416
-0.0518938300175083,19.5027428545382
-0.0552860180414836,19.5030472465118
-0.0582038241437256,19.5033791563388
-0.060502696350643,19.5037223583083
-0.0622985103538573,19.5040900543488
-0.0636067819020757,19.5044860597322
-0.0644412763912803,19.5049149376214
-0.0648134402742764,19.505382388192
-0.0647306894966737,19.5058956464172
-0.0641940586839794,19.5064642183611
-0.0631924046567816,19.5071021354699
-0.0616986447872113,19.5078278467127
-0.0596576727042726,19.5086695372104
-0.0569536994474672,19.509676668302
-0.0532811619602395,19.5109654524074
-0.0491991449128729,19.5123620953934
-0.0452524921794907,19.5137137184415
-0.0414890595110016,19.515024789451
-0.0379322433461478,19.5162974866074
-0.0345940213649194,19.5175325834674
-0.0314795973203633,19.5187301442952
-0.0285895148715975,19.5198898945832
-0.0259208201022903,19.5210114160509
-0.0234678388155607,19.5220942468456
-0.0212227851190759,19.523137928234
-0.0191762835166849,19.5241420193277
-0.017317833559522,19.5251060914556
-0.0156362247882074,19.5260297085809
-0.0140599406479517,19.52694841396
-0.0125429863997081,19.5278906456691
-0.0110898687408484,19.5288579798804
-0.00970452047409833,19.5298525301686
-0.00839067769777052,19.5308767767482
-0.00715182666374629,19.5319336592064
-0.00599115150959878,19.5330266962701
-0.00491147960075245,19.5341601471415
-0.00391522435088424,19.5353392339092
-0.00300432492342191,19.5365704566149
-0.00218018145654743,19.5378620542404
-0.00144358310077225,19.539224706035
-0.000794623596052604,19.5406726510766
-0.000232593786749616,19.5422255879057
0.000230276089941533,19.5438559962787
0.000593943983967867,19.5455339220956
0.00087467327973344,19.5472776766324
0.00108705219453115,19.5491087619257
0.001244809695873,19.5510559814489
0.00136125081172535,19.5531603164932
0.00144992260011529,19.555485166709
0.00152592946065456,19.5581416925104
0.00160977902528108,19.5613732652096
0.00171797078113537,19.5651132771904
0.00185790192347631,19.569127343877
0.00203659397406573,19.573493208235
0.00221792759127523,19.5774938562164
0.0024015268671168,19.5813316050328
0.00258760202940947,19.5851143639536
0.00277686425904459,19.58890588311
0.00297066096756264,19.5927513409933
0.00317089340272309,19.5966871510203
0.00337990831641206,19.6007455460232
0.00360041742850244,19.6049572269983
0.00383546211852596,19.6093531434808
0.00408844692267789,19.6139658633363
0.00436329898152956,19.6188310048478
0.00466480834897646,19.6239885354196
0.00499924411381517,19.6294840354245
0.00534171890325215,19.6348503953096
0.00569865736001451,19.6401554230634
0.00607032335930884,19.6453588132488
0.00646082072829846,19.6504743725883
0.00687407628087779,19.6555078161015
0.00731465836506249,19.6604681998308
0.00778736928739423,19.6653616230713
0.00829737639177758,19.6701920490324
0.00885026200526846,19.6749610447822
0.00945214166393721,19.6796682770388
0.0101097811490041,19.6843120035169
0.0108368358709099,19.6889266076079
0.0116552027202377,19.6935700260535
0.0125813911460478,19.6982398135401
0.0136400152400192,19.7029555717092
0.014867207437931,19.7077593323408
0.0163264350286852,19.7127538743145
0.0181680453236522,19.7182379978711
0.0206281059474259,19.7246169240628
0.0222168685052278,19.728399106576
0.023845839427774,19.7321812890891
0.025269849122823,19.7355643348333
0.0264731663048753,19.7386582510741
0.0274702164204851,19.7416333479119
0.0282124044946237,19.7444724657263
0.0286880180709891,19.7472346163588
0.0288867158744683,19.7500456561246
0.0287582212303723,19.7530955448857
0.0280987009760229,19.7569493067981
0.0272686119932719,19.7598740261002
0.0262065090138464,19.7627987454023
0.0251321118004518,19.7653515226047
0.0240616505280184,19.7676858064651
0.0229897220965934,19.7699062510397
0.0219173880073181,19.7720636134673
0.0208479649345768,19.7741869106573
0.0197851715355788,19.7762953572308
0.0187326136102896,19.7784029695668
0.0176936454575366,19.7805207092144
0.0166713390699037,19.7826576347663
0.0156684842153114,19.7848215919641
0.0146876010110891,19.7870196547652
0.013730951653903,19.789258436411
0.0128005518204787,19.7915443217348
0.0118981856105397,19.793883641827
0.0110254093709701,19.79628284807
0.0101835658764555,19.7987486470476
0.00937379444260095,19.8012881409678
0.00858486881630154,19.803951670734
0.00780819723304983,19.8067942527425
0.00704755224624321,19.8098368626425
0.00630679501678353,19.8131042998561
0.0055900203010762,19.8166252686175
0.00490151731372649,19.8204331400998
0.00424571102553487,19.8245668752791
0.0036270500703911,19.829072367148
0.00304980733539608,19.8340047871935
0.00251781128824989,19.8394327336828
0.00203412874330278,19.8454458537678
0.00160368636910994,19.8521179764156
0.00124077013076292,19.8592845544176
0.000946564902917665,19.8670436679518
0.000708629643427326,19.8759874946709
0.000554272970989892,19.8840535921388
0.00041884396558274,19.893696325275
0.000320325118634142,19.903696325275
0.000252504002925586,19.913696325275
0.000206509351870827,19.923696325275
0.000175848892868437,19.933696325275
0.000155869058043581,19.943696325275
0.000143336316183486,19.953696325275
0.000136051856337338,19.963696325275
0.000132532808211282,19.973696325275
0.000131780265118685,19.983696325275
0.000132847183861781,19.9918481626375
0.000134989937464476,20
