ecg,time
0.021547224999108,15.0006898987629
0.0227904516025784,15.0017877820373
0.0238883056914809,15.0028802018438
0.0248204389555657,15.0040062952874
0.0255463690826108,15.0052199362735
0.0259821959640808,15.0066301630607
0.0258233007209028,15.0086921399604
0.0251616270083045,15.0102102635073
0.024137895686847,15.0117283870541
0.0229608434713003,15.0131253702321
0.0216363569879979,15.0145198520398
0.0201733131436807,15.0159641336164
0.0185809682332441,15.017495789895
0.0175679037199999,15.0184707027069
0.0165784380352306,15.0194456155187
0.0152687634618806,15.0208070985922
0.0136136377793618,15.0226705362959
0.0121127063999309,15.0245339739995
0.0109321422037484,15.0261471815117
0.00994764804793596,15.0276164586159
0.00906013305490063,15.0290594038584
0.0082129198258699,15.0305645762187
0.007352024476047,15.0322516288916
0.0063724697595209,15.0344175048296
0.00537481891969544,15.0369849774492
0.004525521500108,15.0395752726356
0.00383776426273414,15.0420654916999
0.00321633897854457,15.0447571591584
0.00264574692117964,15.0477880590015
0.00216531724210141,15.0510100473073
0.00177139488009095,15.0544552992565
0.001462724647779,15.0581683783763
0.00124349212582385,15.0622055424766
0.00112773312765138,15.0666397988066
0.00113482981148481,15.0707417892235
0.00124232459004322,15.0744227115871
0.00143496755649781,15.0777334909923
0.00170506141447074,15.0807220757521
0.00204948136533144,15.0834328221323
0.00246985071851921,15.0859162810649
0.00297218091034065,15.0882214843832
0.00356823484170612,15.0903986302713
0.00427990046234763,15.0925063741371
0.00514731539865358,15.0946194207791
0.00624683328322429,15.0968450681894
0.00773608444154556,15.0993615120554
0.00966404407332356,15.1020941093473
0.0112446895676459,15.1040305357113
0.0130370571576218,15.1059669620753
0.0148370816965368,15.1076737773992
0.0167070524471491,15.1092283123311
0.0187100221914551,15.1106823967308
0.0208917344947834,15.1120591147606
0.0233102959930576,15.1133799128218
0.0259985924660966,15.1146459668738
0.0290092727596404,15.1158658523934
0.0323817874879857,15.1170397695135
0.0361723961516598,15.1181725028127
0.0404359326036926,15.1192660286459
0.0452356993288319,15.1203228651537
0.0506477262310277,15.1213463154749
0.0567580110295202,15.1223392682555
0.0636682438431325,15.1233048637146
0.0715010047412092,15.1242466128419
0.080402813777591,15.1251681016565
0.09055156808742,15.1260731598313
0.102168247709222,15.1269661291159
0.115529172209516,15.1278518372522
0.130986825887954,15.1287358749069
0.149000684109754,15.129624943231
0.170190112618486,15.1305275825054
0.195347365237155,15.1314526947758
0.224446808838769,15.1323792332381
0.258205463804444,15.1333158127491
0.297593915018337,15.134275893704
0.344160972938942,15.1352857908979
0.381878712979474,15.1360399120605
0.421178709010479,15.1367940332232
0.456011772822254,15.1374599094199
0.486478685594588,15.1380647096958
0.513243274987836,15.1386421024651
0.536339266760758,15.139216400593
0.555304606972294,15.1398116432875
0.569011488115419,15.1404619716366
0.574660950421392,15.1412122975599
0.568775137915335,15.1419812348748
0.550211064015067,15.1427903431437
0.517119463111697,15.1436587459397
0.470425788059301,15.1445438762634
0.408784456082987,15.1454673205185
0.358916691373252,15.1461086229053
0.304211790240212,15.1467499252921
0.256477013108114,15.1472794478921
0.216271929236454,15.1477169096663
0.181327940130777,15.1480994898281
0.150231129842664,15.1484487569927
0.122161628528364,15.1487775730349
0.0965730002568165,15.1490950760744
0.0730292159404004,15.149409353004
0.0510801571453536,15.1497299969952
0.0300105635269739,15.1500742690407
0.00727189742665698,15.1505069140571
-0.00211301179645493,15.1507127345187
-0.0106170893183439,15.1509185549804
-0.017229240684106,15.1510947627508
-0.0233532535478521,15.1512739414203
-0.0295204162612593,15.1514740774146
-0.0354766786337766,15.1516917142616
-0.0410599606810202,15.1519247686351
-0.0461798244028993,15.152172504142
-0.0507889833352556,15.1524350854836
-0.0548662988555999,15.1527133289149
-0.0584067245077277,15.1530085831597
-0.0614151362384414,15.1533226912231
-0.0639795877382244,15.1536718522882
-0.0658979271830393,15.1540290615336
-0.067318695604517,15.1544136190982
-0.0682576217959276,15.1548301732633
-0.0687269827573282,15.1552843022841
-0.0687350423227386,15.1557830950824
-0.0682837988504494,15.1563357666654
-0.0673633390088701,15.1569560043424
-0.0659471698355754,15.1576620156544
-0.0639806091582257,15.1584814468263
-0.0613482069605581,15.1594627057778
-0.0577466580181805,15.1607187787312
-0.0535704367178695,15.1621308632666
-0.0495116926735334,15.1634983693924
-0.0456246152636564,15.164826291733
-0.0419368148492303,15.1661167539437
-0.0384631937780365,15.167370443887
-0.0352113101664327,15.1685873299048
-0.0321837180100069,15.1697670414404
-0.0293791926808807,15.1709090700457
-0.0267935212320788,15.1720128735667
-0.0244201129412636,15.1730779259584
-0.0222505268075174,15.1741037347624
-0.0202749480491922,15.1750898380575
-0.0184826217960708,15.1760357874237
-0.0168615489375013,15.1769415198669
-0.0152961612438754,15.1778702009397
-0.0137916273307317,15.1788229359468
-0.0123519474643872,15.1798016622398
-0.0109809540060607,15.1808086395628
-0.0096822532418754,15.1818465329928
-0.00845917287542981,15.18291851495
-0.00731470661975,15.184028401085
-0.0062514557619305,15.1851808351036
-0.00527156704138802,15.1863815464637
-0.00437666542864384,15.1876377203425
-0.00356777903576711,15.1889585476888
-0.00284525085395834,15.1903560786065
-0.00220862692863065,15.1918466185761
-0.00165649933287218,15.1934531744
-0.00121173141869647,15.195101734976
-0.000857976155371644,15.1968061373923
-0.000579786174972918,15.1985851117495
-0.000362735593350955,15.2004629623787
-0.000192991561426612,15.2024730258339
-5.67309862579809e-05,15.2046643427998
6.08754723445699e-05,15.2071165103447
0.000178079777903448,15.2099806389128
0.000325835346820085,15.2136491775955
0.000493245353846008,15.2174532156132
0.000703566361874281,15.2217278724442
0.000968003106167155,15.2266646636747
0.00122597831149679,15.2312861156307
0.00147047470219606,15.235632270304
0.00171123917131694,15.2399494600786
0.00196330897831475,15.2445387305585
0.0022336675718683,15.2495365736033
0.00249580454683944,15.2544240939142
0.002765496560165,15.2594599011611
0.00299371500975799,15.2636866714383
0.00320766142516899,15.2676048121609
0.00341816009739548,15.2714011140938
0.0036308952086567,15.2751646725489
0.00384990509594471,15.2789512329584
0.00407866599655942,15.2828022305569
0.00432053888108569,15.2867519733736
0.00457903142053506,15.2908312658886
0.00485802451002267,15.2950699994225
0.00516196696290857,15.2994985348365
0.00549613834806491,15.3041489272153
0.00586706882142075,15.3090562415061
0.00628135674466859,15.3142368196712
0.00670970675067626,15.3192712622622
0.00716462438763686,15.3242784040886
0.00764544546831919,15.3292063449211
0.00815757270600174,15.3340651850171
0.00870621372550111,15.338854284956
0.00929791835824577,15.3435780044645
0.00993994463916994,15.3482388970198
0.0106437066097973,15.352859278872
0.0114328258621151,15.3575154388025
0.0123226024704658,15.3622020433225
0.0133362355199437,15.3669378423486
0.0145065209350213,15.3717591050926
0.0158883996064536,15.376752090092
0.0176014192160342,15.3821531295115
0.0200100876269258,15.3887453500431
0.0216183074663803,15.3927479646625
0.0232827298541932,15.3967505792819
0.0247312135216872,15.4002824301074
0.0259506476469325,15.4034700358686
0.0269643804687619,15.4065072370844
0.0277387194577727,15.4094297497334
0.0282465846446988,15.412251770684
0.0284816578962676,15.4150976031427
0.0284032714133064,15.4181415792251
0.0278587030759265,15.4218242955513
0.0270426576380165,15.4249643288386
0.0259589196744311,15.4281043621259
0.0248732282374228,15.4307753421983
0.023798167592881,15.4331873509849
0.022723438198348,15.4354705653183
0.0216488808082272,15.4376836700277
0.0205775590514688,15.4398589052389
0.0195131642748285,15.4420171896688
0.0184593440860058,15.4441735889274
0.0174195216419704,15.4463397712897
0.0163968464371468,15.4485253068121
0.0153941923856003,15.4507384189639
0.0144141617825679,15.4529864750651
0.013459099040037,15.4552763094208
0.012531100795683,15.4576144648437
0.0116320225293548,15.4600073885133
0.0107634912423828,15.4624615796679
0.00992691258381516,15.4649837322578
0.0091234774876419,15.4675808727135
0.00835010187130356,15.4702752339292
0.00758964066244586,15.4731494237882
0.00684593127703007,15.4762237136179
0.00612282960240987,15.4795225206084
0.00542433281279278,15.4830740174458
0.00475457015104028,15.4869108247262
0.00411775506469564,15.4910709503606
0.00351806345180444,15.495599161492
0.00295944772778265,15.5005492685219
0.00244537209278582,15.5059883559217
0.00197856622496083,15.5120037839089
0.00156096680095259,15.5187126772236
0.00120602169600818,15.5259890391638
0.000910863741152478,15.53387723684
0.00066893925095036,15.5425123359125
0.000481846160424402,15.5520728919752
0.000372188495970046,15.5602688643899
0.000275869673822226,15.5702688643899
0.000208774223361527,15.5802688643899
0.000162174621679704,15.5902688643899
0.00013028449627344,15.6002688643899
0.000108890656830996,15.6102688643899
9.48833729709004e-05,15.6202688643899
8.60336280810494e-05,15.6302688643899
8.0796219687895e-05,15.6402688643899
7.81212479312888e-05,15.6502688643899
7.72991348848364e-05,15.6602688643899
7.78494832854697e-05,15.6702688643899
7.94475114408749e-05,15.6802688643899
8.18764259696168e-05,15.6902688643899
8.49959804610644e-05,15.7002688643899
8.87210782821361e-05,15.7102688643899
9.30069966463966e-05,15.7202688643899
9.78392874128912e-05,15.7302688643899
0.000103227109199254,15.7402688643899
0.000109199108966532,15.7502688643899
0.000115801222502261,15.7602688643899
0.00012309597127162,15.7702688643899
0.000131163008484306,15.7802688643899
0.000140100813376,15.7902688643899
0.000150029559744806,15.8002688643899
0.000161095308222685,15.8102688643899
0.000173475809955009,15.8202688643899
0.000187388384049886,15.8302688643899
0.000203100571234669,15.8402688643899
0.000220944614550509,15.8502688643899
0.000241337343022725,15.8602688643899
0.000264807849734092,15.8702688643899
0.000292036656655244,15.8802688643899
0.000323912189833689,15.8902688643899
0.000361613979081108,15.9002688643899
0.000406738232172015,15.9102688643899
0.000461492635145383,15.9202688643899
0.000524298411064921,15.9296290534428
0.000595401150323968,15.9382696190086
0.000675823246875991,15.9462418736932
0.000766789564350599,15.9535982518034
0.000869702402630049,15.9603875094515
0.000986153049324285,15.966654853736
0.00111794418322841,15.9724422339381
0.00126711761678691,15.9777885888409
0.00143598778095409,15.9827300417143
0.00162717654109654,15.9873001104188
0.00184365959555775,15.9915299231652
0.00208881659926843,15.9954484230385
0.00236649481705226,15.9990825334905
0.00268108456651382,16.0024573352039
0.0030376156054193,16.0055962642423
0.00344188306152631,16.0085213065331
0.0039006078426799,16.0112531975615
0.00442165916930023,16.0138116689138
0.00501436810407177,16.0162157459512
0.00568998277457539,16.0184841284492
0.00644294070831663,16.0205862282991
0.0072744535377132,16.0225311941876
0.00819655867468482,16.0243529473091
0.00922742648574086,16.0260859609045
0.0103968413014935,16.0277699963162
0.0117625207958644,16.0294639838126
0.0135548844873983,16.0313782406982
0.0153963192663507,16.0331019661835
0.0174221930550253,16.0348256916689
0.0191543936791175,16.0362285476107
0.0206486226973782,16.03743626669
0.0219850758888785,16.0385594069446
0.0231802099192576,16.0396512512629
0.0242249052625404,16.0407503835333
0.0250929062658696,16.0418987452983
0.0257335243955623,16.043161535774
0.0260304325292809,16.0446952794636
0.0255781453763626,16.0468695830416
0.0245631222517762,16.0486491978981
0.0234240050929053,16.0500970231482
0.0221511752195698,16.0514872226666
0.0207380322262021,16.0529086391697
0.0191927029824838,16.0544034479815
0.017521497926703,16.0560103433453
0.0157606924230767,16.0577802095113
0.0139296194201979,16.0597956864231
0.0122802837459696,16.0618111633349
0.011056494072926,16.0634649244839
0.0100553416700341,16.0649441861002
0.00915983851233749,16.0663856340646
0.008310426279598,16.0678787678833
0.00745451712026178,16.0695358185642
0.006499419565853,16.0716139236342
0.00548627333275085,16.0741703205329
0.00460039431511451,16.076822341175
0.00389814903838135,16.0793232851233
0.00327205321771777,16.0819880800114
0.00269308217802881,16.085003475854
0.00220471999485293,16.0882073200954
0.00180316198634314,16.0916308688283
0.00148679254120459,16.0953178243777
0.00125917636775827,16.0993232272208
0.00113318296697381,16.1037183046527
0.00112954202970054,16.107867423162
0.00122833962030175,16.1115850549023
0.0014133711813451,16.1149289380799
0.0016761956984503,16.1179445892075
0.00201351579810357,16.1206792683643
0.00242650574782292,16.1231823427927
0.00292059568025113,16.1255021190744
0.00350716372474736,16.1276896666347
0.00420687774321687,16.1298021385761
0.00505735825497081,16.1319113891408
0.00613045348404384,16.1341210107563
0.00757293900829589,16.13660012858
0.00946593461678591,16.1393276167151
0.0110526873809117,16.1413011126279
0.012854444728385,16.1432746085406
0.014654904296858,16.1450044810143
0.0165122779877489,16.1465693464926
0.0185006975533316,16.1480330742329
0.020661363784432,16.1494162157042
0.0230550693310317,16.1507428705413
0.025714127955354,16.1520141248217
0.0286910238323611,16.1532388125049
0.0320247985320271,16.154417147675
0.0357714118812498,16.155554050418
0.0399840506359953,16.1566512365672
0.0447267243731028,16.1577116321823
0.0500736926606739,16.1587383436693
0.0561090545389739,16.1597341596355
0.0629336790691379,16.1607023558819
0.0706675759826252,16.1616463564784
0.079454467354287,16.1625697206501
0.0894685694178737,16.1634762381889
0.100926236730132,16.164370219322
0.114097333724996,16.1652564238541
0.129325501560688,16.1661403519652
0.147057386641174,16.1670285606356
0.167893264008527,16.1679293756517
0.192677259734998,16.1688541563783
0.22135532705507,16.1697802211283
0.254612275244497,16.1707153106973
0.293385231039298,16.1716721990114
0.33913490208447,16.1726751852052
0.37731040261956,16.1734441511115
0.417268237881792,16.1742131170178
0.452647854736167,16.1748884168454
0.483522389240806,16.1754977358156
0.510657127253296,16.1760767454043
0.534143119669052,16.176650316043
0.553570380812073,16.1772421187812
0.567901945349125,16.1778845201829
0.574607290986871,16.1786342746997
0.569852264391321,16.1794005126452
0.552556403813853,16.1802049468721
0.520939139349518,16.1810670203646
0.475634672985945,16.1819492169202
0.415328975401792,16.1828709584915
0.36471172461514,16.1835309220045
0.308841758695316,16.1841908855175
0.260219257511674,16.184731999905
0.219456549544185,16.1851757632521
0.184131262585101,16.1855620020615
0.152745106471656,16.18591352043
0.124442236991717,16.1862436870653
0.0986606328326709,16.1865618365134
0.0749595200638857,16.1868760584104
0.0528960427971398,16.1871956761166
0.0317983644445059,16.1875367711584
0.00950254868371011,16.1879542221998
-0.000945906067707291,16.1881795247562
-0.00843112627902457,16.1883571139945
-0.0152828451032258,16.1885347032328
-0.0213054678640712,16.1887055855155
-0.0274878246370197,16.1888991131828
-0.0335365433270216,16.1891112585035
-0.0392563412560739,16.189339336693
-0.0445368112327621,16.1895822229993
-0.0493187059962938,16.1898398193688
-0.0535735915986751,16.1901127442758
-0.0572919151156807,16.1904021773768
-0.0604757861028332,16.1907097982137
-0.0631285127419099,16.1910377872923
-0.0652854628283678,16.1913950339857
-0.0668781977510794,16.1917696301153
-0.0679836731112863,16.1921744540413
-0.0686156580814221,16.1926147581043
-0.0687840405714775,16.1930970488953
-0.0684933113085146,16.1936297102272
-0.0677384913385931,16.1942246300422
-0.0664995475185286,16.1948982151787
-0.0647337927801174,16.1956740467978
-0.0623533461648897,16.1965910918574
-0.0591511091826943,16.1977292394527
-0.0549502983023983,16.1991603060997
-0.0508442432400148,16.2005418248672
-0.0468960415944242,16.2018825372914
-0.0431398138660266,16.2031853043508
-0.0395938185494254,16.2044511840838
-0.0362676959476603,16.2056803265681
-0.033165488585239,16.2068724433485
-0.0302871241109234,16.2080270556408
-0.0276293080799816,16.2091436242591
-0.025186177942403,16.2102216141836
-0.0229498523679321,16.2112605210246
-0.0209109228326863,16.2122598738275
-0.0190589013958259,16.2132192221425
-0.0173826252720147,16.2141381117626
-0.0157986506823577,16.2150591636327
-0.0142738828692241,16.2160038785976
-0.0128126854362487,16.216973922456
-0.0114189508772794,16.2179714424119
-0.0100963645868874,16.2189989618702
-0.00884835076807185,16.2200594752592
-0.00767801796845937,16.2211565715564
-0.00658810167326268,16.2222946010994
-0.00558090349096713,16.2234789062001
-0.00465822581180082,16.2247161489122
-0.00382129970322149,16.2260147924821
-0.00307070174711533,16.2273858373019
-0.00240625151040003,16.2288440027336
-0.00182687276600126,16.2304097477806
-0.00134804815877774,16.2320442277425
-0.000965950438690523,16.2337282565937
-0.000664391117730546,16.2354801879812
-0.000428657274736909,16.2373221628279
-0.00024477321819744,16.2392840047868
-9.89947904687307e-05,16.2414084810726
2.30113656474818e-05,16.2437624897427
0.000137908738873396,16.2464654264431
0.000270207830501085,16.2497882104227
0.000428933073956162,16.2535371012015
0.000621473735039896,16.2576049945128
0.000871567237789095,16.2623929937336
0.0011353016959159,16.2671650981118
0.00138376133736595,16.2715823343207
0.00162450384213405,16.2758808396875
0.00187014601716268,16.2803271394322
0.00214540826501262,16.2853931860717
0.00240895834032348,16.2902958847263
0.00267419125294573,16.2952502118636
0.00291211229643978,16.2996722651871
0.00312949319349011,16.3036724248055
0.00334043964132827,16.3075004291753
0.00355182022469686,16.3112684236808
0.00376809064299605,16.3150411395336
0.00399286195256927,16.3188641059233
0.00422950132647603,16.3227737326715
0.00448143181423436,16.3268017269978
0.0047523757791399,16.3309781466306
0.00504654673776406,16.3353330314246
0.0053688793396462,16.3398976652847
0.00572537852199915,16.344705841633
0.00612368947262283,16.3497950973731
0.00654634350587396,16.354881819995
0.00699119486546249,16.3599032511669
0.00746185643826004,16.3648611453425
0.00796169879107059,16.3697461443173
0.00849594354817704,16.3745609272064
0.00907069945978451,16.3793087573903
0.00969296913765439,16.3839929792624
0.0103704978810717,16.3886152985207
0.0111261560201919,16.3932599285908
0.0119757964040665,16.3979333302611
0.0129398326989476,16.4026479223071
0.0140465403401159,16.4074307005279
0.015340195381557,16.412343557967
0.0169063573229421,16.4175436517806
0.0189968700053047,16.4235764345206
0.0207725641142195,16.4281630290214
0.0226594443842738,16.4327496235223
0.0242273242737881,16.4365290618421
0.025527684615537,16.4398197397176
0.0266165665541182,16.4428944482863
0.0274900910919716,16.4458844661916
0.0280940013708955,16.4487299814045
0.0284299522380368,16.4515512816938
0.0284731612805584,16.4544961404518
0.0281327429205485,16.4578503553979
0.0271205670298163,16.4622021060258
0.0262222251221925,16.4648947114072
0.0251626437543413,16.4675873167885
0.0240892103354611,16.4700447727849
0.0230148743991396,16.4723547805117
0.0219400471275045,16.474582905766
0.0208674980895669,16.4767659380604
0.0198008628546895,16.4789270889764
0.0187438309455015,16.4810826865959
0.0176998931566129,16.4832451602172
0.0166722757087187,16.4854245546143
0.0156639263595867,16.4876294022109
0.014677519979048,16.4898672646359
0.013715471278903,16.4921450903134
0.0127799412292634,16.4944694849404
0.0118728505330665,16.4968469032913
0.0109958887964922,16.4992838119979
0.010150518851206,16.5017868444913
0.00933799008782557,16.5043629210861
0.00855934281399576,16.5070193931588
0.00779497044527103,16.5098428621367
0.0070463287038582,16.5128604861553
0.00631721698185079,16.5160956531034
0.00561161388414076,16.5195754434881
0.0049336111747734,16.52333119133
0.00428740850751435,16.5273993343936
0.00367720761159144,16.5318226297242
0.00310704088682418,16.5366521570828
0.00258054530768101,16.5419507216043
0.00210065925370925,16.5477993811573
0.00166952371328888,16.5543061747366
0.00129704118651227,16.5614332051827
0.000986168439205473,16.5691419596255
0.000730283798664697,16.5775567061608
0.000528125182914105,16.5868428012514
0.00038242688930086,16.5968428012514
0.000287152173416734,16.6063744738379
0.000216677139952662,16.6163744738379
0.000167645920828406,16.6263744738379
0.000133997577255283,16.6363744738379
0.000111353901238301,16.6463744738379
9.64722795357908e-05,16.6563744738379
8.70134707429051e-05,16.6663744738379
8.13481767580932e-05,16.6763744738379
7.83673857291206e-05,16.6863744738379
7.73217812838473e-05,16.6963744738379
7.77043835584801e-05,16.7063744738379
7.91722510233121e-05,16.7163744738379
8.14958474426443e-05,16.7263744738379
8.45258012648086e-05,16.7363744738379
8.81703858897315e-05,16.7463744738379
9.23799778640774e-05,16.7563744738379
9.7136399448257e-05,16.7663744738379
0.000102445834764925,16.7763744738379
0.000108334400174139,16.7863744738379
0.000114845707974883,16.7963744738379
0.000122039974193102,16.8063744738379
0.000129994400670867,16.8163744738379
0.000138804711474781,16.8263744738379
0.000148587852596464,16.8363744738379
0.000159485986872444,16.8463744738379
0.000171672051012614,16.8563744738379
0.000185357309737339,16.8663744738379
0.00020080157086596,16.8763744738379
0.000218327055209617,16.8863744738379
0.000238337410227268,16.8963744738379
0.000261344122323084,16.9063744738379
0.000288003800047032,16.9163744738379
0.000319171787394676,16.9263744738379
0.000355980900432303,16.9363744738379
0.000399959845435857,16.9463744738379
0.000453216181742613,16.9563744738379
0.000514897483293914,16.9658379257803
0.000584763628547022,16.9745777411872
0.000663791198084864,16.9826416098549
0.000753178818075211,16.9900823772163
0.000854302898706761,16.9969493247953
0.00096872652169376,17.0032881451704
0.00109822075376041,17.0091412337773
0.0012447915165052,17.014547944638
0.00141071251909528,17.0195447881081
0.00159855938159907,17.0241656390549
0.00181125476152281,17.0284419516744
0.00205211708950664,17.0324029686705
0.00232492338062221,17.0360758900089
0.00263398118013519,17.0394860464225
0.00298422265913414,17.0426570950718
0.00338132565350704,17.0456112164814
0.00383186742551489,17.0483693099177
0.00434353777964065,17.0509512323421
0.00492543667979149,17.0533760891228
0.00558850409284918,17.0556625974601
0.00633096603897783,17.0577898290548
0.00715065494504505,17.0597551364194
0.00805890593185309,17.0615923916132
0.00907280776388225,17.0633358367739
0.010219896847424,17.0650239605935
0.011551738862827,17.0667110860787
0.0132612563623982,17.0685764718717
0.0152221972529139,17.0704397658568
0.0168677475658723,17.0718593565317
0.0186039988572261,17.0732789472066
0.0201574229107364,17.0745294337532
0.02154367137242,17.0756736568679
0.022787278930761,17.0767716060021
0.0238855467853947,17.0778639901017
0.0248181720409892,17.0789899310653
0.0255447432006348,17.0802032303816
0.0259815580629758,17.0816126465096
0.0258257301030931,17.0836705417008
0.0251657721148212,17.0851896554501
0.0241428078343305,17.0867087691993
0.0229664297279432,17.0881059479502
0.0216425909333465,17.0895003008586
0.0201801484525108,17.0909442722926
0.0185883718092416,17.0924754506178
0.0175754377008883,17.0934501809992
0.0165858766722962,17.0944249113806
0.0153012968456543,17.095758950518
0.0136363741752778,17.097630470895
0.0121270742997791,17.099501991272
0.0109431771511838,17.1011181791006
0.00995724422350087,17.1025882902448
0.00906904713444321,17.1040310514984
0.00822168622032685,17.1055350468035
0.00736133012297623,17.1072191844126
0.00638428173833365,17.1093762954056
0.00538519307012794,17.1119427029443
0.0045327108959672,17.1145381041214
0.0038436937728901,17.1170288460715
0.00322186373146282,17.1197175674465
0.00265043753863198,17.1227469039293
0.00216921593393131,17.1259670693954
0.00177452959334272,17.1294101407603
0.00146508635935963,17.1331205943071
0.00124500787671941,17.1371545646196
0.00112820938966715,17.1415848785455
0.00113422909181999,17.1456916227968
0.00124084724494876,17.1493762985566
0.0014327191616736,17.1526904237843
0.00170208731170521,17.1556818719653
0.002045786457195,17.1583950207475
0.00246540287117564,17.1608804392253
0.002966901084926,17.1631871417161
0.00356196903682812,17.165365264165
0.00427236659916277,17.1674733524018
0.00513803348987502,17.169585991717
0.00623477218370805,17.1718098886078
0.00771912829676228,17.1743224168418
0.00964350003637271,17.1770545295355
0.0112247247471807,17.1789946869595
0.0130179845466807,17.1809348443834
0.0148179674383733,17.1826439704899
0.0166866611332398,17.1841996189302
0.0186880623422739,17.1856546758544
0.0208675533991859,17.1870320560616
0.0232835102187597,17.1883534668296
0.0259687333289948,17.1896200601965
0.028975866148284,17.1908404450219
0.0323443017607034,17.1920148176987
0.0361302900499786,17.193147984574
0.0403884914696423,17.1942418935716
0.0451822644963235,17.1952991003131
0.0505874605338097,17.1963228897339
0.0566898832760523,17.1973161410087
0.0635911253807097,17.198282006619
0.0714135008611236,17.1992239893639
0.0803032346981803,17.2001456724659
0.0904378292098934,17.2010508808705
0.102037786919386,17.2019439539821
0.115378739805416,17.2028297118797
0.130812235662026,17.2037137356374
0.148796382588667,17.2046027108094
0.169948526008252,17.2055051553278
0.195068237961707,17.2064302905272
0.224123603477453,17.2073567768781
0.257829731024932,17.2082931968401
0.297153612208194,17.2092529365775
0.343634433483935,17.2102620903744
0.381399991291806,17.2110177399957
0.42076846556965,17.2117733896171
0.455658059706484,17.2124402271275
0.486167642052701,17.213045488124
0.512971308829942,17.213623040601
0.536108711794322,17.214197250893
0.555123366238132,17.2147921146932
0.568897445523187,17.2154415742071
0.574659593830515,17.2161918291696
0.568894717282053,17.2169604698297
0.550466535190152,17.2177690722039
0.517533096359104,17.2186367944478
0.4709890658739,17.2195215921372
0.409486504700267,17.2204449082081
0.359538729014802,17.2210881702253
0.304710620813177,17.2217314322425
0.256881535891794,17.2222621803213
0.216616838952918,17.2227003123504
0.181631851636847,17.2230832834004
0.150503828465937,17.2234327913674
0.122409113337007,17.223761751417
0.0967996295272398,17.2240793221572
0.0732388718736748,17.2243935899661
0.0512775843782468,17.2247141168993
0.0302055491907211,17.2250580275638
0.00752129495380351,17.2254888596808
-0.00196861703673713,17.2256965696952
-0.010560839733443,17.2259042797095
-0.0171839392863911,17.226080656771
-0.0233063936587827,17.2262596604527
-0.0294742678786256,17.2264596514492
-0.035432845250058,17.2266771658677
-0.0410193550941818,17.2269101078341
-0.0461429414005783,17.2271577327027
-0.050756066524738,17.2274201995027
-0.0548374381903449,17.227698320133
-0.0583819149508699,17.2279934395146
-0.0613943146648321,17.228307396908
-0.0639581869537841,17.2286556291483
-0.065881437100042,17.2290125774486
-0.0673070200800547,17.2293968435967
-0.0682506267480177,17.2298130576143
-0.0687245637893991,17.2302667849709
-0.0687371443445581,17.2307650971619
-0.0682904422735806,17.2313171841699
-0.0673746957848423,17.2319366790381
-0.0659636089054481,17.2326417327354
-0.0640028806430999,17.2334598621061
-0.0613779794388028,17.2344391601945
-0.0577891402380126,17.2356913949142
-0.0536120724701461,17.2371040071389
-0.0495518072338101,17.238471931587
-0.0456628316233718,17.2398002392576
-0.0419729314863896,17.2410910741395
-0.0384971026305136,17.2423451342623
-0.0352429627078255,17.2435623929224
-0.0322131089631406,17.2447424817628
-0.0294063504871457,17.2458848930882
-0.0268185012224457,17.2469890847677
-0.0244429916867442,17.2480545304645
-0.0222713970824406,17.2490807373689
-0.0202939142409594,17.2500672433171
-0.0184997957469461,17.2510135998742
-0.0168777401700664,17.2519193449972
-0.0153117582306814,17.25284778837
-0.0138065850878517,17.2538002694944
-0.0123662260709722,17.2547787207031
-0.0109945155527204,17.2557853980701
-0.00969506237786073,17.2568229620844
-0.00847119735732334,17.2578945793907
-0.00732591788972485,17.2590040582672
-0.00626182955908094,17.2601560328511
-0.00528108405593224,17.2613562199313
-0.00438531201903209,17.2626117874955
-0.00357554804705422,17.2639319024602
-0.0028521426103778,17.2653285800407
-0.00221465054714099,17.2668180725659
-0.00166167467571051,17.2684233005131
-0.0012158608036025,17.2700713901183
-0.000861236448865922,17.271775118879
-0.000582332756846994,17.2735532000284
-0.000364715407386597,17.2754298645119
-0.000194547948308177,17.2774383280996
-5.80112755842934e-05,17.2796274123489
5.97050366489158e-05,17.2820762596685
0.000176792512583743,17.2849347941582
0.000323937482467466,17.2885904357016
0.000491013916527998,17.2923920516263
0.000700692622828048,17.2966589901769
0.000964942289376176,17.3015959221096
0.0012231067691733,17.3062219175859
0.00146771015052675,17.3105698484143
0.00170844736232848,17.3148859025334
0.00196025762521127,17.3194695756431
0.00223081414387158,17.3244704194701
0.00249296906992969,17.3293579716662
0.0027624833525578,17.3343905925655
0.00299096803904231,17.3386228465068
0.00320500662075023,17.3425433565239
0.00341550739589493,17.3463405329963
0.00362818709723423,17.3501041143102
0.00384709582193844,17.3538901093016
0.00407571333647759,17.3577400756176
0.00431740017488063,17.3616883837176
0.00457566063257956,17.3657658631881
0.00485436978776748,17.3700024079441
0.00515796789405813,17.374428365269
0.00549172190034248,17.3790757609115
0.00586214268254218,17.3839796141671
0.00627626841260958,17.3891619570956
0.00670430296877245,17.3941965650216
0.00715892711684949,17.3992046593832
0.00763939511541108,17.404133439557
0.00815111351418713,17.4089931588922
0.00869927018118393,17.4137830756611
0.00929040689018275,17.4185075754917
0.00993177184170578,17.4231692243972
0.0106345716760829,17.427789143457
0.0114225734658525,17.4324450036257
0.0123109857503733,17.437131130012
0.0133229283048625,17.4418661677532
0.0144910246033803,17.4466860113317
0.0158698010702394,17.4516759675397
0.0175773797889249,17.4570690439644
0.0199857474938747,17.4636697821943
0.0215971407693095,17.4676833845699
0.0232658735230607,17.4716969869455
0.0247172711920881,17.4752344218745
0.0259389338820976,17.4784245212504
0.0269548262339889,17.4814625311631
0.0277319975736933,17.4843867324007
0.0282426468251852,17.4872092018923
0.0284807010983512,17.4900540403866
0.0284060311236826,17.4930945643445
0.02786841928814,17.4967649509939
0.027053755354513,17.4999148163678
0.0259690281315806,17.5030646817417
0.0248829307120833,17.5057395867883
0.0238078224838945,17.5081532245976
0.022733098268527,17.5104372774506
0.0216585275560532,17.5126508449777
0.0205871605051841,17.5148263156883
0.0195226869721237,17.5169846788418
0.0184687561402431,17.5191410390842
0.0174287934633912,17.521307088409
0.016405950960587,17.5234924117779
0.0154031050201197,17.5257052422647
0.0144228602882583,17.5279529533392
0.013467563522222,17.5302423827448
0.0125393134539874,17.5325800752246
0.0116399676935221,17.5349724780855
0.0107711553682768,17.5374260891545
0.00993428394796263,17.5399476004044
0.00913054633262302,17.5425440344764
0.00835706953997577,17.5452368511295
0.00759647287390685,17.548109326578
0.00685259480823066,17.5511816956335
0.00612928817808828,17.5544783445126
0.00543054962797813,17.558027408707
0.00476050722485179,17.5618614646744
0.00412337409753115,17.5660184662788
0.00352332721353279,17.5705431109774
0.00296432208233096,17.5754891122116
0.00244982866880013,17.5809234062795
0.00198258396035711,17.5869331295993
0.00156453115587385,17.5936350917838
0.00120900584441093,17.6009063070743
0.000913328087933753,17.6087883156701
0.00067094203635689,17.6174158028818
0.000483354242415323,17.6269668568579
0.000372590575824047,17.6352211462367
0.000276147692830777,17.6452211462367
0.000208967687855307,17.6552211462367
0.000162308070876132,17.6652211462367
0.000130375015486654,17.6752211462367
0.000108950773022143,17.6852211462367
9.49221871766464e-05,17.6952211462367
8.60575509413649e-05,17.7052211462367
8.0809650526908e-05,17.7152211462367
7.81271691568119e-05,17.7252211462367
7.72995654654274e-05,17.7352211462367
7.78457906579105e-05,17.7452211462367
7.94406157197309e-05,17.7552211462367
8.18669335567148e-05,17.7652211462367
8.49842737095649e-05,17.7752211462367
8.87073770410129e-05,17.7852211462368
9.29914006001711e-05,17.7952211462368
9.78218045949107e-05,17.8052211462368
0.000103207674312253,17.8152211462368
0.000109177594102634,17.8252211462368
0.000115777442062495,17.8352211462368
0.000123069682225607,17.8452211462368
0.000131133906562589,17.8552211462368
0.000140068525325064,17.8652211462368
0.000149993631352524,17.8752211462368
0.000161055187381971,17.8852211462368
0.00017343082350874,17.8952211462368
0.000187337706466746,17.9052211462368
0.000203043182184983,17.9152211462368
0.000220879241000484,17.9252211462368
0.000241262379246922,17.9352211462368
0.000264721245157069,17.9452211462368
0.000291935755800043,17.9552211462368
0.000323793499310803,17.9652211462368
0.000361472820598359,17.9752211462368
0.000406568212431215,17.9852211462368
0.000461284812163301,17.9952211462368
0.00052406234156817,18.0045838923231
0.000595134022786065,18.01322691547
0.000675521091967739,18.0212014385908
0.000766447756037255,18.0285599061763
0.000869315665394763,18.0353510873454
0.000985715399136089,18.0416202012119
0.00111744884207136,18.0474092081042
0.00126655690461896,18.0527570571023
0.00143535299605983,18.0576998810639
0.00162645781828041,18.0622712066865
0.00184284573836586,18.0665021702483
0.00208789486966984,18.0704217222569
0.00236545071081915,18.0740567930068
0.00267990149580977,18.0774324693591
0.00303627452138524,18.0805721928363
0.00344036195771136,18.0834979541637
0.00389888108281779,18.0862304928463
0.00441969657488066,18.0887895435216
0.00501213363640467,18.0911941334539
0.00568743255719812,18.0934629627221
0.00644012637559653,18.095565680858
0.00727134112101775,18.0975111460195
0.00819309613706446,18.0993332777411
0.00922353354312932,18.1010665422832
0.0103923782656033,18.1027506664143
0.0117569738820663,18.1044442146616
0.0135470642673028,18.1063571096527
0.0153912905257773,18.1080841402013
0.0174207839236117,18.1098111707499
0.0191536018503172,18.1112145491257
0.0206479469867074,18.1124223511481
0.0219844697467211,18.1135455177014
0.0231796721623436,18.1146373674951
0.0242244443262518,18.1157364871119
0.0250925393348239,18.1168848128258
0.025733285230972,18.1181475242492
0.0260304143169789,18.1196810564864
0.0255784941036832,18.1218553967323
0.0245635104330809,18.1236352832819
0.0234244245095681,18.1250831740686
0.0221516425016783,18.1264733744427
0.0207385466549736,18.1278947721776
0.0191932617101757,18.1293895491556
0.0175220998523259,18.1309963980004
0.0157613188620828,18.1327661958344
0.0139285541951108,18.1347835635562
0.0122778626186967,18.136800931278
0.011054475831232,18.1384544248038
0.0100535886429885,18.139933532266
0.00915821972865622,18.1413749958345
0.00830884995909394,18.1428683091946
0.0074528733906278,18.144525810606
0.00649742789180538,18.1466051958185
0.00548452470328968,18.1491617600929
0.00459907521518796,18.1518132991563
0.00389704291493631,18.1543142176236
0.00327102516659241,18.1569795264431
0.00269220737236754,18.1599952034268
0.00220399025926999,18.1631993759784
0.00180257165532349,18.166623317352
0.0014863423456326,18.1703107453582
0.00125887803096418,18.1743167223227
0.00113306877854485,18.1787125074421
0.00112962384448658,18.1828607816729
0.00122857934743116,18.1865777488227
0.00141374885460033,18.1899210365812
0.00167670224623355,18.1929361766884
0.00201414941019082,18.195670423962
0.00242727242777734,18.1981731509587
0.00292150787811221,18.2004926563596
0.00350824885933328,18.2026800294212
0.00420817942501868,18.2047924237877
0.00505896182166483,18.2069017393568
0.00613253549810487,18.2091116607736
0.00757584458414173,18.2115914307049
0.00946947187849211,18.214319018333
0.0110561066138547,18.21629183151
0.0128576825099586,18.218264644687
0.0146581256494692,18.2199940962747
0.0165157006014294,18.2215587603855
0.0185043781738268,18.2230223184517
0.0206654110553425,18.2244053437686
0.0230595564673177,18.225731896247
0.0257191286678082,18.2270030578902
0.0286966199460641,18.2282276607877
0.0320310742203014,18.2294059168688
0.0357784610197575,18.2305427455027
0.0399919963272739,18.2316398670435
0.0447356741428088,18.2327001994324
0.0500837864237842,18.2337268529629
0.0561204662147184,18.2347226181359
0.0629465956367048,18.2356907681146
0.0706822300032355,18.2366347286141
0.0794711406094883,18.2375580593584
0.0894876064054487,18.2384645506888
0.100948064990569,18.2393585135907
0.114122492533405,18.2402447089671
0.129354684238147,18.2411286385728
0.147091508189767,18.2420168618281
0.167933572605371,18.2429177083427
0.192725571134166,18.2438425450859
0.221411261999275,18.2447686180551
0.254677273910516,18.2457037338772
0.293461325154305,18.2466606785753
0.33922564203349,18.2476637859648
0.377392867556801,18.2484324790848
0.41733875852827,18.2492011722048
0.452708362122768,18.2498762968747
0.483575525256941,18.2504855318349
0.510703632403558,18.2510645104235
0.534182682792395,18.2516380920597
0.553601770627968,18.2522299535329
0.567922373111273,18.2528724911231
0.574609028825241,18.2536222539222
0.569834033554324,18.2543885380775
0.55251582492395,18.2551930537383
0.52087261449436,18.2560552383172
0.47554381800508,18.2569374830814
0.415213850018242,18.2578592639827
0.364609845138888,18.2585188915833
0.308760690644896,18.2591785191839
0.260153973219935,18.259719426392
0.219401113053417,18.2601630778485
0.184082517304043,18.2605492520159
0.152701420356932,18.2609007306658
0.124402624140955,18.2612308733941
0.09862438707877,18.2615490111883
0.07492602445804,18.2618632334954
0.052864566971674,18.2621828680486
0.0317674791516232,18.262524015454
0.009464987935497,18.262941704164
-0.000962852866533015,18.263166622243
-0.00844585424322073,18.2633441913096
-0.0152955559366534,18.2635217603761
-0.0213190242983454,18.2636927004781
-0.027501393149017,18.2638862738187
-0.0335495624572698,18.2640984565374
-0.0392684892744183,18.2643265681604
-0.0445479108662298,18.2645694867071
-0.0493286662696532,18.2648271159726
-0.0535823740199934,18.2651000757959
-0.057299513578605,18.2653895469759
-0.0604822144428812,18.265697210138
-0.0631337687014187,18.2660252469303
-0.0652889274953476,18.2663824266856
-0.0668807250139511,18.2667570743986
-0.0679852972615939,18.2671619599096
-0.0686164014986434,18.2676023364151
-0.0687839175127052,18.2680847134629
-0.0684923235385224,18.2686174790642
-0.0677366162704188,18.2692125302378
-0.0664967302778135,18.2698862825139
-0.0647299212060966,18.2706623364355
-0.0623481828077896,18.271579701805
-0.0591440236628729,18.2727184028333
-0.0549433177093273,18.2741493648465
-0.0508374847946742,18.275530811864
-0.0468895827363905,18.2768714594079
-0.0431336950050512,18.2781741644074
-0.0395880616378602,18.2794399828448
-0.0362623117891392,18.2806690637812
-0.0331604801486058,18.2818611182949
-0.0302824883464079,18.2830156674251
-0.0276250371467345,18.2841321719585
-0.0251822601883848,18.2852100969162
-0.0229462731906574,18.28624893797
-0.0209076654626862,18.2872482242157
-0.0190559476094005,18.2882075052212
-0.0173799560305557,18.2891263267487
-0.0157960747702136,18.2900474170094
-0.0142714087691465,18.2909921722593
-0.0128103197213293,18.2919622596876
-0.0114166998288755,18.2929598270508
-0.0100942340981052,18.2939873984484
-0.00884634625608779,18.2950479691803
-0.00767614428206596,18.2961451293307
-0.00658636299532654,18.2972832306658
-0.00557930323459128,18.2984676173763
-0.00465676650755538,18.2997049540432
-0.00381998287237103,18.3010037074109
-0.00306952775126169,18.3023748828836
-0.00240521935857152,18.3038332073319
-0.00182597983926577,18.3053991516819
-0.0013473316292215,18.3070336983046
-0.000965380922540956,18.3087178249077
-0.00066394329111312,18.3104698862299
-0.000428307358710442,18.3123120333116
-0.00024449829609865,18.3142741059951
-9.87717779691831e-05,18.3163988999314
2.3207567129673e-05,18.3187533692596
0.000138109770436449,18.3214570433151
0.000270469627892002,18.3247813010942
0.000429229503606516,18.328530366699
0.000621848235235738,18.3325991374995
0.000872066230597672,18.3373888563931
0.00113577268998571,18.3421601517961
0.00138420869960709,18.3465769389794
0.00162494710996392,18.3508754542811
0.00187061437128182,18.3553223375388
0.00214597733440139,18.3603903972398
0.00240952118444096,18.3652930476657
0.00267477729718761,18.3702478053436
0.00291262398484139,18.374668387175
0.00312997847489698,18.3786679502551
0.00334091954217861,18.3824957173324
0.00355230670768022,18.3862636592768
0.00376859258030127,18.3900364427688
0.00399338716202636,18.3938595680724
0.00423005746021353,18.3977694301699
0.00448202695249538,18.401797729572
0.00475301890653285,18.4059745223994
0.0050472481952652,18.4103298499831
0.00536965145389787,18.4148950005223
0.00572623661161808,18.4197037746894
0.00612465347201461,18.4247937188574
0.00654733844412207,18.4298800795153
0.0069922517462435,18.4349014425118
0.00746297384784032,18.4398591502855
0.00796288970503791,18.4447439890198
0.00849722034148139,18.4495586117574
0.0090720775470966,18.4543062922623
0.00969446547820078,18.4589903698699
0.0103721312750255,18.4636125473261
0.0111279907414575,18.4682572690639
0.0119778669401963,18.4729307421202
0.0129421941945708,18.4776454523865
0.0140492710909939,18.4824284382834
0.0153434281642651,18.4873417166013
0.0169103845092454,18.4925428156445
0.0190028339424964,18.4985791767499
0.0207772715861247,18.5031614008379
0.0226625082255939,18.5077436249259
0.0242297094939096,18.5115215605169
0.0255296806865686,18.5148116797231
0.0266182201104995,18.5178861722994
0.0274912902394638,18.5208758414705
0.0280947672641102,18.5237212135872
0.0284302717466965,18.5265425812766
0.0284729598019371,18.5294878040097
0.0281317496627335,18.5328431524616
0.0271188700555472,18.5371944422958
0.0262203668415367,18.5398864428
0.0251607730202044,18.5425784433042
0.0240873445009494,18.5450355456127
0.023013007009895,18.5473453646793
0.0219381808766477,18.5495733850711
0.0208656388947154,18.5517563618139
0.0197990171944908,18.553917490323
0.0187420050870636,18.5560730899363
0.0176980929431692,18.5582355847478
0.0166705064949858,18.5604150162921
0.0156621930314593,18.5626199148772
0.0146758269510021,18.5648578408114
0.0137138225213945,18.5671357417059
0.0127783402870159,18.5694602228352
0.0118713005236983,18.5718377389075
0.0109943924659871,18.5742747566464
0.0101490785470295,18.5767779099234
0.00933660779967407,18.5793541196484
0.0085580201721283,18.5820107380764
0.00779367119498647,18.5848345238379
0.00704505963369454,18.5878525000905
0.00631598480281536,18.5910880625187
0.00561042552491094,18.5945682983294
0.00493247377075454,18.5983245494836
0.00428632930742274,18.6023932633865
0.00367619373880436,18.6068172093526
0.00310609898964752,18.6116474838574
0.00257968109443243,18.6169469168029
0.00209987708890586,18.6227966041811
0.00166882663455953,18.6293046399668
0.00129645587127764,18.6364325824951
0.00098568329128082,18.6441424321238
0.000729887669267315,18.6525585214961
0.000527825793177759,18.6618462854537
0.000382224754228045,18.6718462854537
0.000286980935982746,18.6813813037918
0.000216558731726756,18.6913813037918
0.00016756453264585,18.7013813037918
0.000133942366982583,18.7113813037918
0.000111317135421259,18.7213813037918
9.64484390627045e-05,18.7313813037918
8.6998685457645e-05,18.7413813037918
8.13397799567951e-05,18.7513813037918
7.83635579013346e-05,18.7613813037918
7.73212849703796e-05,18.7713813037918
7.77063790792076e-05,18.7813813037918
7.91761730971853e-05,18.7913813037918
8.15013229822436e-05,18.8013813037918
8.45325938579573e-05,18.8113813037918
8.81783578044302e-05,18.8213813037918
9.23890640441992e-05,18.8313813037918
9.71465900327509e-05,18.8413813037918
0.000102457163805537,18.8513813037918
0.000108346938935878,18.8613813037918
0.000114859561716679,18.8713813037918
0.000122055281729104,18.8813813037918
0.000130011336337614,18.8913813037918
0.000138823489400538,18.9013813037918
0.000148608733415095,18.9113813037918
0.000159509287278007,18.9213813037918
0.000171698156849826,18.9313813037918
0.000185386693714088,18.9413813037918
0.000200834816522964,18.9513813037918
0.000218364889590346,18.9613813037918
0.000238380748922115,18.9713813037918
0.0002613941324906,18.9813813037918
0.000288061990118344,18.9913813037919
0.000319240137295591,19.0013813037919
0.000356062054877886,19.0113813037919
0.000400057408151023,19.0213813037919
0.000453335176252619,19.0313813037919
0.000515032639321343,19.0408432497585
0.000584916560266501,19.0495816176717
0.000663964174099182,19.0576441501722
0.000753374485491731,19.0650836866983
0.000854524277246123,19.0719495011087
0.000968977036446332,19.0782872788972
0.00109850428420373,19.0841394089922
0.00124511245769395,19.0895452393678
0.00141107585201598,19.0945412747359
0.00159897075093746,19.0991613847557
0.00181172057479342,19.1034370188646
0.00205264463209898,19.1073974153994
0.00232552094673924,19.1110697702901
0.00263465825096738,19.1144794106153
0.002984990112817,19.1176499903012
0.00338219604768745,19.1206036870223
0.00383285536943401,19.1233613976352
0.00434466044122704,19.1259429772417
0.00492671451686093,19.1283675299973
0.00558996193631825,19.1306537727739
0.00633257447446963,19.1327806354874
0.00715243270938377,19.1347456436035
0.00806088161428731,19.1365826696452
0.00907502489381239,19.1383259584018
0.0102224296308402,19.1400140153993
0.0115547396452384,19.1417012199109
0.0132653767630265,19.1435672503211
0.0152243918337603,19.1454283275399
0.0168698811918213,19.1468477356001
0.0186059846507003,19.1482671436603
0.0201591783554672,19.1495174523581
0.0215452477481396,19.1506615899701
0.0227886864293185,19.1517595098154
0.0238867708664745,19.1528519096686
0.0248191780259007,19.1539779181574
0.0255454650222681,19.1551913688528
0.0259818419772291,19.1566011441427
0.0258246562891841,19.1586608453383
0.0251639384105332,19.160179519161
0.024140635108994,19.1616981929836
0.0229639587824027,19.1630952847435
0.021639833320022,19.1644896945159
0.0201771246374755,19.1659338030535
0.0185850964250561,19.1674651927276
0.0175721045112314,19.1684400037658
0.0165825855738995,19.1694148148039
0.0152871491419165,19.1707607245174
0.0136264611125112,19.1726287628766
0.0121207792074939,19.1744968012358
0.0109383228122418,19.1761117115198
0.00995301590173769,19.1775814662989
0.00906512062116361,19.1790243059915
0.0082178333658588,19.1805288029428
0.00735725890914153,19.1822141817159
0.00637915923241412,19.1843750158695
0.00538069428597981,19.1869418824945
0.00452958608170014,19.1895350928793
0.00384111721810157,19.1920256020666
0.00321946872907297,19.1947155707359
0.00264840313606803,19.1977455826992
0.00216752360057369,19.2009665364827
0.00177316703548354,19.2044105508884
0.00146405715360936,19.2081221398994
0.00124434302923894,19.2121574913663
0.00112799163911384,19.2165895101128
0.00113447462037792,19.2206942188517
0.00124146946503592,19.2243772886357
0.00143367238596446,19.22768998212
0.00170335189313135,19.2306802059106
0.00204736002538185,19.2333923268657
0.00246729899701982,19.2358769068996
0.00296915345125916,19.2381829679169
0.00356464331427418,19.2403606721528
0.00427558309987194,19.2424686120499
0.00514199682393423,19.2445814234633
0.00623992106131082,19.2468060634497
0.00772636212877669,19.2493202541897
0.00965226654356404,19.252052572697
0.0112332439533677,19.2539911338509
0.01302612275279,19.2559296950048
0.0148261239169688,19.2576378324809
0.0166953647722302,19.2591930051122
0.0186974376143084,19.2606476463346
0.0208778790477955,19.2620247433888
0.0232949504562358,19.2633458923157
0.0259814882743551,19.2646122550904
0.0289901385700839,19.2658324264649
0.0323603185378809,19.2670066042593
0.0361482829358743,19.2681395857763
0.0404087660050547,19.2692333309761
0.0452051023428906,19.2702903794534
0.0506132196927951,19.2713140239352
0.0567190047494101,19.2723071476531
0.0636240917984845,19.2732728978305
0.0714509086860338,19.2742147807808
0.0803458065989042,19.2751363809246
0.0904864565281495,19.2760415252163
0.102093565607868,19.2769345540986
0.11544305980853,19.2778202909205
0.130886887573162,19.278704320868
0.148883741746223,19.2795933361693
0.170051832466676,19.2804958643496
0.195187599725652,19.2814209899874
0.224261816680214,19.282347498919
0.257990409390818,19.2832839874626
0.297341904651794,19.2842438734945
0.343859595981704,19.285253345412
0.381604674235622,19.2860083406291
0.420943818412626,19.2867633358461
0.455809191330756,19.2874297616686
0.486300504157041,19.2880348255137
0.513087448128395,19.2886123096883
0.536207136934038,19.2891865575097
0.555200706317328,19.2897815831385
0.568946073422427,19.2904314134567
0.57466005837901,19.291181698716
0.568843503494973,19.2919504661178
0.550357263647573,19.2927592846342
0.517356262903245,19.2936272976317
0.47074828802974,19.2945122376457
0.409186283838014,19.2954356104412
0.359272750017999,19.296078033478
0.304497389257802,19.2967204565149
0.256708663984805,19.2972506802011
0.216469467976842,19.2976885255697
0.181502012128139,19.2980713295107
0.150387333293609,19.2984207345538
0.122303396710106,19.2987496330504
0.0967028283697013,19.2990671748315
0.0731493279071761,19.2993814464692
0.0511932735495005,19.2997020232503
0.0301223046976709,19.300046087762
0.00741502940048479,19.3004776886874
-0.00202977611791017,19.3006845860914
-0.0105841589178349,19.3008914834954
-0.0172026604007182,19.3010677888119
-0.0233257593098773,19.301246864862
-0.0294933404083074,19.3014469158671
-0.0354509609292574,19.3016644809523
-0.0410361360511421,19.3018974694346
-0.0461581827999205,19.3021451400834
-0.0507696675051166,19.3024076542746
-0.0548493614913224,19.302685825709
-0.0583921626294465,19.3029810008803
-0.0614029128214601,19.3032950205972
-0.0639670292024189,19.3036436372791
-0.0658882474705736,19.3040006935186
-0.0673118383358369,19.304385080201
-0.0682535084039978,19.3048014348986
-0.0687255520984074,19.305255328365
-0.0687362621871633,19.3057538392963
-0.0682876813358904,19.3063061680143
-0.0673699851594275,19.3069259699821
-0.0659567963216525,19.3076314195221
-0.0639936565101085,19.3084500868751
-0.0613656554548704,19.3094301949183
-0.0577715713599762,19.3106840128877
-0.0535948526727331,19.3120964067545
-0.0495352154187123,19.3134641582943
-0.0456470238871193,19.3147923067075
-0.0419579912733774,19.3160829875695
-0.0384830747081411,19.3173368947037
-0.0352298672131593,19.3185539993568
-0.0322009481434727,19.3197339322619
-0.0293951126424847,19.3208761854122
-0.0268081635295952,19.3219802166671
-0.0244335225350721,19.3230454998109
-0.0222627581562684,19.3240715421792
-0.0202860624174569,19.3250578817089
-0.018492684815521,19.3260040699717
-0.0168712845690267,19.3269096665416
-0.0153055370504118,19.3278382057771
-0.0138006184034277,19.328790787962
-0.0123605297686349,19.3297693486788
-0.0109891047352533,19.3307761454517
-0.00968995112996637,19.3318138405954
-0.00846639852730586,19.3328856030526
-0.00732144285929916,19.3339952440348
-0.00625768800003203,19.3351474014861
-0.00527728366974591,19.3363477972354
-0.00438185825153885,19.3376036061081
-0.00357244376284407,19.3389240045793
-0.00284938769802942,19.3403210217394
-0.00221224139699659,19.3418109310517
-0.00165960340391477,19.3434166873106
-0.00121420624278134,19.3450649642056
-0.00085992816834529,19.3467689609106
-0.000581308894494581,19.3485473973346
-0.000363917465288941,19.3504245335956
-0.00019391887160746,19.3524336334648
-5.74924359965892e-05,19.3546236055547
6.01797656059441e-05,19.3570737728049
0.000177313218361454,19.3599345299142
0.000324699923178778,19.3635952869197
0.000491908448293438,19.3673978612374
0.000701841907191373,19.3716678613117
0.000966165152813799,19.3766047240552
0.0012242534130343,19.3812288969443
0.00146881373159693,19.385576113525
0.00170956162609467,19.389892617311
0.00196147524139654,19.3944785194093
0.00223195237963448,19.399478158124
0.00249409990908879,19.4043656932025
0.00276368492598688,19.4093995824484
0.00299206289379662,19.4136296396802
0.00320606448021289,19.4175492009291
0.00341656427798857,19.4213460267749
0.00362926597510099,19.4251095979525
0.00384821495700701,19.4288958178573
0.00407688957276472,19.4327461951509
0.00431865052415274,19.4366950753048
0.00457700344797963,19.4407732778427
0.00485582573791898,19.4450106956196
0.00515956105578509,19.4494376813174
0.00549348137497582,19.4540862723682
0.00586410524810854,19.4589915062723
0.00627829553544453,19.4641731460759
0.00670645574157296,19.4692076889704
0.0071611967278389,19.474215403937
0.0076418052886771,19.4791438497453
0.00815368644068072,19.4840032186636
0.00870203593770562,19.4887928098921
0.00929339876739095,19.4935169987697
0.00993502704887646,19.4981783463215
0.01063820998287,19.5027984497371
0.0114266567086047,19.5074544292107
0.012315612200617,19.5121407458554
0.0133282277567854,19.5168760863318
0.0144971953714344,19.5216964939625
0.0158772059891617,19.5266876532841
0.0175869465511216,19.5320838891393
0.0199954348115178,19.538681233314
0.0216055617900598,19.5426904494622
0.0232725750181656,19.5466996656105
0.0247228128996059,19.5502348749959
0.025943589875382,19.553423981016
0.0269586244873017,19.5564616678755
0.0277346707004272,19.5593851966604
0.0282442142993992,19.5622074863581
0.0284810851278517,19.5650527174781
0.0284049407245356,19.5680946077802
0.0278645758465885,19.5717698649177
0.0270493639546063,19.574915820157
0.0259650319895925,19.5780617753963
0.0248790965236726,19.5807351229738
0.0238040073252267,19.583148115579
0.0227292810649519,19.5854318365435
0.0216547155837958,19.5876452208926
0.0205833663927066,19.5898205983543
0.019518923942977,19.5919789302636
0.0184650367964862,19.5941353058196
0.0174251295003758,19.5963014076303
0.0164023530757463,19.5984868147614
0.0153995829332364,19.6006997564866
0.0144194227897049,19.6029476038433
0.0134642184752588,19.6052371932148
0.0125360678949283,19.6075750685783
0.0116368278165304,19.6099676771899
0.0107681265269064,19.6124215174343
0.00993137077678232,19.6149432820636
0.00912775268883447,19.6175399952167
0.00835431584772444,19.6202334220837
0.00759377267821954,19.6231065748438
0.00684996123612085,19.626179702733
0.00612673556568252,19.6294772042014
0.00542809251801113,19.6330272294343
0.00475816062561681,19.6368623723227
0.00412115314455338,19.6410206080759
0.00352124662172725,19.6455466616668
0.00296239534607866,19.6504942848172
0.00244806700718761,19.6559304723107
0.00198099570481619,19.6619424489104
0.00156312205778229,19.6686471486664
0.00120782608058495,19.6759203964959
0.000912353783255942,19.6838048492704
0.000670150172097774,19.6924353424378
0.000482757980578253,19.7019901486425
0.000372434702168768,19.7102211636284
0.000276039884791623,19.7202211636284
0.000208892641108799,19.7302211636284
0.000162256303222456,19.7402211636284
0.000130339916182671,19.7502211636284
0.000108927483247319,19.7602211636284
9.49071714894436e-05,19.7702211636284
8.60483181149529e-05,19.7802211636284
8.08044915904037e-05,19.7902211636284
7.81249262433196e-05,19.8002211636284
7.72994551023096e-05,19.8102211636284
7.78472823282105e-05,19.8202211636284
7.94433525069251e-05,19.8302211636284
8.18706803077884e-05,19.8402211636284
8.49888822685622e-05,19.8502211636284
8.8712762380433e-05,19.8602211636284
9.29975243937332e-05,19.8702211636284
9.78286641537233e-05,19.8802211636284
0.000103215295479588,19.8902211636284
0.000109186027102865,19.9002211636284
0.000115786759605628,19.9102211636284
0.000123079979424812,19.9202211636284
0.000131145302435501,19.9302211636284
0.000140081165829747,19.9402211636284
0.000150007694073578,19.9502211636284
0.000161070888153826,19.9602211636284
0.000173448425467946,19.9702211636284
0.000187357532295887,19.9802211636284
0.00020288740780791,19.9901105818142
0.000220494028872944,20
