ecg,time
0.0259284440504739,15.00065333549
0.0269581029483452,15.0036924505252
0.0277524840166144,15.0066214483394
0.0282799822324502,15.0094413517027
0.0285359807471016,15.0122749678333
0.0284834575604767,15.0152894535466
0.0279861306342124,15.0188824030358
0.0271795643933832,15.0220857730625
0.02608816796794,15.0252891430892
0.0249991295723284,15.0279817001043
0.0239234341095429,15.0303992089935
0.0228485235975424,15.0326824194437
0.0217737152398881,15.0348928004535
0.0207019774188354,15.0370635139959
0.0196369945187049,15.0392158690628
0.0185824303859923,15.041365104391
0.0175417306198125,15.0435229500054
0.0165180687288781,15.0456989681493
0.015514343789881,15.0479013210695
0.0145331810819546,15.0501372752262
0.0135769497402421,15.0524135172044
0.0126477673761545,15.0547364057971
0.0117475106180092,15.0571121539894
0.0108778275421553,15.0595469689634
0.0100401397095539,15.0620471986292
0.00923565352253039,15.0646194435089
0.00845927897622532,15.0672924619281
0.00769544028409852,15.0701430054661
0.00694793754330054,15.073191123813
0.00622053578763596,15.0764608704079
0.00551720691707542,15.0799799960496
0.00484209117818613,15.0837806344103
0.00419942499882438,15.0879002191006
0.00359342380790743,15.0923828178636
0.00302809881445106,15.09728135998
0.00250700605740769,15.1026616160235
0.00203298024477414,15.1086091039763
0.0016080535884437,15.1152386011621
0.00124517464335644,15.122443833714
0.000942907619718125,15.1302472949105
0.000694641430594491,15.1387799068125
0.00049423056342584,15.148215071735
0.000343175256279803,15.158215071735
0.000241044565802168,15.168215071735
0.000173456834084232,15.1781919452266
0.00012712911232332,15.1881919452266
9.49998553454218e-05,15.1981919452266
7.28360266388404e-05,15.2081919452266
5.78164721909322e-05,15.2181919452266
4.78814408951704e-05,15.2281919452266
4.15112710712435e-05,15.2381919452266
3.76181305370489e-05,15.2481919452266
3.54481908953449e-05,15.2581919452266
3.44884192708972e-05,15.2681919452266
3.43905926898533e-05,15.2781919452266
3.49171434911976e-05,15.2881919452266
3.59053890162741e-05,15.2981919452266
3.72443099150899e-05,15.3081919452266
3.88591088254142e-05,15.3181919452266
4.07005858746617e-05,15.3281919452266
4.27376836658481e-05,15.3381919452266
4.49522552312379e-05,15.3481919452266
4.73354349842857e-05,15.3581919452266
4.98851614670289e-05,15.3681919452266
5.2604516541237e-05,15.3781919452266
5.55006389592699e-05,15.3881919452266
5.85840441284007e-05,15.3981919452266
6.18682364917546e-05,15.4081919452266
6.53695392409122e-05,15.4181919452266
6.91070925074344e-05,15.4281919452266
7.31029898099899e-05,15.4381919452266
7.73825362813922e-05,15.4481919452266
8.19746229758707e-05,15.4581919452266
8.69122206385236e-05,15.4681919452266
9.2233004663058e-05,15.4781919452266
9.79801313974061e-05,15.4881919452266
0.000104203195290421,15.4981919452266
0.000110959407492987,15.5081919452266
0.000118315050498817,15.5181919452266
0.000126347281614756,15.5281919452266
0.00013514638237603,15.5381919452266
0.000144818584146408,15.5481919452266
0.000155489645961497,15.5581919452266
0.000167309424963594,15.5681919452266
0.000180457771264174,15.5781919452266
0.00019515221115773,15.5881919452266
0.000211658076250355,15.5981919452266
0.000230302024623263,15.6081919452266
0.000251490337824045,15.6181919452266
0.000275734054217283,15.6281919452266
0.000303684067846596,15.6381919452266
0.000336181048793644,15.6481919452266
0.000374327903445147,15.6581919452266
0.00041959737366293,15.6681919452266
0.000473995961235973,15.6781919452266
0.000539553682166146,15.6880856865372
0.000613889215303029,15.6972246253225
0.000697891866345701,15.7056436122791
0.000792776174582559,15.7133998973461
0.000899954242596458,15.7205473366364
0.00102103475552505,15.7271357139999
0.00115784217062972,15.7332110836526
0.00131244440057238,15.7388161074809
0.00148718756084986,15.7439902960472
0.00168473478964108,15.7487702114339
0.00190811100607523,15.7531897126339
0.00216076071297628,15.7572802264838
0.00244661697935863,15.7610709700099
0.00277017916246445,15.764589118635
0.00313662133240184,15.76786003082
0.00355192888786651,15.7709075185778
0.00402308126265576,15.7737540758779
0.00455830257501553,15.7764211637807
0.00516742615562025,15.7789296137474
0.00586244138226928,15.7813001262998
0.00663319439225266,15.7834887686609
0.00748703270561981,15.7855239262047
0.00843920369449387,15.7874441816841
0.00951395636283183,15.7892914109076
0.0107554058982367,15.7911213610254
0.0122786519047067,15.7930543103489
0.0140600828176585,15.7950206510482
0.0159834448161364,15.7969208654454
0.0176959326570358,15.7985089089997
0.0191408529173348,15.7998309000669
0.020422331701127,15.8010374507883
0.0215675808042517,15.8021958284396
0.0225727644664895,15.8033481787391
0.0234174636320219,15.8045350730116
0.0240619090318565,15.8058124082287
0.024423917406285,15.8072931935471
0.0243381674887124,15.8089039457882
0.0238814191192394,15.8103164892226
0.0231725583545008,15.8116493122797
0.0222418759642969,15.8129915358519
0.0210866509790906,15.8144074342706
0.019790852065979,15.8158476958106
0.0183761412919468,15.8173423160028
0.0168532262588665,15.8189261489174
0.0156034098273579,15.8202545053793
0.0144271944287916,15.8215828618411
0.0127646719258694,15.8236293029745
0.0110800119161131,15.8259657058948
0.00944244550912757,15.8285873911269
0.00810581847010016,15.8310910339457
0.00696133050674703,15.8336097936114
0.00597402611868231,15.8361874825991
0.00512602416395712,15.8388484524142
0.00440493352945075,15.8416159803181
0.00380273080506221,15.8445145039382
0.00331577996165932,15.8475710689966
0.00294581139390034,15.8508168313988
0.00270242884486761,15.8542888839522
0.00260894483159385,15.8579127546009
0.00266809381090269,15.8611441100078
0.00284834188027443,15.8640497042704
0.00313207187125924,15.8666754562857
0.00351034797590375,15.8690658078595
0.00398118800938285,15.871265215614
0.0045497652441739,15.873319783687
0.00522965056492304,15.8752772861209
0.00604712335160199,15.8771921233373
0.00705304544339168,15.8791379490391
0.00834568750667509,15.8812227079951
0.0101363080518779,15.8836353687641
0.0124170776223256,15.8862091794054
0.014643438554474,15.8883467625222
0.0167054528774155,15.890065199483
0.0187869555307285,15.891584277633
0.0209923158547389,15.8929923587461
0.0233853417830497,15.8943238392202
0.0260195388372683,15.8955957076544
0.0289460608160109,15.896817412202
0.0322079525967343,15.8979915943982
0.0358616593367876,15.8991236889222
0.0399599372165235,15.900215533182
0.0445646392561038,15.9012698453003
0.0497468913197722,15.9022895301441
0.0555858079759838,15.9032770641395
0.0621766294068422,15.9042355907876
0.0696290786410706,15.9051680297299
0.0780748037281236,15.9060776284897
0.0876711962116565,15.9069677538731
0.0986083620181427,15.9078419580965
0.111119772836675,15.9087041462766
0.125494172583716,15.9095585781185
0.142093909643368,15.9104100356414
0.161382501709202,15.911264100491
0.18396914064097,15.9121276518221
0.210698630153126,15.9130101877272
0.241822845171843,15.9138995226301
0.277859739893244,15.9147956234071
0.319825719062677,15.915711667918
0.36942019691131,15.9166754673493
0.407372699661933,15.9173587157875
0.446624888921231,15.9180419642258
0.481545474304526,15.918652189878
0.512282351315229,15.9192144379775
0.539374085320775,15.9197582608526
0.562760656124312,15.9203069002203
0.581862211802096,15.9208863369405
0.595265653814893,15.9215398637068
0.59920852905663,15.9222666606617
0.591113773520978,15.9230214827211
0.569638867940174,15.9238274067855
0.536442532798244,15.9246271765762
0.490396828268768,15.9254606903306
0.428592479664808,15.9263605553883
0.374981526016282,15.9270321333275
0.315940060718577,15.9277037112667
0.265189355981873,15.9282486345812
0.223109203442163,15.9286914710715
0.186862415719633,15.9290752209116
0.154763950944388,15.9294238197767
0.125877403933279,15.9297509975632
0.0995980509123106,15.9300662385291
0.0754559004893513,15.9303777527492
0.0529789467242263,15.9306950888769
0.0314394437883511,15.9310351032585
0.00834290924110947,15.9314591306602
-0.00151913251673659,15.9316678128914
-0.0104343307305164,15.9318764951225
-0.0171485854716239,15.9320497287515
-0.0233269765804544,15.9322245879471
-0.0295735107586993,15.9324204204052
-0.0356244214322552,15.9326337384573
-0.0413096876708555,15.9328623950552
-0.0465338049985807,15.9331055973744
-0.0512463556761892,15.9333634598989
-0.0554243176626242,15.9336367514322
-0.0590615721692536,15.9339267728672
-0.0621624620361945,15.934235316306
-0.0647376428208862,15.9345646809217
-0.0667970828162438,15.9349177351762
-0.0683987319094028,15.93531459435
-0.0694213791100074,15.9357238990293
-0.0699705949907272,15.9361698177669
-0.0700562258777632,15.9366595397913
-0.0696812155697354,15.9372021067988
-0.0688372367816289,15.9378107444561
-0.0674992712617817,15.9385033867582
-0.0656148617934449,15.9393069686196
-0.0630730297297046,15.9402683099119
-0.0595860543329915,15.9414947709205
-0.0553970810318031,15.9429165046211
-0.0513107464458051,15.9442934036617
-0.0473856437056545,15.9456311525581
-0.0436524655451338,15.9469319012312
-0.0401281532733784,15.9481963213222
-0.0368218716101264,15.949424345181
-0.0337375463880045,15.9506155579568
-0.0308751485741578,15.9517694052055
-0.028231498068989,15.9528853011014
-0.0258008757445056,15.9539626810499
-0.023575551833116,15.9550010213618
-0.0215462672984981,15.9559998380784
-0.0197026763181683,15.9569586716378
-0.0180337487120142,15.9578770611141
-0.0164553563243776,15.9587982627741
-0.0149357321875843,15.9597431440294
-0.0134792286581523,15.9607133779271
-0.0120897381425633,15.9617111139034
-0.0107709452975555,15.9627388785351
-0.00952627261210505,15.9637996705237
-0.00835882545788899,15.9648970845342
-0.00727133409949154,15.9660354784751
-0.00626609214769755,15.9672202048243
-0.00534489024438496,15.9684579395093
-0.00450894259130427,15.9697571651668
-0.00375880176866034,15.9711289101696
-0.00309425304072834,15.9725879360153
-0.00251417023488086,15.9741547688843
-0.00203430538974611,15.9757895449549
-0.00165049511144589,15.9774740494014
-0.00134658898311071,15.9792266374713
-0.00110788132462721,15.9810695043587
-0.000920379712138599,15.9830325617099
-0.000770290126208014,15.9851587325551
-0.000643174441173615,15.9875152237991
-0.000522148341254897,15.9902221702767
-0.000382122101020332,15.9935530448747
-0.000215320147800393,15.9973027316069
-1.45971806981477e-05,16.0013752995087
0.000243902296991355,16.0061725728868
0.000531684690685173,16.0112646652274
0.000864417685421589,16.0171239302073
0.00121117920363732,16.0233735695185
0.00151507924629666,16.0290180826696
0.00176438000126796,16.0337683550552
0.00198727505895788,16.0380934142897
0.00220121439690624,16.0422923645722
0.00242073723114398,16.0466259960935
0.00266935441468789,16.0515367289701
0.00291497316522516,16.0563509513806
0.00316582306967775,16.0612025241269
0.00339520575931144,16.065552479426
0.00360629671141231,16.0694691992776
0.00381263180657334,16.0732076329711
0.00402084344281347,16.0768808315457
0.00423528949518409,16.0805529746886
0.00445958222410142,16.0842686928382
0.00469714849564621,16.0880630388732
0.00495154497441749,16.0919662952595
0.00522669619713958,16.0960069214125
0.00552709384808095,16.1002130515756
0.00585802922289283,16.1046136804599
0.00622592305726589,16.1092396563247
0.00663887869170037,16.1141249090009
0.00709452718412089,16.1191667259922
0.00757359258429029,16.1241010143198
0.00808544384998269,16.1289891642233
0.00863186617604223,16.133801413658
0.00921894021962764,16.1385424035539
0.00985341582764045,16.1432135456604
0.0105442767837347,16.1478242053541
0.011317028667209,16.152469270112
0.0121859968486645,16.1571405256026
0.0131734607490987,16.1618560681156
0.0143099409162304,16.1666472490296
0.0156446285493297,16.1715867699348
0.0172775751542929,16.1768647609709
0.0195453472189162,16.1832229430301
0.0212287478900447,16.1874765695228
0.0229939258550454,16.1917301960155
0.0245042491697125,16.1953773022733
0.0257686686479025,16.1986124956106
0.0268249597715771,16.2016634162452
0.0276543223035553,16.2046149191548
0.0282158383318277,16.2074422490428
0.0285077142544513,16.2102665421248
0.0284986701581676,16.2132451125226
0.0280753848745701,16.216718096635
0.0272855265338845,16.220046446217
0.0261800280480479,16.2233747957989
0.0250857873127846,16.2261129747253
0.0240098667936496,16.2285479728248
0.0229354629366854,16.2308399616888
0.0218609901837832,16.2330552155138
0.0207892587763089,16.2352284936152
0.0197239352669999,16.2373818422563
0.0186686986479334,16.2395309047371
0.0176270165187331,16.2416876580123
0.016602087020382,16.2438618203566
0.0155968322314321,16.2460616589565
0.0146139001641512,16.2482945090711
0.0136556811686753,16.2505671035451
0.0127243122033968,16.252885832915
0.0118216898049703,16.2552569261185
0.0109494811367077,16.2576865966548
0.0101091243803473,16.2601811962162
0.0093018443631142,16.2627473160137
0.00852477538781836,16.2654057126851
0.00775990882477382,16.2682400262075
0.00701105618765596,16.2712699491078
0.00628196189823801,16.2745192356809
0.00557658153872251,16.2780152721713
0.00489904264814111,16.2817897577649
0.00425357708524918,16.2858795876518
0.00364440851075049,16.2903281312164
0.00307557655665003,16.2951873332872
0.00255069053830126,16.3005214719924
0.00207265631336899,16.3064137723281
0.00164357162658885,16.3129756967572
0.00127504255930712,16.3201331397402
0.000967716062962215,16.3278791980569
0.000714965365542412,16.3363412358573
0.000510601876964197,16.3456883859337
0.000354873439693645,16.3556883859337
0.000249376448002501,16.3656883859337
0.000179407940017021,16.3756820949934
0.00013139047995262,16.3856820949934
9.79316650366338e-05,16.3956820949934
7.46968055172394e-05,16.4056820949934
5.88024845995967e-05,16.4156820949934
4.81419043131835e-05,16.4256820949934
4.11565130289813e-05,16.4356820949934
3.67271773932359e-05,16.4456820949934
3.40762320714219e-05,16.4556820949934
3.26731737493955e-05,16.4656820949934
3.21570838161242e-05,16.4756820949934
3.22810062944461e-05,16.4856820949934
3.28750874274101e-05,16.4956820949934
3.38226206315817e-05,16.5056820949934
3.50441188055633e-05,16.5156820949934
3.6486353994018e-05,16.5256820949934
3.81146577893255e-05,16.5356820949934
3.9907504031302e-05,16.5456820949934
4.18527355986539e-05,16.5556820949934
4.39449715278559e-05,16.5656820949934
4.61838492015188e-05,16.5756820949934
4.85728515061353e-05,16.5856820949934
5.11185443104861e-05,16.5956820949934
5.38301054219035e-05,16.6056820949934
5.67190652016694e-05,16.6156820949934
5.97992057334283e-05,16.6256820949934
6.30865839529676e-05,16.6356820949934
6.65996574259819e-05,16.6456820949934
7.03595014125922e-05,16.6556820949934
7.43901137154077e-05,16.6656820949934
7.87188104377679e-05,16.6756820949934
8.33767218643545e-05,16.6856820949934
8.83994038177509e-05,16.6956820949934
9.38275866228096e-05,16.7056820949934
9.97080918489312e-05,16.7156820949934
0.000106094957035656,16.7256820949934
0.000113050821582626,16.7356820949934
0.000120648644176253,16.7456820949934
0.000128973845319562,16.7556820949934
0.000138127000296898,16.7656820949934
0.000148227252003852,16.7756820949934
0.000159416675110543,16.7856820949934
0.00017186591149205,16.7956820949934
0.000185781524821084,16.8056820949934
0.000201415710142724,16.8156820949934
0.000219079274793475,16.8256820949934
0.000239159233329199,16.8356820949934
0.000262143019554566,16.8456820949934
0.000288652363726803,16.8556820949934
0.000319491575267875,16.8656820949934
0.000355717782869188,16.8756820949934
0.000398745489535976,16.8856820949934
0.000450506278354335,16.8956820949934
0.000512396355353189,16.9054929058085
0.000582561282964526,16.9145579826726
0.000661882281923717,16.9229140847384
0.00075153103423684,16.9306169430753
0.000852864305468307,16.9377189661932
0.000967426590743837,16.9442686810892
0.00109696934668194,16.9503110365626
0.00124347712124413,16.9558876988848
0.00140919999405752,16.9610372788677
0.00159668937290352,16.9657955405273
0.0018088405179989,16.9701956299893
0.00204894386160064,16.9742683127844
0.00232074756665388,16.9780421744708
0.00262852847982921,16.9815437952926
0.00297718811550169,16.9847979558722
0.00337237206006871,16.9878278641282
0.00382062683180735,16.9906553635623
0.00432961316804938,16.9933011816175
0.00490840584740307,16.9957852485605
0.00556793132426289,16.9981270867319
0.00630740450900344,17.0003080567395
0.00712430582257863,17.0023235682625
0.00803032632128751,17.0042089427119
0.00904328447966743,17.0060002651587
0.010192359812045,17.0077388751956
0.0115337064759747,17.0094852095261
0.0132771919205521,17.0114391749216
0.0151266288592893,17.0132531770718
0.0167171773773476,17.0146796984303
0.0183875065254918,17.0161062197887
0.0198828486621272,17.0173691573595
0.0212186181580295,17.0185309163606
0.0224147772885165,17.019649231117
0.023466619063986,17.0207645968876
0.0243525640044684,17.0219171244984
0.0250304708835174,17.0231634598704
0.0254115653422581,17.0246220320423
0.0252586600267822,17.0264414871148
0.0244803651195355,17.0282661061883
0.0234507233881882,17.0297907298907
0.022277027818804,17.0312023386772
0.0209633100565169,17.0326139772793
0.0195187548330868,17.0340759878192
0.0179527322710952,17.0356254899069
0.0170162481657627,17.0365542792076
0.0161061382064203,17.0374830685083
0.0148964457735493,17.03878465683
0.0137576377664081,17.0400923888723
0.0126363698329258,17.0414737301338
0.0114558138214524,17.0430501248339
0.0100263101766503,17.0451696602297
0.00854630889614337,17.0476862751605
0.00734815583353885,17.0500548208278
0.00633569447573422,17.0523796194933
0.00537575394535429,17.05497036784
0.00454354210354374,17.0576577704856
0.00382845342037255,17.0604597453628
0.00322076464429595,17.0634012005602
0.00271356325354951,17.0665102765437
0.00230329900204952,17.0698197797264
0.00199100771066945,17.0733691661104
0.00178481218199089,17.07720727337
0.00170552953047159,17.0813183626794
0.00176034282648062,17.0849639373771
0.00192075898426537,17.0882303579082
0.00217123152799791,17.091162076447
0.00250355371151189,17.0938053319543
0.00291493357648982,17.0962063411543
0.0034073054753319,17.0984102850556
0.00398737630861199,17.1004606801378
0.00466933574677315,17.102405065403
0.00547911952334839,17.1042977343331
0.00646325190165728,17.1062066753571
0.00771358250720134,17.1082362526026
0.0094327162533516,17.1105754363537
0.0116680344185605,17.1131297782842
0.0134677184937983,17.1149079090519
0.015506931802789,17.1166860398196
0.0175671421822317,17.118263812189
0.0197269990827877,17.1197147063356
0.0220449567406553,17.1210751569249
0.0245745676910216,17.1223667073344
0.0273788518354672,17.123607089754
0.0304954881840963,17.1247973434645
0.0339836870325004,17.1259449588054
0.0378899121803305,17.1270504384229
0.0422781048708273,17.1281179235302
0.0472127740623707,17.1291494793892
0.0527695260568376,17.1301477692174
0.0590372467963983,17.1311157917851
0.0661175618894983,17.1320563073082
0.074132622993506,17.1329725048254
0.0832273719622008,17.1338676282059
0.0935758254465031,17.1347450715049
0.105390116959558,17.1356085190692
0.118931016964177,17.1364619692814
0.134522751405739,17.1373098316373
0.152574569159716,17.1381571108967
0.17361497653646,17.1390097780966
0.19835248946507,17.1398755513091
0.227586192253797,17.1407596716647
0.261375925645299,17.1416459176608
0.300579484713985,17.1425441504108
0.346484059930909,17.1434730932308
0.3873463726165,17.1442260701823
0.430560077128801,17.1449790471338
0.468191838148007,17.1456240221061
0.500898867784696,17.1461995032486
0.529780731060695,17.1467445525
0.555051051589688,17.1472844164786
0.576376179303739,17.1478426493769
0.592803250631955,17.1484520713983
0.601842049529544,17.1491705216397
0.599154033012085,17.1499073548504
0.583724888926859,17.1506860984831
0.555582542469809,17.1514860009906
0.515994992466726,17.1522894356599
0.46173550985606,17.1531548911627
0.392743860050091,17.1540646835764
0.343458783203499,17.1546407515092
0.290778520432493,17.1552168194421
0.244775057426893,17.1557021730355
0.205654487194101,17.1561123679068
0.17143483176925,17.1564769464115
0.140876738336246,17.1568136761573
0.1132304358896,17.1571337918348
0.0879687482208554,17.1574458928942
0.0646358535915072,17.1577584463095
0.0426864105075591,17.1580832440901
0.0209759342444627,17.1584477570637
0.00337678027443669,17.1587905987154
-0.00474344761524609,17.158969225719
-0.012177409553051,17.1591478527227
-0.0186188339309521,17.1593171908148
-0.0248477051713085,17.159497051717
-0.0310736340395987,17.1596969275985
-0.0370546729674326,17.1599136023348
-0.0426417048107608,17.1601453066917
-0.047751875785262,17.1603914957757
-0.0523423936328765,17.160652454949
-0.0563949165269228,17.1609290846598
-0.0599062280182612,17.1612228011295
-0.0628824499728696,17.1615355105338
-0.0653352635063695,17.1618696363164
-0.0672741547143268,17.1622281926585
-0.0687393129038171,17.1626270718942
-0.0696530327018824,17.1630434135419
-0.0700951378982982,17.1634977885857
-0.0700740796617356,17.1639977402871
-0.0695909796920626,17.1645528918898
-0.0686339029818388,17.1651777122183
-0.0671729592644772,17.1658914999242
-0.0651461865633542,17.1667243102067
-0.0624192053338031,17.1677307723111
-0.0586089300169443,17.1690504845844
-0.0544185894970588,17.1704610598274
-0.0503481267543925,17.1718292725878
-0.0464490657524334,17.1731591156808
-0.0427479919062111,17.1744522790318
-0.0392596370172176,17.1757092006898
-0.0359917375116799,17.1769296967751
-0.0329471634202805,17.1781132986526
-0.030125046020869,17.1792594312716
-0.0275215191834955,17.1803675053297
-0.0251303046930753,17.18143696064
-0.022943227239091,17.1824672801494
-0.0209506860802609,17.1834579850727
-0.019142088654572,17.18440861697
-0.0175062432501796,17.1853187100003
-0.0159383241341183,17.1862445675674
-0.014430466497001,17.1871943396729
-0.0129867970647201,17.1881698676214
-0.0116111740694612,17.1891733689498
-0.0103072372571108,17.1902074559897
-0.00907835478536105,17.1912752351338
-0.00792756810910788,17.192380438103
-0.00685753390805556,17.1935276000352
-0.00587046248363003,17.1947223070334
-0.00496805134784236,17.1959715502688
-0.00415141146186254,17.1972842501357
-0.00342098127679587,17.1986720650589
-0.00277641914498179,17.2001507057574
-0.00221645457107276,17.2017422171017
-0.00176135184794582,17.2033854154967
-0.00139912559917838,17.2050821619776
-0.0011141186675421,17.2068510087109
-0.000891848973268488,17.2087154395541
-0.000718486969862094,17.2107074482664
-0.000580310223339227,17.2128736544915
-0.00046278185203113,17.2152886782959
-0.000348455013745728,17.2180908545207
-0.000209513945382361,17.2216205459151
-4.86441544519291e-05,17.2253994932117
0.000150670764774436,17.2295908477901
0.000407376056872798,17.2345354313103
0.00069020413369078,17.239759655989
0.00103237608026143,17.2460958218008
0.00135799725161897,17.2522777587968
0.00167284734442583,17.2584550072549
0.0019341428792588,17.2637036666078
0.00215731949413378,17.2682550524668
0.00236402533952578,17.2725031670535
0.00256852168561367,17.2767138717689
0.00278586416653921,17.2811745850478
0.00302773025636461,17.2860929725211
0.00326768957356443,17.2908891029935
0.00351968549779904,17.2958140870229
0.00373800800563423,17.2999610689
0.00394533381292179,17.303791664893
0.0041518352693156,17.3074951840632
0.0043629694954162,17.3111606721223
0.00458275808382248,17.3148431226704
0.00481479810634481,17.3185828859897
0.00506268323139254,17.322412783726
0.00533028975868933,17.3263621535436
0.00562200729356377,17.3304591367381
0.00594296395510167,17.3347320162531
0.00629931642719588,17.3392102835352
0.00669869020091049,17.3439256543206
0.00715092259130178,17.3489133024468
0.00763214502046637,17.3538440349364
0.00814684908646601,17.3587265749376
0.0086974838052474,17.3635398004197
0.00928926055487036,17.368281439025
0.00992853927924872,17.3729506171862
0.0106256302585919,17.3775654842769
0.0114049811356638,17.3822116707445
0.0122815407688593,17.3868838793348
0.013278115601785,17.3916013031439
0.0144262728588655,17.3963977977943
0.0157774687236944,17.4013513344438
0.017438771842788,17.4066683941241
0.0197947378799167,17.4132031794326
0.0214415460988539,17.4173323464684
0.023158126979642,17.4214615135043
0.0246401349358806,17.4250526144069
0.025884462134053,17.4282638844519
0.0269218477767171,17.4313062937883
0.027726388952765,17.4342417093022
0.0282638049376049,17.4370636023548
0.0285303203765103,17.4398942165597
0.0284906697633989,17.4428975910208
0.0280159418933647,17.446452717529
0.0272142077999009,17.4496922316973
0.0261188018769699,17.4529317458657
0.0250282057684089,17.4556379033864
0.0239523629384263,17.4580607719811
0.0228775166160451,17.4603466965998
0.0218027202936411,17.4625585823795
0.020730894454577,17.4647300808149
0.0196657177579173,17.4668827290917
0.0186108586244477,17.4690318915008
0.0175697695168426,17.4711893746097
0.0165456316687476,17.4733647889522
0.0155413515337752,17.4755663288317
0.0145595616141982,17.4778012815899
0.0136026379944668,17.480076347082
0.0126727045087247,17.4823978929688
0.0117716443156906,17.4847721355676
0.0109011118161582,17.4872052818318
0.0100625338960407,17.4897036787905
0.0092571230334295,17.4922739208268
0.00848047606266962,17.4949422789988
0.0077162595688003,17.497787651366
0.00696827717550101,17.500829975428
0.00624028748523928,17.5040932106735
0.00553625727947868,17.507604994123
0.00486032288148794,17.5113973243988
0.00421671935107442,17.5155074689962
0.00360966482040865,17.5199792815208
0.00304317955929062,17.5248653910172
0.00252083658884153,17.5302311130366
0.002045493104566,17.5361612694703
0.00161920196039744,17.5427696400115
0.00125452415136315,17.5499595751557
0.000950645447336213,17.5577446541071
0.000700948908691514,17.5662546675611
0.000499275113834557,17.5756616431465
0.00034673231710702,17.5856616431465
0.000243502108984775,17.5956616431465
0.000175484248120965,17.6055948690432
0.000128586316528325,17.6155948690432
9.60422180504958e-05,17.6255948690432
7.3569894939387e-05,17.6355948690432
5.83193121422184e-05,17.6455948690432
4.82102813361556e-05,17.6555948690432
4.17072963206966e-05,17.6655948690432
3.77103959611278e-05,17.6755948690432
3.54568911642812e-05,17.6855948690432
3.44275118997702e-05,17.6955948690432
3.4269702850505e-05,17.7055948690432
3.47428625213115e-05,17.7155948690432
3.56821415988843e-05,17.7255948690432
3.69749388480131e-05,17.7355948690432
3.85452766580553e-05,17.7455948690432
4.03430532033457e-05,17.7555948690432
4.23365004907857e-05,17.7655948690432
4.45068893768603e-05,17.7755948690432
4.68448545563844e-05,17.7855948690432
4.93478835626248e-05,17.7955948690432
5.2018630797434e-05,17.8055948690432
5.48638117225508e-05,17.8155948690432
5.78935069230699e-05,17.8255948690432
6.11207609203405e-05,17.8355948690432
6.45613992955927e-05,17.8455948690432
6.82340143631824e-05,17.8555948690432
7.21600883940921e-05,17.8655948690432
7.6364237185915e-05,17.8755948690432
8.08745675316935e-05,17.8855948690432
8.57231511389814e-05,17.8955948690432
9.09466257453558e-05,17.9055948690432
9.65869423823794e-05,17.9155948690432
0.000102692286746946,17.9255948690432
0.000109318213301475,17.9355948690432
0.000116529044059737,17.9455948690432
0.000124399601332318,17.9555948690432
0.000133017366786583,17.9655948690432
0.000142485190537798,17.9755948690432
0.000152924717282052,17.9855948690432
0.000164480757111132,17.9955948690432
0.000177326914753899,18.0055948690432
0.000191672915039697,18.0155948690432
0.000207774243822228,18.0255948690432
0.000225944993316561,18.0355948690432
0.000246575208795729,18.0455948690432
0.000270154662588941,18.0555948690432
0.00029730597134866,18.0655948690432
0.000328831566686785,18.0755948690432
0.000365781661316682,18.0855948690432
0.000409554820890639,18.0955948690432
0.000462050574633694,18.1055948690432
0.000525907676860144,18.1155948690432
0.000598397257930171,18.1248422775054
0.000680328776129512,18.1333618889828
0.00077288184051289,18.1412110837877
0.000877434521935476,18.1484442205861
0.000995558710653561,18.1551115637499
0.00112903722510135,18.1612596077523
0.00127989069007601,18.1669314170378
0.00145041073408301,18.1721668853442
0.00164319898055688,18.1770029326397
0.0018612084848088,18.1814737457667
0.00210780125653472,18.185611043095
0.00238681239937518,18.1894443083216
0.00270262705644001,18.1930009578264
0.0030602817019631,18.1963065551293
0.00346559286953999,18.1993850737837
0.0039253317059887,18.2022591287088
0.00444745566249765,18.2049502428779
0.00504144558929407,18.2074792233574
0.00571880889307718,18.2098666300462
0.00647440676981624,18.2120813982262
0.00731072771079696,18.2141357036458
0.00824161800050393,18.2160674708621
0.00928880033213096,18.2179169770503
0.0104903405670226,18.2197349260483
0.0119288875273646,18.2216087200066
0.0137322713564799,18.2236413341736
0.015687132044135,18.2255924922093
0.0174849759765067,18.2272591910492
0.0189726703958499,18.2286087068511
0.0202840872459295,18.2298244873202
0.0214572304342066,18.2309838051594
0.0224918424336439,18.2321307289881
0.0233700967531605,18.2333049684522
0.0240561157033187,18.2345581697629
0.0244781950505946,18.235987561123
0.0244163287243813,18.2379283671383
0.0238646227576151,18.2395098822735
0.023079065660871,18.2408893147753
0.0221172756825049,18.2422146425493
0.0209812791507479,18.2435704907187
0.0196665562421626,18.2450092958788
0.0182296597795398,18.2465127322444
0.016684048790434,18.2481119126998
0.0150698799989773,18.2498504731501
0.0134030598104983,18.2518150376175
0.0117552389088693,18.2539818004185
0.0101621831262997,18.2563632279625
0.00869282229217819,18.2589069928698
0.00745959329016177,18.2614072039394
0.00639509865860894,18.2639522508876
0.00547716915335694,18.2665691552683
0.00469072800832237,18.2692812369825
0.00402524498624059,18.2721121667221
0.00347429030215249,18.2750875337853
0.00303590177816815,18.2782362814027
0.00271399163728934,18.2815923420549
0.0025216206391779,18.2851967389598
0.00248367125222581,18.2887407929345
0.00258375791225991,18.2919095481274
0.00279606317354835,18.2947596764832
0.00310631852346215,18.297337889762
0.00350786116233494,18.2996882920575
0.00400084517350451,18.3018567075751
0.00459209428242674,18.303888438914
0.00529715011389731,18.3058315551807
0.00614636939366768,18.3077442718465
0.00719805010622529,18.3097061969958
0.00856107887847707,18.3118297622604
0.0104826940088212,18.3143300168381
0.0123134935228044,18.3163627262689
0.0144176777384774,18.3183954356998
0.0164762456766251,18.3201290083575
0.0185545692000402,18.3216619993697
0.0207494379330264,18.3230787504803
0.0231234622572071,18.3244147505488
0.025738432194446,18.3256922725715
0.0286379319578977,18.3269173441605
0.0318715963282646,18.3280957008941
0.0354902937824086,18.3292308690333
0.0395501380169247,18.3303259720515
0.0441100788550681,18.3313830698759
0.0492416166730398,18.3324053684565
0.0550225456309171,18.3333952547215
0.061547041891747,18.334355892879
0.0689235396788579,18.3352902146137
0.0772812028563535,18.3362013824023
0.086775183181513,18.3370927756787
0.0975924896610682,18.3379679275374
0.109962261224993,18.3388306949548
0.124167824494854,18.3396852992077
0.140564167073745,18.3405364625092
0.159604211634309,18.341389662826
0.181881422872882,18.3422516155602
0.20821331303728,18.3431314706655
0.238956627480663,18.3440202322976
0.274540629140126,18.3449148792514
0.31594763410832,18.345827877418
0.364782239097079,18.3467849652977
0.403161146218474,18.3474794605871
0.443021455822052,18.3481739558764
0.478444451323347,18.3487909767716
0.509571486466006,18.3493561353838
0.537028782608577,18.3499003972638
0.560809438653859,18.3504472480778
0.580389644720362,18.3510219529678
0.594473969237671,18.351664923322
0.599547440199423,18.3523899777471
0.592669899604195,18.3531408485903
0.572574832703262,18.3539406945197
0.54051762398205,18.3547404551101
0.495947230508355,18.3555675232338
0.435753541196491,18.3564613951698
0.381188654085885,18.3571544548746
0.320705344034438,18.3578475145793
0.268929321434724,18.3584050408618
0.226241796734955,18.3588543733007
0.189596314650223,18.3592417540673
0.157201936672087,18.3595925409833
0.128079681484289,18.3599210172903
0.101606848480215,18.360236878861
0.0773074112212113,18.3605483526448
0.0547152340163904,18.3608647503467
0.033142075252545,18.3612018743058
0.0104371113060163,18.3616124917304
-0.000495459449733301,18.3618402995256
-0.00809459324349472,18.3620146773976
-0.0150550424342523,18.3621890552697
-0.0211356056110984,18.3623556489259
-0.0273899036081977,18.3625444202938
-0.0335341865525691,18.3627518753832
-0.0393623093212594,18.3629752419037
-0.0447565234289173,18.363213310198
-0.0496530311741427,18.3634659126521
-0.0540206291467634,18.363733606673
-0.0578481301355177,18.364017513591
-0.0611367496803759,18.3643192529927
-0.0638952896968937,18.3646409401589
-0.0661365810669444,18.3649852325762
-0.0679686799942415,18.3653834583389
-0.0691472978544334,18.3657821244375
-0.0698478736211786,18.3662153504911
-0.0700823442156568,18.3666899245147
-0.069855932684403,18.3672141281826
-0.0691647421101267,18.3677995520049
-0.0679897271856399,18.3684624865547
-0.0662893265773443,18.3692261833365
-0.0639773708342933,18.3701289869117
-0.0608509861561211,18.3712491126207
-0.056641196324303,18.3726885583428
-0.0525128540786399,18.3740780205389
-0.0485323187545806,18.3754272451668
-0.0447366636977931,18.3767390480979
-0.0411460300175135,18.3780144378079
-0.0377715316609905,18.37925351149
-0.0346184781760289,18.3804559278069
-0.0316879137701225,18.3816211576522
-0.0289775201752224,18.3827486158718
-0.0264822692018827,18.3838377273118
-0.0241949698141347,18.3848879546655
-0.0221067618396002,18.3858988026226
-0.0202075700421689,18.3868698062644
-0.0184865188442096,18.3878005081542
-0.0168910992601829,18.3887147488098
-0.015352933917945,18.3896523341302
-0.0138767283757326,18.3906146841183
-0.0124664264830545,18.3916038501136
-0.0111257821826799,18.3926222353852
-0.00985830345209922,18.3936726843014
-0.00866719830709864,18.3947585958563
-0.00755531783740308,18.3958840760521
-0.00652509592892682,18.397054147046
-0.00557848471961861,18.3982750418679
-0.00471688384864339,18.3995546329054
-0.00394105979491985,18.4009030787418
-0.00325104818880987,18.4023338467814
-0.00264602489688536,18.4038654269346
-0.00213404105864135,18.4054887508292
-0.00172359890680958,18.4071562408473
-0.00139776234028573,18.4088861773041
-0.00114154128696184,18.4106990265918
-0.000940781251385831,18.4126219676797
-0.000781710080250943,18.4146931829961
-0.000650231235297899,18.4169707057608
-0.000530549681872607,18.4195534925315
-0.000401365017665289,18.4226468560281
-0.000241081619996374,18.4263793928191
-5.48619839956812e-05,18.4303116412299
0.000181657394103469,18.4348401646332
0.000458425356763065,18.439822807109
0.000779628447917959,18.4455052791686
0.00112370553902688,18.4516931385249
0.00145450071058401,18.4578287089349
0.00171740133391032,18.4628376586058
0.00194538000252035,18.4672705251847
0.00215933538365439,18.471484754509
0.00237372801365889,18.47573702864
0.00260661899632533,18.4803638128163
0.002852165041379,18.4852171320343
0.00309825182665953,18.4900223126131
0.00334158824850409,18.4946889834738
0.00355677102452541,18.4987236615849
0.00376348352447561,18.5025097190309
0.00397015746181186,18.5061976020154
0.00418170426280812,18.5098640809199
0.00440191698102166,18.5135592274205
0.00463425541807986,18.5173209282567
0.00488220830725637,18.5211807621082
0.00514955954724553,18.5251676483508
0.00544059222986329,18.5293096805773
0.00576030501104111,18.5336354166488
0.00611469891936014,18.5381748985534
0.0065112348671049,18.5429607684066
0.00695959919384731,18.5480294367143
0.00742901097377801,18.5529727264333
0.0079312447248784,18.5578832876392
0.00846651546894103,18.5627171707062
0.00904074337939185,18.5674805065629
0.00966010424267256,18.572172481018
0.0103323300364215,18.576796756602
0.0110789343535262,18.5814317380917
0.0119168556797432,18.586093575979
0.0128659090382908,18.590793361323
0.0139534804800751,18.5955565872354
0.0152214211884927,18.6004393787338
0.0167478605136763,18.6055810033959
0.0187464150764302,18.6114361241814
0.0205914338380247,18.6162514131741
0.0221647284632777,18.6200982105059
0.0237705618333681,18.6239450078377
0.0251495142271071,18.6273462779426
0.0263106189220573,18.6304699145816
0.0272659768409956,18.633486368387
0.0279633520035036,18.6363623887749
0.0283945900769302,18.6391719560705
0.0285460753848907,18.6420470063857
0.0283595145379827,18.6451975221334
0.0275792256873979,18.6493310576755
0.0267220774426761,18.6522080700863
0.0256582145318103,18.6550850824972
0.024581508984336,18.6576367945135
0.0235074704902493,18.6599919632717
0.0224327998053441,18.6622423149251
0.021359135381969,18.664434547075
0.0202898994414487,18.6665962035434
0.0192288147576704,18.668745844821
0.0181794735798695,18.6708971643184
0.0171452206372098,18.6730609504807
0.0161291248387733,18.6752461624849
0.0151339776962273,18.6774605817437
0.0141623070320433,18.6797112214117
0.0132163811831122,18.6820046320587
0.0122982246871305,18.6843471043538
0.0114096266657328,18.6867448393249
0.0105521438886789,18.6892041047545
0.00972711571803829,18.6917313433086
0.00893566594401873,18.6943333097796
0.00816385289452991,18.6970720389993
0.0074060302207297,18.6999955168554
0.00666595304514239,18.7031253549426
0.00594746905722145,18.7064869376203
0.00525462114684641,18.7101095838123
0.00459159617769707,18.7140273112395
0.00396263999316618,18.7182798632462
0.00337191632842583,18.7229143043719
0.00282329855266999,18.7279877523204
0.00232009062612897,18.733572424697
0.00186481697255811,18.7397635470409
0.00146120445706955,18.7466516532629
0.00112242441821375,18.7540745881807
0.000841708854569983,18.7621410383501
0.000612577906876248,18.7709975904557
0.00042907359950874,18.7808380465633
0.000298865297649624,18.7908380465633
0.000212953206978259,18.8008380465633
0.000154495648142228,18.8108380465633
0.000113926729550551,18.8208380465633
8.57250536350164e-05,18.8308380465633
6.63376017393694e-05,18.8408380465633
5.32331640784922e-05,18.8508380465633
4.45511436879142e-05,18.8608380465633
3.8949152736228e-05,18.8708380465633
3.54876672950447e-05,18.8808380465633
3.35226519699779e-05,18.8908380465633
3.2615320943818e-05,18.9008380465634
3.24656146752333e-05,18.9108380465634
3.28672365900591e-05,18.9208380465634
3.36782305942341e-05,18.9308380465634
3.48014988289141e-05,18.9408380465634
3.61715017299862e-05,18.9508380465634
3.7744964063127e-05,18.9608380465634
3.94943402122651e-05,18.9708380465634
4.14032502937444e-05,18.9808380465634
4.34633298762829e-05,18.9908380465634
4.56720820252952e-05,19.0008380465634
4.80314324138591e-05,19.0108380465634
5.05467767317405e-05,19.0208380465634
5.32263758699041e-05,19.0308380465634
5.60810012369373e-05,19.0408380465634
5.91237647984571e-05,19.0508380465634
6.23700906689639e-05,19.0608380465634
6.58378008425848e-05,19.0708380465634
6.95472992535352e-05,19.0808380465634
7.35218473096457e-05,19.0908380465634
7.77879313696052e-05,19.1008380465634
8.23757291157788e-05,19.1108380465634
8.73196880654114e-05,19.1208380465634
9.26592361721306e-05,19.1308380465634
9.84396522221508e-05,19.1408380465634
0.000104713133238197,19.1508380465634
0.000111540108256735,19.1608380465634
0.00011899086381979,19.1708380465634
0.000127147567955618,19.1808380465634
0.000136106808643368,19.1908380465634
0.000145982803160288,19.2008380465634
0.000156911491328925,19.2108380465634
0.000169055806101654,19.2208380465634
0.000182612530762611,19.2308380465634
0.000197821321404976,19.2408380465634
0.000214976724997329,19.2508380465634
0.000234444403794948,19.2608380465634
0.00025668336293573,19.2708380465634
0.000282276899731433,19.2808380465634
0.000311976475699419,19.2908380465634
0.00034676515719947,19.3008380465634
0.000387951414938149,19.3108380465634
0.000437311317001718,19.3208380465634
0.000497310255801426,19.3308380465634
0.000565555630562376,19.340109400951
0.000642723436137732,19.3486560943114
0.000729935161757419,19.3565338735728
0.000828504905222049,19.3637963497762
0.000939932189267386,19.3704931915469
0.00106591794467814,19.3766703879276
0.00120838962343801,19.3823705582946
0.00136953189363649,19.3876332042279
0.00155182299560798,19.3924949107225
0.00175807334451634,19.3969895739002
0.00199147745028924,19.4011486403471
0.0022556714261532,19.4050013255493
0.00255480348968109,19.4085747861661
0.0028936230920384,19.4118943187715
0.00327759335865906,19.4149835882016
0.00371304142584378,19.4178648414623
0.00420735472072891,19.4205591425971
0.0047692589004476,19.4230866784728
0.0054092219422094,19.4254671335573
0.00613232193209959,19.4276984151602
0.00693091405732916,19.4297558416309
0.00781569660818546,19.4316749191243
0.0088030114627358,19.4334917561791
0.00991900684874457,19.4352462699069
0.0112120786880418,19.4369934728804
0.0128408676435641,19.4388888012763
0.0152393139768304,19.4412810880235
0.0167918633150476,19.4426761284313
0.0184158944191073,19.444071168839
0.0198920595502566,19.4453287154964
0.0212132607877738,19.4464906096552
0.0223955929474186,19.4476115151225
0.023433161900363,19.4487315304167
0.0243034635963301,19.4498912543594
0.0249628644351618,19.4511491515921
0.0253180855831976,19.4526306898429
0.0251287672497928,19.4544519727653
0.0243069513812839,19.4563082769609
0.0232605839366862,19.4578313585541
0.0220771973791694,19.4592443886874
0.0207562572356727,19.4606610698159
0.019306511786249,19.4621306469999
0.017756464055642,19.4636708322621
0.0168411304279778,19.4645838385612
0.0159548206810124,19.4654968448602
0.0147561469672723,19.4667986218423
0.0135917202161887,19.4681502120245
0.012393143006441,19.469649742831
0.0110258730045508,19.4715265662812
0.00937199811826925,19.4741066771307
0.00799377725558701,19.4766128008285
0.00688867456802928,19.478952135734
0.00587309863458755,19.4814680779464
0.00497728800352785,19.4841052070665
0.00420471560711897,19.4868457395304
0.00354460314839974,19.4897125634801
0.00298871768507078,19.4927320274609
0.00253198641791187,19.495934324793
0.00217336814698558,19.4993552051966
0.00191767621297105,19.5030382730301
0.00177947952043818,19.50703825026
0.0017803856292338,19.5108392460126
0.00189833402288958,19.5142358198329
0.00211300797072153,19.5172807870289
0.00241324732918859,19.5200213060272
0.00279400119260654,19.5225034384876
0.00325526610070577,19.5247728913054
0.0038016579940215,19.526873240953
0.00444433212546479,19.5288506970751
0.00520455227598181,19.5307571261868
0.0061199638288835,19.5326540450461
0.00726128662483228,19.5346280154292
0.00877670796773825,19.5368262429938
0.0108600673055286,19.5393607905511
0.0126784776202034,19.5412637237582
0.0147500158298212,19.5431666569653
0.0168048096427477,19.5448205959691
0.0189190394248764,19.5463138163275
0.0211705268082167,19.547705197429
0.0236112889317917,19.5490194321248
0.0263095606011579,19.5502798700798
0.0293015643909005,19.5514878814444
0.0326464304783932,19.5526521054637
0.036388333190599,19.5537729069616
0.0405897741255294,19.5548548485591
0.0453105960766034,19.5558995724763
0.0506249095991003,19.5569102366614
0.0566158724169657,19.5578895770953
0.0633787954089234,19.5588402460444
0.0710289478030889,19.55976546934
0.0797017888572804,19.5606684048725
0.0895593251510989,19.5615523513957
0.1007991249056,19.5624209440382
0.113662433766835,19.5632780478023
0.128447882313591,19.5641279010004
0.145530825502411,19.5649752925922
0.165391239917005,19.5658257990951
0.188662008228616,19.5666863718965
0.216229503645223,19.5675668533607
0.248241068005656,19.5684520316137
0.285317167853267,19.5693450146601
0.328542115077537,19.5702602595139
0.379815982553502,19.5712296615619
0.417139640039345,19.5718873999321
0.455442375348399,19.5725451383023
0.48959796740608,19.5731386066071
0.519748084928079,19.5736915347882
0.546285331264248,19.5742310951618
0.56905216182404,19.5747802855471
0.587351450120569,19.5753669876392
0.599488641157373,19.576042294578
0.601212320051278,19.5767699371733
0.590660969774611,19.5775307352507
0.566322951653257,19.578347853862
0.531060817594091,19.5791412028176
0.482308611724653,19.5799821096015
0.417669362568171,19.5808884789852
0.365328834511954,19.5815266305268
0.308302734627757,19.5821647820684
0.259028606130712,19.5826892909303
0.217842145697916,19.5831210268779
0.182191061449479,19.58349823527
0.150538526687824,19.583842701383
0.122008543326423,19.5841672938648
0.0960210696748515,19.5844811758313
0.0721115738646807,19.5847925821732
0.0497901329046468,19.5851116095222
0.0282331556190293,19.5854575479472
0.00859809197072812,19.5858209686377
-0.0012545295137996,19.5860283718697
-0.0101664685732073,19.5862357751017
-0.0169189849558051,19.5864089359031
-0.0230896355652684,19.5865824542994
-0.0293431318317159,19.5867771174355
-0.0354106473004118,19.5869893789964
-0.0411177906988885,19.5872170227107
-0.0463663753174365,19.587459208968
-0.0511043507001098,19.587716019052
-0.0553076844235419,19.5879881953083
-0.058969630752879,19.5882770150555
-0.0620941471299349,19.5885842469276
-0.0646916616039847,19.5889121643851
-0.0667744553231466,19.5892636065167
-0.0684419356195538,19.5896715464184
-0.0694693062950582,19.5900800142036
-0.0700217909142352,19.5905248229544
-0.0701098021745644,19.5910132950771
-0.0697363401113507,19.5915544408074
-0.0688931965036571,19.5921614056074
-0.0675554616368998,19.5928520611174
-0.0656708982132202,19.5936531922954
-0.0631291169676834,19.5946112731426
-0.0596450035049915,19.5958324105547
-0.0554367307855513,19.5972554880207
-0.0513313770785003,19.5986336172387
-0.047387888731077,19.5999726257746
-0.0436371909384472,19.60127467756
-0.0400963127962493,19.6025404481796
-0.0367744545587616,19.6037698688965
-0.0336755558659999,19.6049625213092
-0.0307995895348718,19.6061178463903
-0.0281433682415144,19.6072352535291
-0.0257011572392252,19.6083141736749
-0.0234652028220194,19.6093540793906
-0.0214262137573356,19.6103544839747
-0.0195738045340661,19.6113149263778
-0.0178968983215459,19.6122349456725
-0.0163154147321698,19.6131552147256
-0.0147927600321635,19.6140991183799
-0.0133333338742165,19.6150682960882
-0.0119410374992444,19.6160648838958
-0.0106195676020921,19.6170913915726
-0.00937236198254298,19.6181507967811
-0.00820254509423598,19.6192466674888
-0.00711287068281201,19.6203833271816
-0.00610566107907802,19.6215660831011
-0.00518274205896142,19.6228015503471
-0.00434537109338606,19.6240981274329
-0.00359415483111394,19.6254667222586
-0.00292894776277359,19.6269219159677
-0.00234871571726679,19.628483948603
-0.0018681732108698,19.6301171158794
-0.00148470858452802,19.6317992631716
-0.00118209981781661,19.6335487202014
-0.000945644712546007,19.6353874390963
-0.000761393829867821,19.6373449430728
-0.000615657061574189,19.6394634737446
-0.000494209125709546,19.6418088965258
-0.000380624369861021,19.6444981577374
-0.00025108633540809,19.6477938332048
-9.52458410886097e-05,19.6515394469744
9.27790167340151e-05,19.6555910562261
0.000335905130927103,19.6603473559518
0.000609497052906019,19.6654202255812
0.000936640092210299,19.6714367025343
0.00127414844462358,19.6777791998309
0.00158949312478332,19.6838948881484
0.00186166091049925,19.6893152781649
0.0020907723572945,19.6939575579496
0.00230004924813267,19.6982390862056
0.00250457933324726,19.7024384187434
0.00271861421781377,19.7068256231358
0.00296299474817635,19.7117987165935
0.00320282264249526,19.7166023478179
0.00345181472048628,19.7214870790495
0.00367364579534886,19.7257239571928
0.00388178602702008,19.7295932308411
0.00408768957196612,19.7333119372115
0.00429728801515402,19.7369797465225
0.00451475068473647,19.7406558572341
0.00474369867054648,19.7443825889225
0.00498768347611182,19.7481937865401
0.00525048574929326,19.7521192050004
0.00553635377421103,19.7561871093899
0.00585021935508499,19.760425675166
0.00619796831984214,19.764864110224
0.00658683774542416,19.7695336424006
0.00702608598394064,19.7744687638699
0.00750089482193281,19.7794323514797
0.00800597896911838,19.7843257110408
0.00854655579854524,19.7891584328229
0.0091265755725783,19.7939182394238
0.00975232014814032,19.7986058030105
0.0104313868898153,19.8032237231417
0.0111876092245599,19.8078629029393
0.0120363779158188,19.8125267329485
0.0129985741676291,19.8172301366881
0.0141027224380627,19.822000898132
0.0153932180882193,19.8269009965836
0.0169552951594667,19.8320862022136
0.0190380001883804,19.838093979252
0.0208180928721641,19.8426877150507
0.0227109463555009,19.8472814508494
0.0242814786320566,19.8510596433538
0.0255834057665732,19.8543468967542
0.0266735177005421,19.8574176610995
0.0275477359081724,19.86040222593
0.0281523074231092,19.863242289036
0.0284889300151242,19.8660579550364
0.028532871886996,19.8689965572942
0.0281934673685742,19.8723426458052
0.027180948426016,19.8766898134258
0.0262826000082827,19.8793769508459
0.0252228018667697,19.8820640882659
0.0241491881253121,19.8845160682672
0.0230747228477767,19.886820503503
0.0219998073001224,19.889042874205
0.0209272103468236,19.8912198872205
0.019860570794793,19.8933746731314
0.0188035846555044,19.8955234729194
0.0177597490729677,19.897678623751
0.0167322981055572,19.8998500654636
0.0157241872229809,19.9020462118238
0.0147380991080097,19.9042744872372
0.0137764571198863,19.906541677595
0.0128414287439138,19.9088542017643
0.0119349424235748,19.9112182885205
0.0110586936782933,19.9136401381675
0.0102141498572006,19.9161260663368
0.00940256247125873,19.9186826147094
0.00862399684798517,19.9213201100019
0.00785716573481877,19.924131250873
0.00710589477151289,19.9271352467477
0.00637389954196903,19.9303554453345
0.00566511247585416,19.9338187436632
0.00498364214456696,19.9375562704896
0.00433371220270135,19.9416042307646
0.00371955523028105,19.9460051236935
0.00314524404212533,19.950809728297
0.00261446417371603,19.9560805046729
0.00213021393403309,19.9618980390164
0.0016946901779962,19.9683699095706
0.0013178986104227,19.9754599788313
0.00100316304312448,19.9831251250336
0.000743821472234361,19.9914879502841
0.000547589827100049,20
