ecg,time
0.000108777575454625,15.0074098851872
0.000114346729652611,15.0174098851872
0.000120648195468909,15.0274098851872
0.000127721478480052,15.0374098851872
0.000135632030203513,15.0474098851872
0.000144470698063754,15.0574098851872
0.000154355194009615,15.0674098851872
0.000165433526042964,15.0774098851872
0.000177889566212639,15.0874098851872
0.000191951177985282,15.0974098851872
0.000207901636440302,15.1074098851872
0.000226095503736778,15.1174098851872
0.000246980756482835,15.1274098851872
0.000271129942445264,15.1374098851872
0.000299284714166782,15.1474098851872
0.000332420678898347,15.1574098851872
0.000371843914944587,15.1674098851872
0.000419338256574423,15.1774098851872
0.000476376454011857,15.1872485302456
0.000541222744121575,15.196348209522
0.000614718128940294,15.2047435288356
0.000697987828966087,15.2124889605487
0.000792339390318684,15.219635824345
0.000899262794112182,15.2262317024387
0.00102044742235453,15.2323207231146
0.00115780669135808,15.2379438374298
0.0013135082784428,15.2431390481089
0.00149000839949781,15.2479416161767
0.00169009115064049,15.2523842727445
0.00191691628104786,15.2564974291601
0.00217407589733894,15.2603093669994
0.00246566150894219,15.2638464108656
0.00279635046983372,15.2671331151764
0.00317151342457301,15.2701924635305
0.00359735554744954,15.2730460664669
0.00408110441784269,15.2757143848297
0.00463127002520494,15.2782170023916
0.00525801893847403,15.2805729626795
0.00596980654788519,15.2827900725007
0.00675574046198544,15.28483092905
0.00762556451054361,15.2867298943043
0.00859411317545949,15.2885216290029
0.00968446457518018,15.2902430346712
0.010937407657403,15.2919417416982
0.0124746527284216,15.2937371039709
0.0147281691780708,15.2959897221162
0.0163460607378334,15.2974312796005
0.0180639847227967,15.2988728370848
0.01963616925028,15.3001621603705
0.0210351625481269,15.3013298885129
0.0222903474974505,15.3024414550378
0.0234029297327843,15.303539885176
0.0243557510291484,15.30466365518
0.0251131574768998,15.3058621278709
0.0256040498061924,15.3072269136393
0.0256169559653526,15.309063773389
0.0250558484566036,15.3106849368948
0.0240579968467122,15.3123061004007
0.0229138927637258,15.3137286307248
0.0216265185154213,15.3151237065739
0.0202005802944081,15.3165570088182
0.0186454647998819,15.3180676906073
0.0173962391103243,15.3192760302624
0.016178922759524,15.3204843699174
0.0149485977001485,15.3217767742853
0.0131008701619712,15.3238881501911
0.0114517780924863,15.3259935174853
0.0099372326853307,15.3281708692047
0.0084353117871887,15.3306403151794
0.00713323975289279,15.3331234807385
0.00637435310768809,15.3347674215154
0.00568960558238907,15.3364113622923
0.00511410030386705,15.337939050151
0.0046031637524078,15.3394329659412
0.00412238646903504,15.3409837454155
0.00364111093289822,15.3427106062011
0.00310553719695573,15.3448946361488
0.00248814783108865,15.3478805030983
0.0020029630954224,15.3507374443404
0.00162778879534002,15.3534084424273
0.00129056886268378,15.3563302771496
0.000959571481567556,15.3599734448002
0.000683269260258387,15.3641040532678
0.000479211664099333,15.3686598721767
0.00036012207189744,15.3737169226349
0.000346843293940165,15.3781779651288
0.000416253789124361,15.3822048605592
0.000558372288708097,15.3858257291155
0.000768639640722859,15.3890885755784
0.00104606103970404,15.3920416146823
0.00139265992815721,15.3947349142995
0.00181351650966516,15.3972180293335
0.00231848939937167,15.3995444101676
0.00292425099793888,15.4017706844831
0.00365876213250653,15.4039615918772
0.0045805700217685,15.4062227100666
0.0058156080322789,15.40873212812
0.00746707315090564,15.4115279803195
0.00898434856115939,15.4137298842499
0.0107211094219278,15.4159317881802
0.0124061798828305,15.4177962940569
0.0141223089037255,15.4194577367095
0.0159233950118737,15.4209799064298
0.0178944380094044,15.4224277279321
0.0200614111316862,15.4238044916349
0.0224764421846129,15.4251269811632
0.0251752788807957,15.4263974781658
0.0282054649555423,15.4276219045264
0.031605121847265,15.4288002003077
0.0354302323409675,15.4299372974631
0.0397362877777623,15.4310354742954
0.0445829919646739,15.4320964850159
0.0500487963908424,15.4331242966105
0.0562210448342603,15.4341219872405
0.0632031773254251,15.4350928236986
0.0711170020989434,15.4360400574692
0.0801142900544142,15.4369677053915
0.090378805171398,15.4378798550777
0.102138914229404,15.4387810548125
0.115683276934258,15.4396765034995
0.131383332062341,15.4405722887789
0.149733226698855,15.4414760391607
0.171411004659014,15.4423976572923
0.196914835904306,15.443334605343
0.226445196580826,15.4442759118039
0.260765536282431,15.4452315261222
0.300935554394722,15.4462173431656
0.34874330923302,15.4472659986582
0.385127505627509,15.4480077398179
0.422663901640265,15.4487494809775
0.456010813689307,15.4494122904617
0.485259023058308,15.4500218305525
0.510861967104025,15.450608445763
0.532733535655104,15.4511956575263
0.550300601733446,15.4518082302832
0.562246281041867,15.452483182374
0.565426522927941,15.453244898424
0.557017825035929,15.4540278074797
0.535764597665811,15.4548524391004
0.49974934817305,15.4557361519075
0.448800151807363,15.4566547020005
0.384484339578103,15.4575813972735
0.337791387764312,15.4581682110629
0.287407088448447,15.4587550248523
0.2429923019402,15.4592504492094
0.204960689868732,15.4596697260167
0.171561870064874,15.4600422030293
0.141664828694389,15.4603857567589
0.114576189493802,15.4607117161951
0.0898078954981917,15.4610286425938
0.0669444099491625,15.4613446904807
0.0455119275103308,15.461670536664
0.024623094319447,15.4620283849847
0.00771845013678441,15.4623609815993
-0.00149163725628029,15.4625652032411
-0.00984868088282407,15.4627694248828
-0.0164625817325418,15.4629472789578
-0.0225504051678382,15.4631270152736
-0.028687346049257,15.4633279260045
-0.0346181192333542,15.4635464969719
-0.0401792336160463,15.4637805865384
-0.0452794935410643,15.4640294260272
-0.0498711805283425,15.4642931624553
-0.0539328717922498,15.4645726020259
-0.0574593040542106,15.4648690872525
-0.0604527917799165,15.4651844565864
-0.0630508391994927,15.4655432319575
-0.064942848202054,15.4659025847584
-0.0663382171139194,15.4662893186003
-0.0672530703919357,15.4667081910092
-0.0676995055419229,15.4671647969226
-0.0676856055663722,15.4676662415458
-0.0672132076613468,15.4682217558281
-0.0662721524141651,15.468845096992
-0.0648359036294328,15.4695544561611
-0.0628498865509838,15.4703774819541
-0.0601991429129648,15.4713625329835
-0.0565823862280938,15.4726222160963
-0.0524146879749312,15.4740315038198
-0.0483695606207183,15.4753960433057
-0.0444998586965724,15.4767207560069
-0.0408322127071633,15.4780077974514
-0.0373807958650528,15.4792578837365
-0.0341525554573308,15.4804710084992
-0.0311495119654915,15.4816468239176
-0.0283699734508737,15.4827848417542
-0.0258093239765563,15.4838845374059
-0.0234606336528891,15.4849453994565
-0.0213151846321718,15.4859669468072
-0.0193629447102624,15.4869487252305
-0.0175929967091727,15.4878902899003
-0.0159811735539731,15.4887985790009
-0.014426009327759,15.4897299258544
-0.0129325371896679,15.4906855291076
-0.0115047463800674,15.4916673597158
-0.0101464533482922,15.4926777194115
-0.00886124488444737,15.4937193254065
-0.00765242596800684,15.4947954156799
-0.00652296492134899,15.495909889534
-0.00547543577512344,15.497067499264
-0.00451195727135886,15.4982741182178
-0.00363412721537634,15.4995371270395
-0.00284294961354673,15.5008659904511
-0.00213874964392562,15.5022731569627
-0.00152106672182744,15.5037755410221
-0.000990550563125614,15.5053900944861
-0.000567296581309768,15.5070440659811
-0.000233624448988503,15.5087558918765
2.56662983812567e-05,15.5105447004829
0.000224800905562774,15.5124356075933
0.000377417772845314,15.5144632988161
0.00049714820097114,15.5166792781338
0.000598639130341338,15.5191683083766
0.000700058711773433,15.5220952498534
0.000830556047501019,15.5258375276537
0.000980984237504715,15.5296736084785
0.00117572772476777,15.5340254342696
0.00138683772268506,15.5383233079843
0.00161307127127525,15.5427132172474
0.00186812698952013,15.5475825734648
0.0021254673261758,15.5525009085648
0.00238085183648457,15.5574182238101
0.00261891735358397,15.5620215677083
0.00282985701101342,15.5660935914971
0.00303103363499889,15.5699518654149
0.00323030724746733,15.5737297820343
0.00343239304925967,15.5774996670321
0.00364087902813483,15.5813104347307
0.00385894724796261,15.5852002661946
0.00408970325045097,15.5892018167993
0.00433641281388038,15.5933455355606
0.00460268033210823,15.5976615854237
0.00489263168433595,15.6021811690535
0.00521117907677179,15.6069378152485
0.00556445849434368,15.6119687134342
0.00595323934738696,15.6172189224725
0.00635470251362503,15.6223315501275
0.00677885543694305,15.6274041895263
0.00722572891538327,15.6323929818206
0.00770039569330912,15.6373095540401
0.0082077577206304,15.6421555348218
0.00875379619732443,15.6469364849893
0.00934501711675743,15.6516554153881
0.00998855884303275,15.6563135004184
0.0106962000580683,15.6609348501943
0.0114910794075155,15.6655911055148
0.0123887104118054,15.6702772717134
0.0134125782370621,15.6750121778426
0.0145962427012668,15.6798334947772
0.0159966811978693,15.6848317138175
0.0177407010452038,15.6902586771015
0.020159877059483,15.696798371319
0.0217585834639454,15.7007385900863
0.0234090111994816,15.7046788088537
0.0248496294745008,15.7081740946719
0.026063941412458,15.7113399919787
0.0270726595928158,15.7143634514694
0.0278384547940082,15.7172673995246
0.0283378630570743,15.7200765941734
0.0285636016866654,15.722915665837
0.0284728155992981,15.7259624469603
0.0279022296110442,15.729683314982
0.0270827207196484,15.7327719108698
0.0260045582008849,15.7358605067576
0.0249215918340579,15.7385050547049
0.0238475532022966,15.7409005011073
0.0227734047915687,15.7431706357771
0.0216992901481324,15.7453722715241
0.0206283360315406,15.7475369185011
0.0195642426755933,15.7496851175661
0.0185106493253346,15.7518317074855
0.017470964721242,15.7539882066661
0.0164483214427079,15.7561640805572
0.0154455747417409,15.7583674792579
0.0144653092536111,15.760605715398
0.0135098503622181,15.7628855893671
0.0125812775123439,15.7652136225413
0.0116814319210642,15.7675962556078
0.0108119796258769,15.7700400019981
0.00997432155784215,15.7725515798891
0.00916962704562297,15.7751380678266
0.00839332507740774,15.7778269796621
0.00762986851771155,15.7806956515782
0.00688308046908248,15.7837645097782
0.00615675186853648,15.7870580584214
0.00545488042487567,15.790604592094
0.00478163238657614,15.7944368923267
0.0041412688392643,15.7985931621479
0.00353802501784575,15.803118391127
0.00297591991278772,15.8080666613694
0.00245849441946991,15.8135053228021
0.00198854626712548,15.8195221498665
0.00156806205248636,15.8262350856763
0.00121176764769913,15.8334925686348
0.000915393636671492,15.8413583454243
0.000675907429498549,15.8499668876611
0.00052210574129798,15.857901224041
0.000391509854171881,15.8672293591862
0.000292635549925516,15.8772293591862
0.000223831351868531,15.8872293591862
0.000176424282075396,15.8972293591862
0.000144278491679074,15.9072293591862
0.000122895594212402,15.9172293591862
0.000109032497320021,15.9272293591862
0.000100422739259941,15.9372293591862
9.55185106162334e-05,15.9472293591862
9.32725741165349e-05,15.9572293591862
9.29766923654133e-05,15.9672293591862
9.41523242770176e-05,15.9772293591862
9.64794218052575e-05,15.9872293591862
9.97497412295318e-05,15.9972293591862
0.000103835429938606,16.0072293591862
0.000108667529143881,16.0172293591862
0.000114221365498856,16.0272293591862
0.000120506973284476,16.0372293591862
0.000127563285553666,16.0472293591862
0.000135455216517798,16.0572293591862
0.000144273066440347,16.0672293591862
0.000154133948825386,16.0772293591862
0.000165185179312128,16.0872293591862
0.00017760979490182,16.0972293591862
0.000191634620676403,16.1072293591862
0.00020754160987899,16.1172293591862
0.000225683608951081,16.1272293591862
0.000246506327740056,16.1372293591862
0.000270579266499951,16.1472293591862
0.000298639905343012,16.1572293591862
0.000331658025431735,16.1672293591863
0.000370931391013801,16.1772293591863
0.000418231678575707,16.1872293591863
0.000475117436344915,16.197083810195
0.000539795605897006,16.2061986839702
0.000613101269497827,16.2146080302434
0.0006961559229924,16.2223663844267
0.000790263497572905,16.2295251468703
0.00089691010257794,16.236131974511
0.00101778076829961,16.2422310641947
0.00115478398837559,16.2478634302051
0.00131008182250522,16.253067134279
0.00148612415969506,16.2578774920435
0.00168568781373366,16.2623272848307
0.00191192425336544,16.2664469699667
0.00216841596383529,16.2702648714039
0.00245924332426921,16.2738073524121
0.00278907056735404,16.2770990020542
0.00316325263912724,16.2801628344482
0.0035879757609983,16.2830204864345
0.00407044399745625,16.2856924400899
0.00461913744219477,16.2881982941981
0.00524418352366253,16.2905570993607
0.005954540305097,16.2927782013754
0.00673887936273925,16.2948223268525
0.00760686004723228,16.2967238436639
0.00857319783126626,16.2985174166842
0.00966073886918414,16.3002398418359
0.0109097293111339,16.3019383757466
0.0124385682639078,16.3037293916869
0.0146650198545522,16.3059626129743
0.0162854496770611,16.3074106322368
0.0180084788940053,16.3088586514992
0.0195876056022785,16.3101538035193
0.0209916591524068,16.3113243282149
0.0222514206369851,16.3124369849858
0.0233688631498333,16.3135352496535
0.0243273675691296,16.3146575143704
0.0250920213473987,16.3158524689102
0.0255935433509448,16.317209266784
0.0256311035861676,16.3190166754516
0.0250833170686623,16.3206601361259
0.0240827590069458,16.3223035968002
0.0229401131295602,16.3237301657999
0.0216555881858948,16.3251251799841
0.0202324738506192,16.3265572525828
0.0186800190543915,16.3280659042918
0.0173762928437679,16.3293270188901
0.0161082579308114,16.3305881334884
0.0148034866187131,16.3319663243357
0.01297204199358,16.3340759437571
0.0113355011183387,16.3361831568579
0.00982744480938816,16.338371382717
0.00831596587780401,16.3408845972172
0.0070286081518908,16.3433720039808
0.006116675517341,16.3453977670739
0.00546500586121046,16.3470215062881
0.00491821665138851,16.348526450713
0.0044219829501567,16.3500307120913
0.00394496868310825,16.3516293736979
0.0034528687837595,16.3534744328867
0.00285845250709874,16.3560507354779
0.00227335261832365,16.359108877361
0.00184287528895812,16.361848652375
0.00148843023880244,16.364574398864
0.00115642551265248,16.3677205035618
0.000839341225085134,16.3716308753906
0.000591433136122017,16.3759256331712
0.00041937666265746,16.3806802952496
0.00034446696283764,16.3854978326205
0.000364183760604569,16.389790059139
0.000462015831906422,16.3936570296055
0.0006303114609733,16.3971362091967
0.000866033797982591,16.4002757544855
0.00116933906678048,16.4031243597924
0.00154363527089732,16.4057337192518
0.00199529434755063,16.4081520258526
0.00253649601962696,16.4104342903014
0.00318894173191082,16.4126439003951
0.00398964280104711,16.4148555717561
0.00501267040125338,16.4171868973588
0.00643091206973765,16.419865521419
0.00822256937550935,16.4226929788015
0.00968370700669852,16.4246857130335
0.0113407953483948,16.4266784472655
0.0130224224593082,16.4284507125046
0.0147591704932987,16.4300519639091
0.016615159421159,16.431543765461
0.0186510810855668,16.4329635635965
0.0208998361450532,16.4343182681472
0.0234132630085383,16.4356220411752
0.0262234996695828,16.4368744247625
0.0293807289026964,16.4380818334276
0.0329292026432773,16.4392457072238
0.0369182374314009,16.4403679326793
0.041410203620211,16.4414523078132
0.0464724556984038,16.4425015257186
0.0521804572459951,16.4435179932802
0.0586297338006167,16.4445054869228
0.0659307327266062,16.4454673822589
0.0742159296996226,16.44640724811
0.083645446871313,16.447328854143
0.0944177611663815,16.4482364798225
0.106781316911497,16.4491349379289
0.121051663602505,16.4500297279346
0.137639439023163,16.4509274362256
0.157094724919661,16.4518363234355
0.180186787677407,16.4527674994514
0.207067436666053,16.4537050930305
0.23822615798925,16.4546502050741
0.274511319845165,16.455614376671
0.317163120902196,16.456617514865
0.357268685866329,16.4574749643141
0.399874818766451,16.4583324137633
0.436546347797057,16.4590552703163
0.468189284290273,16.4596929677927
0.495955512452864,16.4602902527074
0.520099059387013,16.4608743929119
0.540344652874659,16.461468444144
0.555879443271358,16.4621002653062
0.564853665087287,16.4628184170037
0.56351027035539,16.4635860742946
0.550153180016323,16.4643833398092
0.523263485226978,16.4652297530859
0.480796172728169,16.4661386249063
0.423798562107697,16.4670684064324
0.37285088574857,16.4677646623034
0.31578648997974,16.4684609181744
0.266152579276546,16.4690256024974
0.224773282405977,16.4694831465631
0.18905039601013,16.4698780798505
0.157374223590786,16.4702355053202
0.128843458871855,16.4705697599177
0.102879640257341,16.4708905605153
0.079042022306961,16.4712060067832
0.0569089256173721,16.4715249149422
0.0358954815290028,16.471861234663
0.0144423356130306,16.4722548547028
-1.45093235441232e-05,16.4725629865892
-0.0075303132954232,16.4727425632248
-0.0144078252333718,16.4729221398604
-0.0204045104817561,16.4730935480232
-0.02655487356057,16.473287419006
-0.0325810912936434,16.4735001478484
-0.0382847145275813,16.4737289593316
-0.0435532302189791,16.4739726666406
-0.0483261710886864,16.4742311349573
-0.0525743532179584,16.4745049595178
-0.0562877255531227,16.4747953034803
-0.0594680421549404,16.475103832659
-0.0622362480447881,16.4754504193113
-0.0643122255001816,16.47580057224
-0.0658862284221832,16.4761767508152
-0.0669746697723277,16.476583325368
-0.0675906522246618,16.4770254442416
-0.067743942577201,16.4775096043531
-0.0674389641914862,16.4780441710113
-0.0666707061258516,16.478641021182
-0.0654192967940896,16.4793164800927
-0.0636425552988148,16.480093978843
-0.061253932989512,16.4810121117716
-0.0580506882471953,16.482149487959
-0.0538553731470504,16.4835786696694
-0.0497592596714865,16.4849579832186
-0.0458244992169255,16.4862961676783
-0.0420844148052103,16.4875961578637
-0.0385566441864165,16.4888590608058
-0.0352502870752546,16.4900850624385
-0.0321689004280767,16.4912739023468
-0.029311977954785,16.4924251245415
-0.0266758441439628,16.4935382086319
-0.0242543104626309,16.494612634923
-0.0220392245526094,16.4956479110116
-0.0200209603128788,16.4966435745001
-0.0181888623343906,16.4975991798473
-0.0165316461406885,16.4985142737963
-0.0149563475742231,16.4994375228129
-0.0134411084970651,16.5003845401377
-0.0119901903785636,16.5013570702471
-0.0106074755714817,16.5023572921343
-0.00929663591919869,16.5033877690455
-0.00806107977821308,16.5044515452606
-0.00690389809179488,16.5055522730177
-0.00582780775543109,16.5066943842564
-0.00483509188447189,16.5078833286111
-0.00392753598589334,16.5091259126203
-0.00310635798821686,16.5104307996701
-0.0023721281941109,16.5118092773795
-0.00172467149651728,16.5132764963113
-0.00116293616925348,16.5148536021883
-0.000704275334578071,16.5164919466042
-0.000341071281131886,16.5181816018298
-5.74350584299002e-05,16.5199409977741
0.000161161592832548,16.5217928593611
0.000328507836633158,16.5237679480177
0.000458153603999663,16.5259106848939
0.000564221565826392,16.5282912516187
0.0006631588765701,16.5310369642747
0.000779516466511198,16.5344467038018
0.000919692322986971,16.5382070991441
0.00109549828744025,16.5423269268989
0.00130102355824721,16.5466426337772
0.00152048575870985,16.5509633409406
0.00176099795594312,16.5555708419039
0.00202250525970285,16.5605611131333
0.00227722839335924,16.5654500612362
0.00253778511545294,16.5704865894569
0.00275590895230868,16.5747005039461
0.00295942185271618,16.5786145683067
0.00315874727809762,16.5824110313225
0.00335937955005059,16.5861773431671
0.00356519403508354,16.5899686404472
0.00377946947665289,16.593826119655
0.00400531317160776,16.5977840402633
0.0042459086949551,16.6018733183648
0.00450472021004262,16.6061240566327
0.00478566239862746,16.6105669451171
0.00509332639257587,16.6152345246441
0.005433345293557,16.6201625405431
0.0058129850673201,16.6253910419805
0.006208361552329,16.6305349513199
0.00662460122314258,16.6356296527154
0.00706274618123569,16.6406465284553
0.00752694379819206,16.6455889484585
0.00802194610576946,16.6504595334467
0.00855341874170648,16.6552633343727
0.00912767235921635,16.6600042364145
0.0097516177849916,16.6646841021659
0.0104328230810272,16.6693029659874
0.0111950424501567,16.6739491088408
0.0120534146109928,16.6786227286111
0.013028827441434,16.6833373504309
0.0141502505848787,16.6881210342771
0.0154637509678188,16.6930394072783
0.0170603813935309,16.6982615048381
0.0192221457724639,16.7043995755796
0.020964492169578,16.7088380743376
0.0228070094230178,16.7132765730956
0.0243587833331348,16.7169962477459
0.0256515189171771,16.7202580623691
0.0267340123359752,16.7233155707976
0.0275970491650009,16.7262830914929
0.028190988758423,16.7291131372443
0.0285164991595495,16.731925631817
0.0285469819143275,16.7348702980502
0.028185638580439,16.7382463128425
0.0274066789460574,16.7417064439463
0.0262783304652079,16.7451665750501
0.0251784737408697,16.7479365072182
0.024102449628954,16.7503785698211
0.0230284516326844,16.7526719016152
0.0219540875211864,16.7548863116821
0.0208820500099071,16.7570575550886
0.0198159885098294,16.7592081268522
0.0187595814227548,16.7613539361207
0.0177162981388343,16.7635071472326
0.0166893381476991,16.7656776306618
0.0156816223736856,16.767873796977
0.0146957979700823,16.7701031250907
0.0137342520587616,16.77237250973
0.0127991202876133,16.7746885226981
0.0118922973761788,16.777057610264
0.0110154928073233,16.7794862472404
0.0101701724106862,16.7819810997382
0.00935755748532425,16.7845491427161
0.0085786629495107,16.7871978138082
0.00781173545619261,16.7900217369012
0.00706060144688454,16.7930404623138
0.00632899622585228,16.7962776852389
0.00562087258623982,16.7997607251883
0.00494036154178995,16.8035212134117
0.00429170986980516,16.8075959528614
0.00367917262100619,16.8120281504662
0.00310684298427909,16.816869415533
0.00257840545926594,16.8221833661103
0.00209685194407165,16.8280520682211
0.00166435181482579,16.8345852902647
0.00129251848213893,16.8417106251559
0.000982215667881808,16.8494176967892
0.000776810031134965,16.8559812158446
0.000621266755023443,16.8625447349001
0.000459799128695944,16.871955245997
0.00034381802129347,16.8816212298945
0.000259536282283583,16.8916212298945
0.00020099681259355,16.9016212298945
0.000160877038611098,16.9116212298945
0.000133872797425841,16.9216212298945
0.000116088879728922,16.9316212298945
0.000104741324184247,16.9416212298945
9.79023639110603e-05,16.9516212298945
9.42627412560382e-05,16.9616212298945
9.29383279591592e-05,16.9716212298945
9.33317877231535e-05,16.9816212298945
9.50409101718157e-05,16.9916212298945
9.77991894417215e-05,17.0016212298945
0.000101436635215831,17.0116212298945
0.000105853225649411,17.0216212298945
0.000111000741223596,17.0316212298945
0.0001168705501154,17.0416212298945
0.000123485802368023,17.0516212298945
0.000130896965274747,17.0616212298945
0.000139179968202214,17.0716212298945
0.000148436510027098,17.0816212298945
0.000158796335264662,17.0916212298945
0.000170421517242435,17.1016212298945
0.000183513020482057,17.1116212298945
0.000198320083728326,17.1216212298945
0.000215153316589344,17.1316212298945
0.000234402903944306,17.1416212298945
0.000256564068636898,17.1516212298945
0.000282273130573137,17.1616212298945
0.000312359426277522,17.1716212298945
0.000347921572192033,17.1816212298945
0.000390442105475281,17.1916212298945
0.000441964431252101,17.2016212298945
0.000502120091927564,17.2111507431823
0.000570403260147451,17.2199532796764
0.000647778406984058,17.2280743119257
0.000735445894200345,17.2355670792998
0.000834786736968933,17.2424813252964
0.000947370210147511,17.2488631723664
0.00107497466378175,17.2547554080349
0.00121961422285079,17.2601977439082
0.00138357137095646,17.2652270270182
0.00156943184883622,17.2698774502062
0.00178012883469741,17.2741807635393
0.0020189922574868,17.27816647979
0.00228981139951278,17.2818620523022
0.00259690754047481,17.2852930526955
0.0029452287407731,17.2884833639083
0.00334047078377705,17.2914553791909
0.00378923353534833,17.2942302058086
0.00429923614577298,17.2968279069058
0.00487961795604091,17.2992677977053
0.00554137644799919,17.3015688233204
0.00628255341271458,17.3037092899506
0.00710141794294242,17.3056877399872
0.0080095647669647,17.3075385462978
0.00902456237548261,17.3092966564372
0.0101750048200969,17.3110018612888
0.0115153382162911,17.3127116103428
0.0132526735463107,17.3146196166306
0.0151231462488865,17.316415189095
0.0167476350718529,17.3178374637982
0.0184579924393322,17.3192597385014
0.0199849788308003,17.3205126961902
0.0213481477352459,17.3216622026677
0.0225699108815374,17.3227671345888
0.0236464442190818,17.3238679891165
0.0245566301107899,17.3250043228287
0.0252588882125036,17.3262313440307
0.0256662769738449,17.3276627650241
0.0254465495541223,17.3297992423313
0.0247544738984446,17.3313110302988
0.0237170651392013,17.3328228182662
0.0225304824730957,17.3342234406362
0.0211991591721683,17.3356252936311
0.0197320541833866,17.33707874219
0.0181381380674444,17.3386211010722
0.0171344116802094,17.3395942557142
0.0161585912918476,17.3405674103561
0.0141713895722161,17.3426998238997
0.0124096798864883,17.3448039960813
0.0108246721372892,17.3469251299481
0.00933739209472667,17.3491769448655
0.00790449598899186,17.3516702905818
0.00697472057347415,17.3535159004835
0.00614518424509624,17.3553615103851
0.00549252651050521,17.3569806109513
0.00494254555901457,17.3584875230017
0.00444471026104154,17.3599897813452
0.00396748250169702,17.3615813627045
0.00347723751101766,17.3634089757536
0.00289298132785828,17.3659198937986
0.00230338127374347,17.3689672029129
0.00186697894333491,17.3717125838263
0.00151029027325835,17.374422188972
0.00117784237432328,17.3775262971864
0.000856610990843946,17.3814161238964
0.000604389209937707,17.3856863587755
0.000427420576326346,17.3904103949734
0.000346063761494773,17.3952639446468
0.000360834996031018,17.3995819218884
0.000454371061456354,17.4034735852639
0.00061866938669444,17.4069742141651
0.00085047481461989,17.4101323161055
0.00114971439694574,17.4129961570446
0.00151933108717963,17.4156159105386
0.00196577307857839,17.4180424925142
0.00250061551848152,17.4203294778805
0.00314326585078843,17.4225349404608
0.00392956696579368,17.4247353376978
0.00493392903467887,17.4270535218248
0.00631685913395939,17.4296989497245
0.00808357307517406,17.432521847227
0.00954965199557136,17.4345442717387
0.011214033119205,17.4365666962504
0.0128951287387364,17.4383562219864
0.0146256121842342,17.4399679578573
0.0164694745370281,17.4414656390621
0.018491090766902,17.4428908610035
0.0207218640469105,17.4442497903714
0.0232146061404453,17.4455575865804
0.0260007527923152,17.4468135488338
0.0291308086569257,17.4480244385127
0.0326473040178153,17.4491912177072
0.0366012429482395,17.4503164821143
0.0410534570284963,17.4514036902905
0.0460705247700176,17.4524555101897
0.0517267113256361,17.4534742831103
0.0581167884713798,17.4544638600695
0.0653496052812543,17.4554275769672
0.0735557708229014,17.456368984352
0.0828925105725512,17.4572917814842
0.093555957191948,17.458200300353
0.105789946332428,17.4590992720522
0.119904131151143,17.459994129768
0.136300741049775,17.4608913620758
0.155516796071275,17.461799054223
0.178301508807398,17.4627280668092
0.204885611388197,17.4636654420499
0.235692921867212,17.4646096387771
0.271552371436584,17.4655718237535
0.313660891142911,17.4665709270792
0.364230099969987,17.4676495630132
0.408110117890726,17.4685265443527
0.4437343437329,17.4692296223189
0.474491439398451,17.4698558495711
0.501476027883143,17.470448287063
0.524817948160572,17.471032585807
0.544139101429108,17.4716320680843
0.558471533275463,17.4722771231924
0.565557353285796,17.473025787279
0.561540450388584,17.4737984113701
0.545218627962013,17.4746054053557
0.514918299967454,17.4754655599412
0.469345950683966,17.4763758059658
0.409176515493696,17.4773095830754
0.359833142618147,17.477961347761
0.305398427376745,17.4786131124465
0.257788070426029,17.4791503169387
0.217674754443164,17.4795930274073
0.182810032344903,17.4799794054181
0.151781693969339,17.4803315666827
0.123772502083614,17.4806626250776
0.0982405636854583,17.4809818106526
0.0747576036117095,17.481297166293
0.0528903348548948,17.4816179948192
0.0319779270340163,17.4819603661643
0.00989019751425842,17.4823790250754
-0.000509025388126109,17.4826060082531
-0.00796172531209196,17.4827850334603
-0.0147817303832788,17.4829640586675
-0.0207818375030785,17.483136540085
-0.0269321366529487,17.483331679457
-0.0329431420684052,17.4835454587229
-0.0386225643079288,17.4837752082502
-0.0438619219574347,17.4840198192261
-0.0486031604322939,17.4842792090302
-0.0528185610083519,17.4845540113207
-0.0564989756476724,17.484845421323
-0.0596467139594102,17.4851551352011
-0.06242542193579,17.485509795035
-0.0644602809641514,17.4858620492751
-0.0659938931322911,17.4862405555687
-0.0670430970229167,17.486649837308
-0.0676207924489183,17.4870951401341
-0.0677363910532208,17.487583091693
-0.0673937676810049,17.4881222420462
-0.0665868327635322,17.4887248689732
-0.0652943052129098,17.4894076813383
-0.0634714782798086,17.4901949685801
-0.0610262473202615,17.491127232491
-0.0577382456414657,17.4922891611171
-0.0535481350910277,17.4937137896509
-0.0494622902254254,17.4950899174165
-0.0455410678902007,17.4964252201991
-0.0418162199958441,17.4977224540564
-0.0383045925677761,17.4989826357498
-0.0350148039624136,17.5002059065474
-0.0319500723139829,17.5013919854724
-0.0291096314774399,17.5025404086647
-0.0264895999843389,17.5036506543606
-0.0240836265204603,17.5047222044657
-0.0218834337718082,17.5057545690223
-0.0198793049731414,17.5067472875496
-0.0180605251350882,17.507699914941
-0.0164157779462193,17.5086119961646
-0.0148446315525561,17.5095369398746
-0.0133339134382247,17.5104857373918
-0.0118878027556579,17.511460194363
-0.0105101687392024,17.5124625146313
-0.00920466592486853,17.51349529273
-0.00797468154978745,17.51456161223
-0.00682328143050792,17.5156651753813
-0.0057531531229072,17.5168104788098
-0.00476654593943591,17.5180030574485
-0.00386520675903495,17.5192498329842
-0.00305030949082241,17.5205596287919
-0.00232237406478279,17.5219439629251
-0.00168116689487159,17.5234183334408
-0.0011255662420638,17.5250044427271
-0.000674538164613214,17.5266458738744
-0.000317698263532115,17.5283400073119
-3.93253745069684e-05,17.5301053488842
0.000175041554814074,17.531965096046
0.00033915474886796,17.5339507749368
0.000466572727555496,17.5361081667804
0.000571510007435125,17.5385101880366
0.000670717467113837,17.541290899563
0.00078994966752576,17.5447741996472
0.000931989719069001,17.548545776514
0.00111150300365025,17.5527095959938
0.00131814178281084,17.5570189247739
0.00153885492880577,17.561349655496
0.00178186260133797,17.5660003604694
0.00204233169292378,17.5709717572539
0.00229697830819204,17.5758623373352
0.00255237681282331,17.5807996135756
0.00276900060413795,17.584984412496
0.0029720186579276,17.5888873013366
0.00317128732022055,17.5926797891304
0.00337213993473692,17.5964462485352
0.00357839334928721,17.6002405924292
0.00379330657400411,17.604103449633
0.00401998334869815,17.6080687494448
0.00426162020210995,17.6121673114353
0.00452170430300683,17.6164292358614
0.00480418526216609,17.6208852911276
0.00511370695713314,17.6255681777234
0.00545598507016599,17.630513886002
0.00583841602885822,17.6357627721742
0.0062344731710092,17.6408956970828
0.00665225369222813,17.6459882311952
0.00709189431884975,17.6509995318321
0.00755794779061895,17.6559373961628
0.00805512084856274,17.6608034412069
0.00858916215370249,17.6656030920705
0.00916641079195969,17.6703400110112
0.00979381973900092,17.6750159488213
0.0104790036827982,17.6796308456984
0.0112470290873518,17.6842795365842
0.012112192942894,17.6889551502628
0.013095984598259,17.6936731334551
0.0142280774995998,17.6984628859489
0.0155562232957329,17.7033938634655
0.0171766100766941,17.7086469821537
0.019401803578378,17.7149055746097
0.0211116281217515,17.7192308641055
0.0229112018371466,17.7235561536013
0.0244419595981115,17.7272309776964
0.0257213225774582,17.7304747328896
0.0267916995370379,17.7335253678653
0.0276386855595903,17.7364812593379
0.0282172180529854,17.7393068214551
0.0285267281451561,17.7421223510692
0.0285383022770389,17.7450810805739
0.0281471891878858,17.7485016267373
0.0273641999111303,17.7518886581442
0.0262495602074069,17.7552756895511
0.0251532277827178,17.7580275168674
0.0240776008559095,17.7604642967904
0.0230035993661706,17.7627552057299
0.0219292519653046,17.7649682965069
0.0208573104840576,17.7671388507232
0.0197914314629303,17.769289158572
0.018735289822602,17.7714350191643
0.0176923493069512,17.7735885304735
0.0166658027247091,17.7757595220437
0.0156585647314707,17.7779563775914
0.0146732762666965,17.7801865592378
0.0137123182981314,17.7824569522047
0.0127778211995188,17.7847741223942
0.0118716741479661,17.7871445153769
0.0109955827183363,17.7895746095976
0.0101510062135284,17.792071075786
0.00933916081331896,17.794640898749
0.00856053212222897,17.7972933858018
0.00779393570456757,17.8001216234341
0.00704321776628416,17.8031451798654
0.00631211897067283,17.8063878280305
0.00560459630916415,17.8098769819865
0.0049247845514994,17.8136443822293
0.00427693221050966,17.8177269645681
0.00366529289304785,17.8221681038979
0.00309395292195363,17.827019642984
0.0025665835974304,17.832345546237
0.00208615806500117,17.838228413416
0.00165482749630142,17.8447787821309
0.00128452175344548,17.8519166767135
0.000975588449473461,17.8596388228502
0.00077164670819864,17.8661987939767
0.000617563813610504,17.8727587651033
0.000456932124599274,17.8821908034303
0.000341071635226912,17.8919267392518
0.000257624266460242,17.9019267392518
0.000199677451019664,17.9119267392518
0.00015998101481559,17.9219267392518
0.000133275972403833,17.9319267392518
0.000115701360147433,17.9419267392518
0.000104500022503682,17.9519267392518
9.7764103979865e-05,17.9619267392518
9.41983046552297e-05,17.9719267392518
9.2927968429623e-05,17.9819267392518
9.3362168867302e-05,17.9919267392518
9.51031073481622e-05,18.0019267392518
9.78873838053515e-05,18.0119267392518
0.000101547238593272,18.0219267392518
0.000105984282738173,18.0319267392518
0.000111151522930452,18.0419267392518
0.000117041286004258,18.0519267392518
0.000123677517305576,18.0619267392518
0.0001311113959838,18.0719267392518
0.000139419543839463,18.0819267392518
0.000148704388219015,18.0919267392518
0.000159096491583552,18.1019267392518
0.000170758892349259,18.1119267392518
0.000183893735879735,18.1219267392519
0.000198751745345269,18.1319267392519
0.000215645436759466,18.1419267392519
0.000234967489037879,18.1519267392519
0.000257216445307317,18.1619267392519
0.000283033124604333,18.1719267392519
0.000313253075499195,18.1819267392519
0.00034898366935119,18.1919267392519
0.000391720067239093,18.2019267392519
0.000443524352529742,18.2119267392519
0.000503895044326611,18.2214358736796
0.000572415180009655,18.2302188237364
0.000650057911607318,18.2383217777491
0.000738028717518094,18.2457978937964
0.000837713652896476,18.2526968115652
0.000950687465498172,18.2590645573874
0.00107873464068373,18.2649438304012
0.00122387625496647,18.2703742602826
0.00138840269932054,18.2753926177869
0.00157490866518552,18.2800330253314
0.00178633761697894,18.284327168411
0.00202603128893553,18.2883045005673
0.00229779259204277,18.291992420623
0.00260595880420436,18.2954164508126
0.00295549684166908,18.2986004302297
0.003352125192654,18.3015667136815
0.00380247146961571,18.3043363760714
0.00431428951231153,18.3069294556075
0.00489676335748153,18.3093652516313
0.00556095004610456,18.311662705714
0.00630416417666597,18.3137982194376
0.00712532400968279,18.3157726630779
0.00803616139235202,18.3176204200381
0.00905445680793848,18.319376485022
0.0102092468487226,18.3210809054268
0.0115561363454174,18.3227919911699
0.013309774365816,18.3247098609812
0.0151581563542726,18.3264789892664
0.0171967153738928,18.3282481175517
0.018915807116355,18.3296668310097
0.0203943972454339,18.3308846335667
0.0217159120737737,18.3320165060521
0.0228968900450695,18.3331164078599
0.0239282141143822,18.3342231440423
0.024783744517141,18.3353787350696
0.0254131208184295,18.3366482262604
0.0257012475420579,18.33818671767
0.025380909153518,18.3400182560588
0.0244407049866293,18.3418497944476
0.0233365523879066,18.3433281424498
0.0220984251439089,18.3447239690474
0.0207199676589091,18.3461390075097
0.0192092844355,18.3476182907853
0.0175738230615754,18.3491994396302
0.0162039357737959,18.3505548858497
0.0149139407710257,18.3519103320692
0.0130700411071472,18.3540213133684
0.0114239623522963,18.3561270637568
0.00991097619829854,18.3583069486215
0.00840693723807042,18.3607864320821
0.00710835661205044,18.3632705677026
0.00635401715713689,18.3649096067139
0.00567319145999185,18.3665486457252
0.00509997553494699,18.3680741610522
0.00459021330862943,18.3695684153086
0.00410983115239068,18.3711220333754
0.00362802904084335,18.3728559681943
0.00308950214686509,18.3750606756538
0.00247419786408023,18.3780508454226
0.00199359974295509,18.380893840753
0.00162014413546914,18.3835636970711
0.00128338917571493,18.3864948760066
0.000952307301509269,18.3901609365164
0.000677606931437901,18.3943008412586
0.000475335047657701,18.3988675843346
0.0003588427031901,18.403911236342
0.000347455178080573,18.4083628061726
0.000418462250284746,18.4123802748011
0.000562020759122216,18.4159928452892
0.000773685653340007,18.4192487593025
0.0010525303317975,18.4221960351418
0.00140060015452932,18.4248843623402
0.00182309433380353,18.4273636976666
0.00232997352315466,18.4296874268192
0.00293809828979519,18.4319123177049
0.00367574312964083,18.4341033564212
0.00460241290508714,18.4363673936493
0.00584612145484012,18.4388845993797
0.00750485287046554,18.4416823805983
0.00901780702688938,18.4438711389639
0.0107484545484098,18.4460598973294
0.0124329251107015,18.447919755666
0.0141493277994488,18.4495779642261
0.0159522091530225,18.4510984121334
0.0179260540455855,18.4525451152111
0.0200962801430174,18.4539208429636
0.0225156838271825,18.455242680644
0.0252191248824973,18.4565123714323
0.0282546538101167,18.4577360764723
0.031660280238569,18.4589136683868
0.0354921812767646,18.4600501143829
0.0398059557510357,18.4611476925632
0.0446614974455648,18.4622081705239
0.0501373084757127,18.4632354858327
0.0563210078882963,18.4642327313185
0.0633163099307366,18.4652031765137
0.0712454172364231,18.4661500819279
0.0802604907259135,18.467077459782
0.0905458956505241,18.4679894051361
0.102330783973789,18.4688904744619
0.115904941655967,18.4697858818861
0.131641253053116,18.4706817276406
0.150036123087713,18.4715856686523
0.171771146660627,18.4725076543255
0.197331308190453,18.4734446106387
0.226928141012152,18.4743860512813
0.261328331193863,18.4753419842982
0.301598030060535,18.4763284445041
0.34954405336301,18.47737850883
0.38585769384811,18.4781180894864
0.42329430068559,18.4788576701429
0.456558759521802,18.4795191527586
0.485740453850026,18.4801280565439
0.511279791738141,18.4807144875832
0.533082035129775,18.4813019167124
0.550564490286546,18.4819152074657
0.56239121569708,18.4825917671281
0.565382684151184,18.4833536628686
0.556769252056298,18.4841371128096
0.535284412586236,18.4849626101827
0.498999770727285,18.4858474429438
0.447795524531746,18.4867664807142
0.383335311745191,18.487692284228
0.336762434306036,18.4882763617311
0.28655488926252,18.4888604392341
0.242282370170337,18.4893540535557
0.204346100918487,18.4897722886431
0.171016040549701,18.490144137334
0.141172781938395,18.4904873015939
0.114128179625415,18.4908130358335
0.0893964163289839,18.4911298755595
0.0665622216846227,18.4914459887498
0.0451489971012305,18.4917721400452
0.0242540016671062,18.4921309442335
0.00759306877740536,18.4924594090121
-0.00156726646859378,18.4926627356766
-0.00988232268189253,18.492866062341
-0.0164900710045475,18.4930438257825
-0.0225788892302974,18.4932236709696
-0.0287154109964045,18.4934246713645
-0.0346447783057165,18.4936433178872
-0.0402039259977928,18.4938774767279
-0.0453019154590875,18.4941263843342
-0.049891182364748,18.4943901912326
-0.0539503980786757,18.4946697063118
-0.0574743574543167,18.4949662744223
-0.0604653536380976,18.4952817362928
-0.0630589635637139,18.4956403265275
-0.064949039109888,18.4959997737364
-0.0663425553460879,18.4963866207195
-0.0672556074426463,18.4968056252332
-0.0677002810209571,18.4972623870787
-0.0676846400396032,18.4977640181945
-0.0672104926097518,18.4983197591962
-0.0662676205781354,18.4989433883461
-0.0648294122808383,18.4996531185878
-0.0628411462390528,18.5004766485543
-0.0601875102239943,18.5014624586612
-0.0565658506502184,18.5027236275469
-0.0523985059500053,18.5041327111537
-0.0483539898547885,18.5054970869179
-0.0444850405049554,18.506821648756
-0.0408182219996759,18.5081085443164
-0.0373676719580768,18.5093584857535
-0.0341403148956593,18.5105714647816
-0.031138154765442,18.5117471327215
-0.0283594867661887,18.512885001038
-0.0257996847513815,18.513984545111
-0.0234518108181998,18.5150452536274
-0.0213071410594398,18.5160666456123
-0.0193556389832851,18.5170482669177
-0.0175863847222232,18.5179896727056
-0.0159747807145642,18.5188980520126
-0.0144198569141582,18.5198294931174
-0.0129266415804952,18.5207851979894
-0.0114991233603262,18.5217671387788
-0.010141117877761,18.5227776187182
-0.0088562108927205,18.5238193568884
-0.00764770613888798,18.5248955936251
-0.00651857046564113,18.5260102312444
-0.00547137619196147,18.5271680259619
-0.0045082400940843,18.5283748563298
-0.00363075773439007,18.5296381100773
-0.00283993056180233,18.5309672618722
-0.00213608081854189,18.5323747747377
-0.00151874448619493,18.5338775853821
-0.000988686195163936,18.5354922642084
-0.000565815354858861,18.5371464311437
-0.000232464301937551,18.5388585188889
2.65629839507793e-05,18.5406476747703
0.000225488566177942,18.5425390435132
0.000377949527391963,18.5445673592318
0.000497578707318204,18.5467842150601
0.000599030322871257,18.5492745627269
0.000700496435385259,18.5522037749608
0.000831017696336976,18.5559457443634
0.000981567988477589,18.5597831270526
0.0011764968712168,18.5641372969548
0.0013876611473595,18.5684351657295
0.00161396767536723,18.5728259898426
0.00186919456212761,18.5776985275741
0.00212650828028765,18.5826164450634
0.00238191389328717,18.5875343016313
0.00261979736015908,18.5921341140941
0.00283067276118977,18.5962048245379
0.00303182974126667,18.6000625718835
0.00323110677778806,18.603840334122
0.00343321196471188,18.6076102958005
0.00364173063628844,18.6114213106643
0.00385984400437465,18.6153115292227
0.00409065781470023,18.6193135920277
0.00433743888967517,18.6234579440313
0.00460379332908202,18.6277747498552
0.00489384956126507,18.6322952188767
0.00521252369368284,18.6370528920135
0.00556595782695165,18.6420849755443
0.00595477935642544,18.6473345590533
0.00635633162920103,18.6524471094606
0.00678056674763351,18.6575194129069
0.00722754144467082,18.6625079210742
0.00770232653702612,18.667424204606
0.0082098291632978,18.6722699206238
0.00875603267167547,18.6770506213148
0.00934744554340218,18.6817693109631
0.00999120862221314,18.6864271559629
0.0106991686192308,18.6910486556803
0.0114944171143555,18.6957050060493
0.0123924978088546,18.7003913243049
0.0134169227426473,18.7051264771789
0.0146013104893008,18.7099482638261
0.0160027820607969,18.7149475043539
0.0177486549015249,18.7203772233781
0.0201679176168981,18.7269141659314
0.0217656237701778,18.7308509620075
0.0234146854626767,18.7347877580837
0.0248543425911932,18.7382812549302
0.0260679018216927,18.7414463470734
0.027075883084537,18.7444695583691
0.0278407137309417,18.7473729581128
0.0283391699548388,18.7501820236927
0.0285638834775064,18.7530214634257
0.0284718057795281,18.7560694844993
0.0278987045349273,18.7597949257693
0.0270787088426293,18.7628802452548
0.0260008484758153,18.7659655647404
0.024918010091567,18.7686087561638
0.0238439851114094,18.7710036230586
0.022769834048338,18.7732734562157
0.021695724125957,18.7754749252221
0.020624786647934,18.7776394876412
0.0195607222853169,18.7797876590816
0.0185071696768317,18.7819342642404
0.0174675366868275,18.7840908129964
0.0164449549659764,18.7862667653999
0.0154422788438006,18.7884702681025
0.0144620920917456,18.7907086315174
0.0135067192427147,18.7929886547848
0.0125782389342149,18.7953168587055
0.0116784917356813,18.7976996839255
0.0108091429120052,18.8001436444169
0.00997159255745836,18.8026554592355
0.00916700930224925,18.8052422083584
0.00839074441308653,18.8079316904606
0.00762733760185284,18.810800995605
0.00688061161402315,18.8138705634905
0.00615435814465873,18.8171649098547
0.00545257553655987,18.8207123430874
0.00477943049182821,18.8245456611979
0.00413918425035726,18.8287030872918
0.00353607168868673,18.8332296367697
0.00297411067460627,18.8381794277195
0.00245683997608688,18.8436198650478
0.00198705458035857,18.8496388067531
0.00156673861159498,18.8563543144549
0.00121065928578527,18.8636136973201
0.000914478032029563,18.8714817574017
0.000675207122897408,18.8800931062297
0.000521154784373124,18.8880532892642
0.000390904212583678,18.8973760153556
0.00029221502611252,18.9073760153556
0.000223540675796818,18.9173760153556
0.000176225793113344,18.9273760153556
0.000144145104804662,18.9373760153556
0.000122807788318731,18.9473760153556
0.00010897651545471,18.9573760153556
0.000100389103893193,18.9673760153556
9.55007739816131e-05,18.9773760153556
9.32663638053904e-05,18.9873760153557
9.29790452929203e-05,18.9973760153557
9.41612445480799e-05,19.0073760153557
9.6493589726551e-05,19.0173760153557
9.97683185469371e-05,19.0273760153557
0.00010385792709282,19.0373760153557
0.00010869371463373,19.0473760153557
0.00011425120531759,19.0573760153557
0.00012054059250623,19.0673760153557
0.000127600946599695,19.0773760153557
0.000135497310433729,19.0873760153557
0.000144320115003491,19.0973760153557
0.000154186616581624,19.1073760153557
0.000165244295805845,19.1173760153557
0.000177676388541598,19.1273760153557
0.000191709967051832,19.1373760153557
0.000207627299148657,19.1473760153557
0.000225781639503843,19.1573760153557
0.000246619237235106,19.1673760153557
0.000270710317526588,19.1773760153557
0.000298793352899032,19.1873760153557
0.000331839510075478,19.1973760153557
0.000371148530279799,19.2073760153557
0.000418494980498209,19.2173760153557
0.000475416992309129,19.2272266928724
0.000540135142499013,19.236337939296
0.000613485922195755,19.2447439370903
0.000696591713906977,19.2524992065787
0.000790757308807635,19.2596551288223
0.000897469736903645,19.2662593428928
0.00101841506333399,19.2723560292465
0.0011555029523359,19.2779861870553
0.00131089679945725,19.2831878639527
0.0014870479981451,19.2879963625168
0.0016867350937054,19.2924444520778
0.00191311152345764,19.2965625789741
0.00216976206010677,19.3003790570315
0.00246076972826545,19.3039202402781
0.00279080187931363,19.3072107094941
0.00316521718953781,19.3102734714988
0.00359020638324243,19.3131301568384
0.00407297911048012,19.315801242501
0.00462202256379468,19.3183063236601
0.0052474734626795,19.3206644491908
0.00595817040626271,19.3228845980932
0.00674288852704744,19.3249279427491
0.00761130719533461,19.3268288495263
0.00857817003231121,19.3286219821026
0.00966637799136755,19.3303441611319
0.0109163052157108,19.3320427311349
0.0124471318246488,19.3338347692169
0.0146799163833515,19.3360725157254
0.0162997857366718,19.3375190334711
0.0180216515314469,19.3389655512167
0.0195991300031727,19.3402593116555
0.0210019846146888,19.3414291671348
0.0222606647481951,19.342541561009
0.0233769603939601,19.3436398603362
0.0243341248646228,19.3447624757795
0.025097071541944,19.3459582538123
0.0255960955616447,19.3473169187458
0.0256279330855064,19.3491311195173
0.0250771239682264,19.3507690328929
0.024077480729408,19.3524069462685
0.0229346194151826,19.3538325308185
0.0216495077439346,19.3552275416181
0.020225801471115,19.356659868965
0.018672787884457,19.3581689445436
0.017381321645249,19.3594181820442
0.0161246575353906,19.3606674195448
0.0148384170391049,19.3620242458774
0.013003059349195,19.3641342744566
0.0113635214425736,19.3662409996695
0.00985396071675105,19.3684264889831
0.00834505036325084,19.3709285696165
0.00705411624852719,19.3734149052373
0.00630958499113983,19.3750434796725
0.00563722820298015,19.3766720541077
0.00506896053134643,19.3781930434295
0.00456174348978363,19.3796882347011
0.00408219178783962,19.3812483712818
0.00359912901091115,19.3829985315443
0.00305359208063559,19.3852518273478
0.00244298415785725,19.3882518901346
0.00197209451906884,19.391067128743
0.00160229253637801,19.3937369557059
0.00126652967831786,19.396691619002
0.000935149800862371,19.4004145588492
0.000664299556160724,19.4045772105429
0.000466343183158709,19.4091706322105
0.000356078240834379,19.4141811399258
0.000349227138799444,19.4186099114488
0.000424118912017224,19.422606230153
0.00057123010517174,19.4261996263677
0.000786327767873806,19.4294386953384
0.00106861336761441,19.4323713256506
0.00142034984157098,19.4350479288071
0.00184688259649594,19.4375180704262
0.00235848107240046,19.4398354183176
0.00297249493517316,19.4420571329677
0.00371800002237564,19.4442488220647
0.00465685773623383,19.4465203606408
0.00592250077431076,19.4490574872554
0.00759927206739719,19.4518599761667
0.00910201350635406,19.4540170791364
0.0108182429163824,19.4561741821061
0.0125012193001336,19.4580223111679
0.014218769457272,19.459672728669
0.0160267507920183,19.4611891675999
0.0180075822365169,19.4626328234533
0.0201862601079296,19.4640059402735
0.0226167264197268,19.4653259986727
0.0253320393899474,19.4665936382797
0.0283811856220665,19.4678154473912
0.0318022553645556,19.4689912700945
0.0356516452188858,19.4701260553402
0.0399852958277409,19.4712221040425
0.0448638567938165,19.472281273027
0.0503654845120422,19.4733073206672
0.0565787181543494,19.4743034275779
0.0636079876706264,19.4752728714529
0.0715767195763626,19.4762189590282
0.080637713403374,19.4771456466471
0.0909770589944931,19.4780570704494
0.102825947155949,19.4789578087014
0.11647693998345,19.4798531059676
0.132307023956241,19.4807491174805
0.150818175205353,19.4816535556778
0.17270131266242,19.4825764967564
0.198407012425523,19.4835134793196
0.228175636195564,19.4844552722661
0.262782301364055,19.4854120368966
0.3033101593987,19.4864001782514
0.351615952138628,19.4874539479667
0.387748399640176,19.488188021142
0.42492882705639,19.4889220943174
0.457981108290577,19.4895801992329
0.486990426316528,19.4901874874206
0.512364115654345,19.4907734693067
0.533985146824603,19.4913614968992
0.551245578520886,19.4919767063626
0.562758298932079,19.492657560389
0.565254502157832,19.4934199554908
0.556103157369884,19.494204848454
0.534009058222238,19.4950326357373
0.497015390231133,19.4959204176452
0.445141061924176,19.4968407452128
0.380326626990331,19.4977639334543
0.334066563308248,19.4983409546492
0.284317190845028,19.4989179758441
0.240414530183371,19.4994069037986
0.202727233294849,19.4998224310351
0.169577379110472,19.500192642472
0.139875364041403,19.5005347919898
0.112946515372106,19.5008599422882
0.0883107562529646,19.5011765639822
0.0655533447286111,19.5014928645336
0.0441898662274724,19.5018198516971
0.0232743293508966,19.5021812927316
0.00723312382809716,19.5024992912057
-0.00178357580455581,19.5027000197413
-0.00997731001648516,19.5029007482768
-0.0165676310112807,19.5030782534279
-0.0226592064723807,19.503258404343
-0.0287945219568578,19.5034596567207
-0.034719914677101,19.5036785156764
-0.0402735146007442,19.5039128693795
-0.0453651043782282,19.5041619686728
-0.0499475523111174,19.5044259739494
-0.0539997940315739,19.5047057016557
-0.0575167875761017,19.5050025032248
-0.0605007670943636,19.505318225841
-0.0630819702990557,19.505676305342
-0.0649665844094067,19.5060360195755
-0.0663548657516671,19.5064231864188
-0.0672628280553135,19.5068425644907
-0.067702523243806,19.5072997673805
-0.0676819612739657,19.5078019261183
-0.0672028677628603,19.5083583087411
-0.0662548578328283,19.5089827531916
-0.0648111055631345,19.5096935344452
-0.0628164721218436,19.5105184934043
-0.0601546360316823,19.5115064577661
-0.0565190254800451,19.5127718582998
-0.0523526853867739,19.5141803653809
-0.0483099041193705,19.5155442774896
-0.0444430883526768,19.5168684120357
-0.0407786148000074,19.5181548943963
-0.0373305205408026,19.5194044255776
-0.034105665722596,19.5206169918545
-0.0311060075553159,19.5217922421219
-0.0283298048723795,19.5229296870009
-0.0257724026578476,19.5240288018216
-0.0234268403632789,19.5250890755608
-0.0212843769614813,19.5261100275914
-0.0193349638575185,19.5270912039866
-0.0175676736017907,19.5280321598721
-0.0159566908524316,19.5289407945687
-0.0144024485092574,19.5298725025312
-0.0129099609762181,19.5308284951347
-0.0114832152163701,19.5318107479165
-0.0101260245148152,19.5328215683607
-0.00884197171268535,19.5338636808464
-0.00763435701464064,19.5349403323906
-0.00650614309851109,19.5360554338546
-0.0054598974362104,19.5372137525707
-0.00449773123784831,19.5384211818535
-0.00362123371560279,19.539685129531
-0.00283139907822408,19.5410150984941
-0.00212854125634249,19.542423592964
-0.00151218650958069,19.5439276128659
-0.000983423840128789,19.5455426477786
-0.000561637301138189,19.5471973692901
-0.00022919495986336,19.548910199956
2.90866352818371e-05,19.5507003410931
0.000227420562439883,19.5525930196349
0.000379440204253871,19.5546231076
0.000498782814130641,19.5568424517963
0.00060012335700692,19.5593365421858
0.000701722165100998,19.5622722152849
0.000832311656889302,19.5660133394468
0.000983207557903037,19.5698544282075
0.00117866195962274,19.5742152788806
0.00138997905748171,19.5785131591919
0.00161648809036955,19.5829065378114
0.00187218980968718,19.5877879463014
0.002129428441285,19.5927047374767
0.00238489087056247,19.5976241190115
0.0026222713687663,19.6022142240539
0.00283296759441745,19.6062813112265
0.00303406883343865,19.6101376052194
0.00323335421838058,19.6139149436892
0.00343551219169485,19.6176851218145
0.0036441207331998,19.6214968259713
0.00386235868862583,19.6253881221491
0.004093332378195,19.6293916100145
0.00434031153278903,19.6335377233592
0.00460690700729741,19.6378566315716
0.00489725434055521,19.64237956279
0.00521628052720607,19.6471400917183
0.00557014473528485,19.6521754715296
0.00595907888583244,19.6574233119549
0.00636087872428456,19.6625356435504
0.00678534249440889,19.6676070108106
0.00723259898814738,19.6725947274054
0.00770771365905318,19.6775102072628
0.00821560804616246,19.6823551862143
0.00876227145646814,19.6871351921788
0.00935421930076135,19.6918532111677
0.00999859933819894,19.696510387347
0.0107074481498434,19.7011323048752
0.0115037260447302,19.7057889206421
0.0124030609677407,19.7104756637057
0.0134290401946661,19.7152115068335
0.014615446914102,19.7200346088136
0.0160198053413599,19.7250367130649
0.0177708707137565,19.7304741771577
0.0201903710517557,19.7370034554394
0.0217852980360612,19.7409307519432
0.0234305622517332,19.744858048447
0.0248675356266338,19.7483465653097
0.0260789872994235,19.7515094146425
0.0270849026080418,19.7545319395388
0.0278470299735555,19.7574338111962
0.0283428164818737,19.7602425234681
0.0285646531243526,19.7630830065225
0.0284689450830558,19.7661345299101
0.027888732777475,19.7698729513372
0.0270673677028834,19.7729491099818
0.0259903422299145,19.7760252686264
0.0249078588436112,19.7786646493236
0.0238338713517606,19.7810578820242
0.0227597127547327,19.783326863768
0.0216856163925569,19.7855278619265
0.0206147262867623,19.7876921858356
0.0195507443117091,19.7898402798271
0.0184973073791989,19.7919869288501
0.0174578208672974,19.794143618683
0.0164354137946914,19.7963197941133
0.0154329378763007,19.7985235920481
0.01445297443521,19.8007623166378
0.0134978455946204,19.80304276349
0.0125696277008989,19.8053714517949
0.011670159489802,19.8077548220879
0.010801104039683,19.8101993898758
0.00996385906883641,19.8127118767249
0.00915959123077523,19.8152993666714
0.00838343161569173,19.8179904661066
0.00762016600041474,19.8208615671784
0.0068736161178077,19.8239331478739
0.00614757580845226,19.8272297567867
0.00544604521053113,19.8307797414675
0.00477319230762857,19.8346159466849
0.00413327876940715,19.8387766525302
0.00353053844403665,19.8433069477625
0.00296898600382612,19.8482610526831
0.00245215416937825,19.8537065284726
0.00198283015207741,19.8597314705606
0.0015629910843807,19.8664542770718
0.00120752104488353,19.8737190530039
0.00091188583930036,19.8815935946697
0.0006732247929922,19.8902129111959
0.00051844240720035,19.8982478856391
0.000389176407900728,19.9075551122212
0.000291015804165502,19.9175551122212
0.00022271212974631,19.9275551122212
0.000175660316410927,19.9375551122212
0.000143765378277087,19.9475551122212
0.000122558133250399,19.9575551122212
0.000108817710440405,19.9675551122212
0.000100294129807429,19.9775551122212
9.545124784885e-05,19.9875551122212
9.39475555615261e-05,19.9937775561106
9.32132730351111e-05,20
