ecg,time
0.000353017156034666,15.0052428259208
0.000356479173585312,15.0152428259208
0.000373848773335645,15.0252428259208
0.000404136044090213,15.0352428259208
0.000447773462669053,15.0452428259208
0.000504945648688104,15.054980196735
0.000573350878271135,15.0639447281176
0.000653249346294355,15.0721823581311
0.000745557947216274,15.0797553626551
0.000851602678754607,15.0867211687187
0.000973037568948683,15.0931322069989
0.00111182223168297,15.0990364790724
0.00127022874589304,15.104478041906
0.00145086601551849,15.1094974047184
0.00165671567631801,15.114131876427
0.00189118084868765,15.1184158822493
0.00215814785039479,15.1223812566217
0.00246206602383414,15.1260575121197
0.00280804848944561,15.1294721038135
0.00320200670706532,15.1326507049857
0.00365083061860077,15.1356175032292
0.00416263841547551,15.1383955369485
0.00474713880762797,15.1410071165604
0.00541617877578529,15.1434743963957
0.00616389325937338,15.1457623810041
0.00699539071825447,15.1478911219577
0.00792650448140209,15.1499023437973
0.00898311833192901,15.1518426712518
0.0102141212376547,15.1537770766422
0.0117451199702283,15.1558439534272
0.0134788339402728,15.1578841265468
0.0149378860649541,15.159445155601
0.0164754872282891,15.1610061846551
0.0178474435802647,15.1623797476018
0.0190666191826,15.163634136681
0.0201537553852317,15.1648345294359
0.0211053988808082,15.1660245775428
0.0219022450234454,15.1672452058868
0.0225068488472093,15.1685509103869
0.022843670064069,15.1700469912481
0.0226662735613543,15.1721199752579
0.0220302927262351,15.1737768305395
0.0210403795329696,15.1754336858211
0.0199259666794585,15.1769218537748
0.0186909183041106,15.1783834970022
0.0173419600439279,15.1798784563527
0.0158885116754251,15.1814446824309
0.0150159319364065,15.1823830644255
0.0141644098712447,15.18332144642
0.0117236547361721,15.186272741397
0.00969020082369116,15.1891283845932
0.00808145278168484,15.1917552010013
0.00675647659210617,15.1942611424711
0.00562503472097923,15.1967382251424
0.00469998112671849,15.1990764887229
0.00393497268233865,15.2012942936908
0.00329306980347025,15.2034152311923
0.00274537036437037,15.2054667199825
0.0022682630862174,15.2074845973682
0.00184030101565888,15.2095249956374
0.00143566233928606,15.2117059806503
0.000984254007521447,15.2145080969341
0.000747375398557534,15.2161737770848
0.000530821238297748,15.2178394572355
0.000349285328918857,15.2193575124684
0.000189550000548855,15.2207980433727
3.94060839199391e-05,15.2222527975557
-0.000110581498041727,15.2238151305212
-0.000273351281831066,15.2256489030435
-0.00049135810235644,15.228361713231
-0.000721881968587846,15.2316008474621
-0.000899490508226923,15.2343972488695
-0.00106018751512427,15.2371823880077
-0.00123095029017932,15.2404355155201
-0.00143634281090193,15.244786424159
-0.00167388208896913,15.2504891172666
-0.00186166379816473,15.2557490405914
-0.00199772216125342,15.2605131114275
-0.00207736330200285,15.264809572922
-0.00209370028219172,15.2686478539322
-0.00204100710197907,15.2720870571345
-0.00191401651139366,15.2751846583005
-0.00170726444984985,15.2780052205535
-0.00141318555463748,15.2806174976825
-0.00101719167921471,15.2831072923898
-0.000487183338623031,15.2855958606281
0.000246279547259273,15.2882684743971
0.00124011273047948,15.2912035961181
0.00220049457169375,15.2936821385485
0.00309235845163102,15.2958347503984
0.00413343163702164,15.2982509326647
0.00508820307680201,15.3003874854297
0.0060941258035664,15.3025240381947
0.00707944730727535,15.3044610203594
0.00808881958821141,15.3062581330083
0.00916938067124818,15.3079702479966
0.0103697603727514,15.3096390859711
0.0117197002651714,15.3112680581341
0.013239510390981,15.3128487585875
0.0149547369307368,15.3143803009999
0.0168893744375027,15.3158605037669
0.0190569535988112,15.3172809991509
0.0214883311365037,15.3186464773064
0.0242122911573327,15.3199584268832
0.0272612400097768,15.321218932985
0.0306711811890711,15.3224301855853
0.0344877770591678,15.323596049454
0.0387639491613393,15.3247202560333
0.0435607911432724,15.3258063209243
0.0489501493785077,15.3268577994263
0.0550166240874297,15.3278782344146
0.0618619954607025,15.3288714115969
0.0696083607680081,15.3298412020821
0.0784044567825301,15.3307917375867
0.0884340554913108,15.3317275468979
0.0999281819989594,15.3326537543276
0.113183778296033,15.3335763935238
0.128592522675392,15.3345028543887
0.146689910659238,15.3354427075711
0.16824598550244,15.3364092875765
0.193239338228346,15.3373792564958
0.222248722977186,15.3383593999748
0.256105389081127,15.3393627153364
0.296011621314412,15.3404102947272
0.343610859070824,15.3415351314144
0.386292520743178,15.3424786935173
0.421268741400606,15.3432391791002
0.45141991610406,15.3439124043612
0.477794845588425,15.3445438772391
0.500550687769043,15.345160255775
0.519370734475965,15.3457841003127
0.533433460182109,15.3464416682781
0.540981129950579,15.3471750015922
0.538671432750219,15.3479674971763
0.524684367086169,15.3487842313013
0.497595320071911,15.3496424402559
0.45549991079391,15.3505548654365
0.396264205014963,15.3515297796007
0.349973841175359,15.3521709512252
0.298794078136205,15.3528121228498
0.253493384858905,15.3533459255892
0.214916350092216,15.3537897208626
0.181167925412397,15.3541789258621
0.15101617426065,15.3545345304407
0.123729626903655,15.3548692361912
0.0988141395659391,15.3551920928912
0.0758741095125225,15.3555110174595
0.0545069400581121,15.3558351167798
0.0341040982278071,15.3561798302105
0.0127981281431589,15.3565950196299
0.00178440760754941,15.3568422187802
-0.00563793170167818,15.3570262718525
-0.0124248767910645,15.3572103249249
-0.0183441545653984,15.3573862013643
-0.0244082438532565,15.3575851016982
-0.0303321420801804,15.3578029360778
-0.0359261699559508,15.3580369660627
-0.0410837727723007,15.3582860574151
-0.0457481732495939,15.3585501250987
-0.0498924094790006,15.3588298125207
-0.0535076651856452,15.3591263316306
-0.0567938723000191,15.3594658322124
-0.0592814514861015,15.3598006171794
-0.061258456400509,15.3601585555999
-0.0627422772154938,15.3605434129236
-0.0637472444016437,15.3609594309732
-0.0642858899667348,15.3614118859955
-0.0643673335426011,15.3619074375983
-0.0639952808746022,15.3624546603936
-0.0631634453814299,15.3630659858415
-0.0618509704299563,15.3637580304126
-0.0600143368251981,15.3645549916937
-0.0575643775983669,15.3654970319671
-0.0542895229576944,15.3666673734344
-0.0501790685956749,15.3680838957442
-0.0461807331811567,15.369451517472
-0.0423523409351474,15.370777490708
-0.038723423545006,15.3720647022759
-0.0353092905804715,15.3733142733724
-0.0321172990665912,15.3745264332447
-0.0291495660503243,15.3757009769621
-0.0264043614433256,15.3768375065942
-0.0238769790367125,15.3779355567586
-0.0215603869384119,15.3789946560028
-0.019445773091074,15.3800143506047
-0.0175230278563266,15.3809942049655
-0.0157811763920236,15.3819337863719
-0.0141904624142159,15.3828434233726
-0.0126571232347691,15.3837761640151
-0.0111861379661121,15.3847332532445
-0.0097815109102127,15.3857166799935
-0.00844707430224911,15.3867287679303
-0.00718643317327146,15.3877722611017
-0.00600291465012959,15.3888504308975
-0.00489951502740051,15.3899672189791
-0.0038788447225388,15.3911274324206
-0.00294307085943201,15.3923370170226
-0.00209385672342519,15.393603451824
-0.00133229644381556,15.3949363395014
-0.000658841651198835,15.3963483297873
-7.321369513649e-05,15.3978566458587
0.000422295058585889,15.3994730698355
0.000811383629707908,15.4011298643199
0.00111131543849516,15.4028454281504
0.00133699418574323,15.4046391573674
0.00150230036570342,15.4065365743844
0.00162044857661708,15.4085730459256
0.00170449920336533,15.4108013294458
0.00176823212845347,15.4133088533882
0.00182833402330816,15.4162677668429
0.00190901311102851,15.4200065545474
0.00201260066537737,15.4238612054999
0.00215177063264619,15.4280543050908
0.00231880057687982,15.4324036231299
0.00252465197674212,15.437326214924
0.00273850678334252,15.4422229589242
0.00295820312264337,15.4471583443963
0.00315561077242442,15.4515341183193
0.00333557658832995,15.4554724756434
0.00351013438546895,15.4592320945587
0.0036852216788954,15.4629268951668
0.00386472632477752,15.4666215877052
0.00405180819973042,15.4703613409569
0.00424938569259479,15.4741819134535
0.00446039686944205,15.4781144171676
0.00468799860222014,15.4821883375514
0.00493571765969791,15.4864331243228
0.00520762578289653,15.4908794805425
0.0055085918841966,15.4955605305172
0.00584471424047368,15.5005132719241
0.00622402695318797,15.5057797170603
0.00661774631071316,15.5109013688943
0.00703641329671903,15.5159868722502
0.00747978643361277,15.520987961939
0.00795303464950874,15.5259168003737
0.00846118993227184,15.5307749033614
0.00901044252035451,15.5355678309099
0.00960754011357907,15.540298302077
0.0102599012098559,15.5449671179423
0.010984186278794,15.5496255509542
0.0118003621061727,15.5543149891883
0.0127263725653041,15.559038415936
0.0137881574644036,15.5638185336921
0.0150247546013152,15.5687054936
0.0165074580358879,15.5738239479548
0.0184204123040213,15.5795625659223
0.0203252045348578,15.5846229520013
0.0219094563942533,15.588535814336
0.0235362661175895,15.5924486766707
0.0249355921452964,15.5958921083492
0.0261147119328744,15.5990339304987
0.0270898430914668,15.6020525754231
0.0278155510995125,15.6049405558854
0.0282767779994023,15.6077481071834
0.0284632364906053,15.6106026528699
0.0283253874684483,15.6136954786133
0.0276643706234698,15.6175868820727
0.0268297233466791,15.6205724560806
0.0257634855790366,15.6235580300886
0.0246889881523291,15.6261578683379
0.0236208704093458,15.628533048442
0.0225528717519679,15.6307917598768
0.0214857572951955,15.6329861198168
0.0204227055529999,15.6351458383029
0.0193673487842193,15.6372905602269
0.0183232311409583,15.6394346037902
0.0172936608561817,15.6415891552652
0.0162816724862805,15.643763450172
0.0152900240687681,15.6459654767305
0.0143212080676349,15.6482024231756
0.0133774596614264,15.6504809971137
0.0124607696892875,15.652807653021
0.0115728957171516,15.6551887733213
0.0107153671994775,15.6576308358967
0.00988950031461541,15.6601405404749
0.00909640147892385,15.6627249616431
0.00832504151743148,15.6654352998312
0.00756693255003303,15.6683279187061
0.00682582823657801,15.67142409903
0.0061055506521673,15.6747490121963
0.00541013426681286,15.6783317773554
0.0047437827714794,15.6822062368884
0.00411079814631452,15.6864119635614
0.00351545652149753,15.6909957873765
0.00296181445146635,15.6960143963747
0.00245344662210506,15.7015390671909
0.00199320464530906,15.707663638085
0.00158472501888977,15.7144865997238
0.00124278710492338,15.7218300483012
0.00102256038390019,15.7278500573159
0.000853556464012772,15.7338700663306
0.000682154640285809,15.7423001936706
0.000556120587827465,15.7511514481786
0.000460991715847192,15.7609587825555
0.00039985193855319,15.7709587825555
0.000365834884867626,15.7809587825555
0.000352569705893347,15.7909587825555
0.000355760959627637,15.8009587825555
0.000372857584547854,15.8109587825555
0.000402843838030536,15.8209587825555
0.000446122842384575,15.8309587825555
0.000502993628819432,15.8407174842962
0.000571084177327425,15.8497024131378
0.000650637489740767,15.8579587594216
0.000742559663704219,15.8655489122155
0.00084816796289458,15.8725304280979
0.000969108132474305,15.8789558529136
0.00110733110387019,15.8848732907282
0.00126509943967799,15.8903268906296
0.00144501135611689,15.8953572452392
0.00165003638572632,15.9000017388653
0.00188356368921378,15.904294864574
0.00214946338916455,15.9082685175522
0.00245216574192217,15.9119522642913
0.0027967610499016,15.9153736065438
0.00318913303933068,15.9185582562687
0.00363613712653495,15.921530430635
0.00414584742768245,15.9243131862913
0.00472791442637144,15.9269288365884
0.00539410481993354,15.9293995165429
0.00613934666163068,15.9316924152601
0.00696796442288664,15.9338248075666
0.00789554041266821,15.9358382883396
0.00894748005577664,15.9377791394481
0.0101714394841138,15.9397111982314
0.0116858712227913,15.9417651191792
0.0134500313602287,15.9438469810636
0.0149107402454535,15.9454110181081
0.0164514011171375,15.9469750551525
0.0178276576790801,15.9483516196101
0.0190502987652674,15.9496072904613
0.0201407189350188,15.95080792909
0.0210958560743415,15.9519974078208
0.02189671866299,15.9532165498026
0.0225063377655356,15.9545193293168
0.0228504430705214,15.9560091281507
0.0226915052866063,15.9580571695873
0.0220646121941778,15.95972409132
0.021076527872198,15.9613910130528
0.0199645334745383,15.9628812137674
0.0187320364600472,15.9643424010858
0.0173853380415006,15.965835859503
0.0159338571219953,15.9673997605832
0.0150610279627862,15.9683377925337
0.0142081120910107,15.9692758244842
0.012715633304119,15.9710239327811
0.0105713577787704,15.9738401131662
0.00879266466410984,15.9765488988518
0.00735798538644477,15.9790812883601
0.00612465768335453,15.9816025307655
0.00510920441281064,15.9840047430579
0.00427448987615776,15.986276658177
0.0035790742922057,15.9884401554035
0.00299062399521854,15.9905204854988
0.00248339598175972,15.9925485961314
0.00203543112328842,15.9945685157526
0.00162438518422012,15.9966591890236
0.00121354683421681,15.9990349990708
0.000919899549572342,16.0009518732339
0.00065555266235617,16.0028687473971
0.000449824023786394,16.0045093494539
0.000279320525822605,16.0059835633474
0.000124988364892411,16.0074195612879
-2.3723487071641e-05,16.0089057854335
-0.000176726109018106,16.0105524009135
-0.000352366368623719,16.0126079386692
-0.000641565839814233,16.0164388381841
-0.000889154911473676,16.0202427307258
-0.00108939834225795,16.0237359002715
-0.00128625437534006,16.0275820352816
-0.00154048567269907,16.033215220756
-0.00175777921531776,16.0387684981163
-0.00192391819222465,16.0438175297077
-0.00203706172719482,16.0483860687484
-0.00209087333751352,16.0524840806566
-0.00207904405690175,16.0561493997362
-0.0019960020981147,16.0594380392635
-0.00183652806037897,16.0624121384284
-0.00159459935306736,16.0651369385428
-0.00126061421017922,16.0676859727341
-0.000814899850439814,16.0701548522951
-0.000208891526475978,16.072703609025
0.000618637160641643,16.0754514221686
0.00142188860786565,16.0777097157023
0.00230915445636302,16.0799680092359
0.00320535432240177,16.0821191693064
0.00429562037803123,16.0846368762681
0.00523665277359724,16.0867251151322
0.00623014862400826,16.0888133539962
0.00719610755245891,16.0906885509987
0.0082264179718426,16.0924973649573
0.00931951584657136,16.0942011168807
0.0105425676133034,16.0958712474983
0.011909384254674,16.0974894121958
0.0134585736510718,16.0990692391535
0.0151953906292759,16.1005891503823
0.0171556726091253,16.1020592074945
0.0193605711404911,16.1034754373585
0.0218331378117082,16.104836236252
0.0245958298035569,16.1061402383061
0.0276879669496201,16.1073932769615
0.0311486263807816,16.1085983522487
0.035023266341469,16.1097587380024
0.0393640531924468,16.1108776303454
0.0442342674097882,16.1119588399974
0.0497073991422315,16.1130059429383
0.0558704179201574,16.1140225581888
0.0628271315531803,16.1150124048679
0.0707025606447235,16.1159793609779
0.079649677375565,16.1169276287615
0.0898576959628114,16.1178618054188
0.101565121006797,16.1187871172981
0.115079201866623,16.1197097301812
0.130807014692433,16.1206372591272
0.14930826142946,16.1215796514469
0.171330078925061,16.1225482919807
0.196812615608495,16.1235189248047
0.226406713688249,16.1245011590693
0.260978366704952,16.1255086819717
0.30180537155213,16.1265643569617
0.350092828850212,16.1276921263133
0.391527498377263,16.128603171104
0.425720678929756,16.1293473459118
0.455321604825697,16.130012699208
0.481203909415077,16.1306406038319
0.503449062805823,16.1312565840162
0.521679522388572,16.1318832611336
0.534983507519845,16.1325481117316
0.541391173436437,16.133297318924
0.537499152113774,16.1340920314228
0.521760328816683,16.1349136284267
0.492674750032121,16.1357788205559
0.448285104098814,16.1366996420673
0.386860923953555,16.1376782341666
0.341471218899482,16.1382931646756
0.29176697765519,16.1389080951847
0.247669578134229,16.13942481945
0.209889648540188,16.1398589371211
0.176708147419599,16.1402423510336
0.146996861286639,16.1405943333971
0.12007082431438,16.1409268493396
0.0954564932094648,16.1412486587601
0.0727639439624416,16.1415676873529
0.0515783934342611,16.1418934889254
0.0312241105643566,16.1422434101697
0.0092672744009534,16.1426825662749
0.00015602807747029,16.1428924544467
-0.00810180958782484,16.1431023426186
-0.0146024871795512,16.1432843416024
-0.0206264245022477,16.1434697213364
-0.0266678433297139,16.1436761982143
-0.0324848133519057,16.1439003324598
-0.0379241996067745,16.1441400816863
-0.0429012697826786,16.1443947584208
-0.0473722441757738,16.14466457869
-0.0513180546556815,16.1449504121897
-0.0547313866016894,16.145253664527
-0.0577349090232253,16.1455926630587
-0.0600407409925701,16.1459352664961
-0.0618421327408053,16.146302260868
-0.0631554914814849,16.1466975681684
-0.063994689561657,16.1471257641062
-0.0643712546238709,16.1475925661415
-0.0642926544148456,16.1481052360958
-0.063759924939434,16.1486733253039
-0.0627618536248412,16.1493109319911
-0.0612711098283844,16.1500366376293
-0.0592319412358546,16.1508789005963
-0.0565267034683573,16.151887887267
-0.0528418265693886,16.1531827154372
-0.0487635698899005,16.154579984469
-0.0448200565832927,16.1559325204145
-0.0410590926763079,16.1572447100213
-0.037504139556321,16.1585186735696
-0.0341672685157271,16.1597551479444
-0.0310537876851084,16.1609541725776
-0.0281643453058399,16.162115455106
-0.0254960852516698,16.1632385638544
-0.023043419795852,16.1643230267276
-0.0207986353446311,16.1653683772379
-0.018752413254585,16.166374168918
-0.0168942942023921,16.1673399695822
-0.0152130936908709,16.1682653417517
-0.0136421275491862,16.1691830124579
-0.0121303867054904,16.1701241625202
-0.0106824338297973,16.1710903310774
-0.00930221837040331,16.1720836171253
-0.00799349779151986,16.1731064826655
-0.00675978467523669,16.174161844581
-0.00560429520671525,16.1752531928901
-0.00452989550204182,16.1763847499032
-0.00353904577108175,16.1775616893903
-0.00263374191668499,16.178790446655
-0.00181545355082722,16.1800791715173
-0.00108505632451824,16.1814384161665
-0.00044275444809494,16.1828822306378
0.000112014846729288,16.1844300159607
0.000568247200918367,16.1860587248675
0.000924402446304549,16.1877341421621
0.00119674650885449,16.1894745654944
0.00139979094167275,16.1913012434333
0.00154713588848469,16.1932425788439
0.00165187289035967,16.1953388580468
0.00172718213001876,16.1976521353911
0.00178748232447094,16.2002904641794
0.00185168516642233,16.2034872217677
0.00193762772172303,16.2072245224406
0.00205325004931495,16.2112179556667
0.00220104288793459,16.2154332150867
0.00237813131853364,16.2198948553885
0.00259159613502842,16.224913512418
0.00280657387892422,16.2297979223179
0.00303023124538478,16.2348025917061
0.00321986017240932,16.2389866166017
0.00339705871046308,16.2428443934039
0.00357128847882994,16.246572123489
0.00374753198534301,16.2502608690737
0.00392933947587983,16.2539666527764
0.0041197518722643,16.2577306679636
0.00432167055923716,16.2615866512789
0.00453809064948857,16.2655648927017
0.00477228020528552,16.2696946999053
0.00502793388983854,16.2740058250465
0.00530936603353629,16.2785296679479
0.00562181225475684,16.2833005265298
0.00597194745061716,16.2883570334684
0.00635731140788478,16.2935915128111
0.00675903461822719,16.2986980871389
0.00718592261784187,16.3037561022522
0.00763902490789208,16.3087317727422
0.00812365695526517,16.3136357739885
0.00864523567113193,16.318471000673
0.00921016030840913,16.3232422273323
0.00982540394036805,16.3279514894371
0.0104986235109036,16.3325989495348
0.0112530530406249,16.3372705891757
0.0121044013903879,16.3419696659776
0.0130736039465738,16.3467092114953
0.0141899136423999,16.3515179974483
0.0155001080185415,16.3564638574436
0.0170977910190769,16.3617235200337
0.0192821008031524,16.3679549034345
0.0209887622690257,16.3723246028079
0.0227895786852238,16.3766943021812
0.02431915775808,16.3803934875838
0.0255964965867622,16.3836498057517
0.0266658606834654,16.3867071943246
0.0275154855334027,16.3896724422895
0.0280979608993751,16.3925027886652
0.028413449626028,16.3953180389906
0.0284347499442667,16.3982686204789
0.0280634494944758,16.4016583577145
0.0272844742673626,16.4050998004587
0.0261637500217868,16.4085412432029
0.0250690795649948,16.4113085613199
0.0239984108858994,16.4137497858632
0.0229304392896845,16.4160420610788
0.0218627077649745,16.4182550140242
0.0207978153472037,16.4204243477316
0.0197393285948078,16.422572514378
0.0186908508148365,16.424715381758
0.017655781052758,16.4268650726173
0.0166372515629148,16.4290314145661
0.0156381183468369,16.4312227733131
0.0146609654599672,16.4334465808352
0.0137081186009667,16.4357096828502
0.0127816540218018,16.4380185995962
0.0118834089986613,16.4403797241958
0.0110149949566589,16.4427994775644
0.0101778005342334,16.4452844704044
0.00937300671270942,16.4478416243806
0.00859781879123397,16.4504917231112
0.00783454471486622,16.4533174274619
0.00708697359231263,16.4563385771958
0.0063588450323678,16.4595790994963
0.00565412170292718,16.4630666319303
0.0049769538528547,16.4668332371318
0.00433161952053282,16.4709163122815
0.00372242126150378,16.4753598916631
0.00315352077525859,16.4802167613248
0.00262869959884444,16.4855522537594
0.0021510828311505,16.4914510714397
0.00172302281896239,16.4980272953049
0.00135806674060038,16.505172987376
0.00105535430012854,16.5129030829455
0.000818763209931515,16.5213437479974
0.000665169078149037,16.5293316259848
0.000541177558008932,16.5384573286883
0.000452016054816168,16.5481802037548
0.000394550621277703,16.5581802037548
0.000363274834993771,16.5681802037548
0.000352133102151051,16.5781802037548
0.000357064554881584,16.5881802037548
0.000375709349524351,16.5981802037548
0.000407219744015164,16.6081802037548
0.0004521636044864,16.6181802037548
0.000510351612764177,16.6278463641188
0.000579749681872492,16.6367430944879
0.000660691663376463,16.6449187678834
0.000754138161741973,16.6524352192727
0.00086144728330025,16.6593493904613
0.000984300746991646,16.6657132834766
0.00112468516452502,16.6715745202999
0.00128490083637096,16.6769768182269
0.0014675874322558,16.6819603802967
0.00167576077090171,16.6865622394198
0.00191286293596211,16.6908165725335
0.00218282507807596,16.6947549910798
0.00249014902986166,16.6984068082938
0.00284001041758926,16.7017993038811
0.00323839632219722,16.7049580009945
0.00369229048502138,16.707906964279
0.00420993042432989,16.7106691413924
0.00480118188293158,16.7132667936141
0.00547810759604101,16.7157220844633
0.00623262877580215,16.7179940935932
0.0070719971675338,16.7201103244758
0.00801269285867295,16.7221127485851
0.00908183281877986,16.7240487706519
0.0103315205439665,16.7259861696194
0.0119069586003739,16.7280841006697
0.0135765337296894,16.7300297770137
0.0150318739857459,16.7315792121838
0.0165620041029656,16.733128647354
0.017924841799636,16.734492730162
0.0191369434634169,16.7357423538997
0.0202173028189162,16.7369407816822
0.0211614571806471,16.7381310797722
0.0219492547453361,16.7393544486075
0.0225419160119558,16.7406668181584
0.0228602593969674,16.742178900937
0.022630520434877,16.7443238343384
0.0219685295358868,16.7459544767951
0.0209708173050523,16.7475851192517
0.0198477737095271,16.7490670218604
0.0186037640177675,16.7505292838237
0.017246427212488,16.7520281003786
0.0157851221143097,16.753600877443
0.0148819817767234,16.7545726318926
0.0140065892823143,16.7555443863423
0.0118003973998567,16.7582171512503
0.00977481627335139,16.7610444941261
0.0081517130147987,16.7636760825991
0.0068178271138109,16.7661808094393
0.00567448319266985,16.768666176513
0.00474025698123419,16.7710117817151
0.00396828584786268,16.7732356012272
0.0033211273970815,16.7753610694726
0.00276953571166745,16.7774152671959
0.00228971311039778,16.7794332689409
0.00186025531940122,16.7814692593165
0.00145604674809562,16.7836346656104
0.00101446305019966,16.786352154283
0.000771606980929253,16.7880426423091
0.000549941685920762,16.7897331303353
0.000365193489438109,16.791266904116
0.000204044231235052,16.7927107191829
5.35676768617172e-05,16.7941594127201
-9.57032483088232e-05,16.7957038734218
-0.000255831889171252,16.7974938597296
-0.000461446554859047,16.8000216682092
-0.000706410027231067,16.8034230973592
-0.000893434847518618,16.8063518847202
-0.00105672653899581,16.8091763500504
-0.00122787060016772,16.8124331907615
-0.00143286933998447,16.8167713992935
-0.0016709587793184,16.8224812405953
-0.00185928985477933,16.8277487478055
-0.00199595344744177,16.8325193395258
-0.00207634333405544,16.8368226183191
-0.00209354239972167,16.8406670001293
-0.00204182038281877,16.8441110587618
-0.00191589016890273,16.8472129910467
-0.00171033301040773,16.8500364817429
-0.00141760315864059,16.8526507864792
-0.00102320053132606,16.8551415791852
-0.000494955675425452,16.8576309098596
0.0002359962222425,16.860302080879
0.00122553772820155,16.8632308645894
0.00218855129260221,16.8657190534258
0.00307966007111983,16.8678707725643
0.00411619872743911,16.8702772896925
0.00508417170687333,16.8724435393788
0.00610464135229497,16.8746097890651
0.00708286307863588,16.8765311871065
0.00809456081322983,16.8783313930462
0.00917622247365559,16.8800440158248
0.0103762588540604,16.8817111604769
0.0117270217405544,16.883339983893
0.0132468356473786,16.8849195838084
0.014963016331583,16.8864509335892
0.0168987216349956,16.8879309122915
0.0190670716443469,16.8893509023096
0.0214997215983541,16.8907161243157
0.0242251249101869,16.8920278266951
0.0272756951543928,16.8932880915882
0.0306871858855517,16.8944990192713
0.0345057477592573,16.8956646444878
0.0387841556080604,16.8967886287855
0.0435835363812593,16.8978744856013
0.0489757711712356,16.8989257674675
0.0550455416917057,16.8999460216756
0.0618946943241361,16.9009390323459
0.0696454180597467,16.901908670709
0.0784465662475245,16.9028590688329
0.0884820454987583,16.9037947547268
0.0999831045603488,16.9047208561991
0.113246937081289,16.9056434070862
0.128665584136886,16.9065697993329
0.146775063270094,16.9075096068736
0.168346215633843,16.9084761698785
0.193355078744463,16.909446052216
0.222382624625549,16.9104261287169
0.256260811423886,16.911429404372
0.296193380675218,16.9124769975952
0.343820517387118,16.9136018343963
0.38648005264865,16.9145444819121
0.421441912144943,16.9153044246944
0.451583578291382,16.9159773232179
0.477950251259146,16.9166085871794
0.500697419461438,16.9172248461993
0.519506942863371,16.9178486629005
0.533555053783336,16.9185063296682
0.541078533551973,16.919240008504
0.538731431996904,16.9200324782364
0.524701596954464,16.9208492730304
0.497562143776354,16.9217076233191
0.455406455780153,16.9226202597919
0.396099170889055,16.9235954467836
0.349819765980484,16.9242360276668
0.298664128202314,16.92487660855
0.253383744225155,16.925410021569
0.214819821508241,16.9258535887346
0.181080472784147,16.9262426508857
0.150935668281314,16.9265981604999
0.123654758417125,16.9269328031096
0.0987439289763371,16.9272556221318
0.0758076170102728,16.9275745346137
0.0544428932663953,16.9278986569788
0.0340397307795719,16.9282434684772
0.012719685268407,16.9286591203065
0.00176069356638396,16.9289051844087
-0.00565883858181102,16.9290891924341
-0.0124432506334238,16.9292732004594
-0.0183638968629237,16.9294491439244
-0.0244282799418454,16.9296480932347
-0.0303517425319383,16.9298659641969
-0.0359449119556678,16.9301000245779
-0.0411014156124897,16.9303491440334
-0.0457645840000792,16.9306132400624
-0.0499075203318378,16.9308929578813
-0.0535214520716612,16.9311895109346
-0.0568061757079167,16.9315290462654
-0.059292465767834,16.9318638758692
-0.0612682052522904,16.932221867013
-0.0627507847215772,16.9326067870377
-0.0637545331817839,16.9330228803201
-0.0642919766505798,16.9334754264855
-0.0643722234574618,16.9339710897719
-0.0639989609373149,16.9345184514058
-0.0631658648418901,16.9351299569898
-0.0618520286217426,16.9358222372084
-0.0600138404989784,16.9366195212653
-0.0575619268723063,16.9375620424848
-0.0542840553147232,16.9387332525679
-0.0501736266568669,16.9401496401318
-0.0461754703694455,16.9415171726045
-0.0423473491693239,16.9428430708168
-0.0387187488535563,16.9441302145503
-0.0353049563877907,16.9453797213334
-0.0321133157857115,16.946591818464
-0.0291459355470375,16.9477662999793
-0.0264010794460688,16.948902767413
-0.0238740366701953,16.9500007551153
-0.0215577718526361,16.9510597915059
-0.0194434703777474,16.9520794228
-0.0175210208315986,16.953059213353
-0.0157794472763363,16.9539987303918
-0.0141888238881301,16.9549084030382
-0.012655583890176,16.9558411809986
-0.0111847044547522,16.9567983105423
-0.0097801896431395,16.9577817810779
-0.00844587136384356,16.9587939168732
-0.0071853542455894,16.9598374627246
-0.00600196493344695,16.9609156909696
-0.00489869915757789,16.9620325444841
-0.00387816668545624,16.963192831925
-0.00294253390196291,16.9644025011979
-0.00209346325978902,16.965669034213
-0.00133204795451958,16.9670020376862
-0.000658738568715426,16.9684141672594
-7.32552646000729e-05,16.9699226552026
0.00042206721381366,16.9715391299552
0.000810998558108164,16.9731960033725
0.00111079721068234,16.9749116730246
0.00133636492741428,16.9767055426944
0.00150158069815255,16.9786031466426
0.00161965823051885,16.980639871545
0.00170365790700401,16.9828685117542
0.00176736133773804,16.9853765746678
0.00182747946743851,16.9883364275251
0.00190817827271573,16.9920751183495
0.00201179013716886,16.9959303092268
0.0021509537722758,17.0001232159032
0.00231782312406846,17.0044688335904
0.00252310751493502,17.0093789740945
0.00273692975704708,17.0142764213279
0.00295645519923333,17.01920931651
0.00315425371429136,17.0235951585196
0.00333435084673387,17.0275375731343
0.00350893017651673,17.031298821862
0.00368398009922255,17.0349940327995
0.00386340531632708,17.0386883511993
0.0040503715657151,17.0424271402841
0.00424779852171907,17.0462462575492
0.00445862258239397,17.0501768574126
0.00468599700597818,17.0542484366247
0.00493344315481105,17.0584904349926
0.00520502502138257,17.0629335281319
0.00550559975330877,17.067610793615
0.00584124663004705,17.0725591605937
0.00621996888565049,17.0778205573306
0.00661359887434832,17.0829444832793
0.00703199415273976,17.0880302674732
0.00747511271005389,17.0930323415966
0.00794803766433379,17.0979619405612
0.00845580964353545,17.102820776281
0.00900460556934386,17.107614363675
0.00960116859278609,17.1123454646308
0.0102529107154899,17.1170149041289
0.0109763047713423,17.1216729284877
0.0117914422470872,17.1263620791441
0.0127161821549113,17.1310850436273
0.0137763763897626,17.1358643741416
0.0150108623470088,17.1407497676531
0.0164903919696728,17.1458646127827
0.0183967451043756,17.1515920376777
0.0203088002596095,17.1566771954113
0.0218944541668071,17.1605953663797
0.0235234083323767,17.1645135373481
0.024924823307875,17.1679606531092
0.0261056867821761,17.1711041825531
0.0270825653784175,17.1741232792773
0.0278105482715938,17.1770124358277
0.0282740433115666,17.179820170044
0.0284629782813138,17.1826736681753
0.0283283349887865,17.1857631407684
0.0276742655407884,17.1896410200212
0.0268408248329316,17.1926341353298
0.0257740119350795,17.1956272506384
0.0246992499609639,17.1982304532881
0.0236311026183812,17.2006071584796
0.022563104683405,17.202866681135
0.0214959679847658,17.2050614907524
0.0204328603878114,17.2072214342678
0.0193774134116613,17.2093662238633
0.0183331730125845,17.2115102157796
0.0173034499726902,17.2136646193758
0.0162912814660883,17.2158386849107
0.0152994281456838,17.218040409963
0.0143303849843562,17.2202769885946
0.0133863895328377,17.2225551317568
0.0124694349701473,17.2248812951386
0.0115812810032922,17.2272618610186
0.0107234592183644,17.2297033054961
0.00989728782979257,17.2322123251752
0.00910387519242779,17.2347959901711
0.0083324078519882,17.2375046805264
0.00757415541622644,17.2403954680895
0.00683287249389642,17.2434895940342
0.00611237904589433,17.2468121952599
0.00541670769971305,17.2503923500521
0.00475006086156866,17.2542638515724
0.00411674011883604,17.2584662120375
0.00352102271537037,17.2630461826104
0.00296696847293662,17.2680603407049
0.00245815822876036,17.2735797918319
0.00199745122313566,17.2796981133605
0.00158832179772362,17.2865166650394
0.0012458005158709,17.293854835976
0.00102258274107822,17.2999488799195
0.000851788945668996,17.306042923863
0.000679926230233968,17.3145320771596
0.000554649253035581,17.3233818371657
0.000460039528142359,17.3331977496582
0.000399374004504622,17.3431977496582
0.00036572349661588,17.3531977496582
0.000352755929885396,17.3631977496582
0.000356206189813151,17.3731977496582
0.000373549539864331,17.3831977496582
0.000403795073926411,17.3931977496582
0.000447372240734521,17.4031977496582
0.000504490346323863,17.412939373459
0.000572834942254623,17.4219079769299
0.000652664084624233,17.4301493478756
0.000744893244806643,17.4377257834773
0.000850847080105981,17.4446947355981
0.000972178178194761,17.4511086570882
0.00111084451616771,17.4570155693125
0.00126911629202857,17.4624595470609
0.00144960023805358,17.4674811157146
0.00165527548995375,17.472117598814
0.00188954225550104,17.4764034347316
0.00215628345096349,17.4803704696611
0.00245994439237784,17.4840482265749
0.00280563337086318,17.487464169481
0.00319925596123954,17.4906439789593
0.00364769476275008,17.493611848005
0.0041590585725712,17.4963908180321
0.00474304366311936,17.4990031991933
0.0054114798259989,17.5014711407489
0.00615866930083825,17.5037601070441
0.00698955377625473,17.5058895628951
0.00791991188766864,17.5079012024861
0.00897552251682609,17.5098415724935
0.0102050028892741,17.5117753912196
0.0117323880932737,17.5138393500577
0.0134726168118188,17.5158883586115
0.014932111096587,17.5174500640793
0.0164704738726662,17.5190117695472
0.01784342258301,17.52038596961
0.0190634010462171,17.5216406158023
0.0201512983861146,17.5228410379208
0.0211037480281194,17.5240309353963
0.0219015146809479,17.5252512095443
0.0225072590131025,17.5265562390276
0.0228457240013475,17.5280508931855
0.022672492137465,17.5301182225125
0.0220385530131662,17.5317772390242
0.0210490832939838,17.5334362555358
0.0199352170920143,17.5349248485288
0.0187007321996031,17.536386369729
0.0173522649957561,17.5378809738893
0.0158992361272824,17.5394466598978
0.0150265697848799,17.5403849697025
0.0141746998108173,17.5413232795072
0.0119396284161254,17.5440065227918
0.00988236479999604,17.5468521443136
0.00823743215263481,17.5494959765658
0.00689244953137645,17.551999701232
0.00573529974207453,17.5544933675271
0.00479029322998999,17.5568463979871
0.00400998795607161,17.5590764180847
0.00335638601622524,17.5612067367638
0.0027998472638001,17.5632641600418
0.00231633117275866,17.5652831439133
0.00188438881918304,17.5673163110045
0.00147941496348222,17.5694696691292
0.00104407770416496,17.572123731248
0.000795738522978524,17.5738345157047
0.000569369297162106,17.5755453001614
0.000381355609665705,17.5770938681531
0.000218591189276895,17.5785416314816
6.74502955013336e-05,17.5799865087067
-8.16282369322573e-05,17.5815178641989
-0.000240134518587364,17.5832755986595
-0.000437976684993735,17.5856815895537
-0.00070260789102503,17.5893268609524
-0.000906034109093599,17.5925184350044
-0.00107706322869742,17.5955025818341
-0.00125429205196153,17.5989177708616
-0.00147112020784895,17.6035854163788
-0.00170197793799678,17.60923554508
-0.00188303547666626,17.6144282067654
-0.00201206824946284,17.6191294319439
-0.00208379123133173,17.6233621477994
-0.0020914745802539,17.6271475498495
-0.00202941020455042,17.6305374481491
-0.00189234355645529,17.6335956076282
-0.00167482490956928,17.6363836688422
-0.00136842440450106,17.638975485702
-0.000956875206211203,17.6414593926323
-0.000401774109437594,17.6439732985525
0.000360866625628422,17.6466670710366
0.00117475014254565,17.6490535865871
0.00209189852953959,17.6514401021376
0.00297668066938473,17.6535881234627
0.00398270777419482,17.6559337143758
0.00498164397775455,17.6581798980383
0.006034297274246,17.6604260817009
0.00702254283693249,17.6623782209517
0.00803107632096335,17.664184757258
0.00910224902788036,17.6658943726224
0.0102986807164807,17.6675713269944
0.0116364796405658,17.669199549157
0.0131502497749927,17.6707879599883
0.01485142938397,17.6723204469145
0.016771311643401,17.6738026247993
0.0189300514449828,17.6752299421071
0.0213450810109613,17.6765980639152
0.024050787892951,17.6779125576254
0.0270795314115895,17.6791755509874
0.03046900233838,17.6803898697605
0.034261234316162,17.6815581475692
0.0385098311540209,17.6826845590234
0.0432753863929781,17.683772631783
0.0486290762453785,17.6848259181895
0.0546549626471122,17.6858480026789
0.0614533141584699,17.6868425797291
0.0691450964449961,17.6878135426821
0.0778773374996432,17.6887650053351
0.0878315617776131,17.689701471557
0.0992356561827371,17.6906280213357
0.112382099183785,17.6915506214461
0.127656089956312,17.6924765663462
0.145582955842488,17.6934152657857
0.166915512582024,17.6943797679093
0.191697887613656,17.6953493818348
0.220455260439978,17.6963285433363
0.254004006861548,17.6973299504209
0.293515338990586,17.6983739674461
0.340827801634984,17.6994977349371
0.384102199538759,17.7004566064213
0.419434602339822,17.7012244597445
0.449826784798095,17.7019011096795
0.47641345663411,17.7025341098051
0.499386053463941,17.7031506741928
0.518453260346962,17.7037733801455
0.532829158776419,17.7044280420143
0.540835653413813,17.7051551932164
0.539173882201226,17.7059468114154
0.525900094232299,17.7067615867015
0.499620549156026,17.7076169647723
0.458453351107597,17.7085259813249
0.400268269208636,17.7094970614591
0.353587659899428,17.7101499114995
0.301755974931913,17.71080276154
0.25592878785962,17.7113440476785
0.217007686039818,17.7117920167106
0.183017533983917,17.7121836881854
0.152679315794251,17.7125408266001
0.12524067594059,17.7128764622843
0.10019816900805,17.7131997772976
0.0771532064186318,17.7135186978293
0.0557070535976288,17.7138421751754
0.0352741749061643,17.7141849859829
0.0141585559111256,17.7145923622014
0.00204686942441623,17.7148620569241
-0.00540920610599709,17.7150463995278
-0.0122269030604227,17.7152307421316
-0.0181604847103767,17.7154065127846
-0.0242255028586641,17.7156047836986
-0.0301572169608954,17.7158220835952
-0.035763375024447,17.7160556342107
-0.0409354754412873,17.7163042625497
-0.0456155741296672,17.7165678574613
-0.0497760023736477,17.7168470431017
-0.053407553970767,17.7171430154923
-0.0566862738003354,17.7174789095275
-0.0591942974938186,17.7178127659348
-0.0611914638884767,17.71816968965
-0.0626948492446575,17.7185533804889
-0.0637188213560584,17.7189680436572
-0.064276014274916,17.7194189081156
-0.0643757199566202,17.7199125694664
-0.0640219079703434,17.7204575120356
-0.063208818944035,17.7210659689887
-0.0619162618644157,17.7217543711166
-0.0601019208246273,17.7225464974645
-0.0576792734272387,17.7234815813618
-0.0544451274085107,17.7246398939839
-0.0503315904513998,17.7260586620723
-0.0463277281580963,17.7274279160482
-0.0424923015931459,17.7287553676992
-0.0388555733870125,17.7300439936047
-0.0354332306341881,17.73129495988
-0.0322328631845851,17.7325085180083
-0.0292567525488742,17.7336844733663
-0.0265032940427421,17.7348224320739
-0.0239678797515115,17.735921929624
-0.0216435542574422,17.7369824940223
-0.0195215629528229,17.7380036706534
-0.0175918365915675,17.7389850233608
-0.0158434254437762,17.7399261196896
-0.0142506120835828,17.7408348971216
-0.0127149713812517,17.7417667394101
-0.0112415283818057,17.7427228598511
-0.00983429296774526,17.743705235939
-0.00849710511180933,17.7447161769778
-0.00723357948491444,17.7457584091092
-0.00604705484628191,17.7468351811346
-0.00494054119721029,17.7479504058123
-0.00391666482006158,17.7491088525962
-0.00297761096438846,17.750316417301
-0.00212506344753846,17.7515805108584
-0.00136013956999069,17.7529106402219
-0.000683317177323961,17.7543193152336
-9.43476239781739e-05,17.7558235440926
0.000405491579822764,17.7574387561864
0.000798211459313793,17.7590936695855
0.00110119257424503,17.7608067146132
0.00132938246784474,17.7625971038008
0.00149669424068538,17.7644900794351
0.00161635915320148,17.7665205373834
0.00170143076913839,17.768740366404
0.00176563652657223,17.771235142994
0.00182549663511107,17.7741719343196
0.00190577807256956,17.7779132446592
0.00200819934242868,17.7817551799142
0.00214647697789537,17.785947163295
0.0023123964930632,17.7902843610831
0.00251608114585751,17.7951661879714
0.00272976614713056,17.8000655607124
0.00294894183377558,17.8049929428549
0.00314772569743403,17.8094027229355
0.00332817191416406,17.8133547288771
0.00350281950697866,17.8171198546427
0.00367777778122385,17.8208160969525
0.00385699240888985,17.8245096259454
0.00404364402600262,17.8282462605179
0.00424065584109924,17.8320620907764
0.00445095993114689,17.8359883719481
0.00467769951592536,17.8400546287123
0.00492438046074791,17.8442902799504
0.00519504434162944,17.8487259401807
0.00549451493273779,17.8533945823681
0.00582881918843597,17.8583329813205
0.00620587768287281,17.8635828769049
0.00659903203322854,17.8687131414725
0.00701646640808519,17.8738003407514
0.00745862648935678,17.8788055253569
0.00793038142750874,17.8837376675241
0.00843678802929491,17.8885989723533
0.00898398390027703,17.8933948555273
0.0095786929302253,17.8981281925833
0.0102283017194222,17.9027998718224
0.0109486259973794,17.9074565245141
0.011760193121124,17.9121447391276
0.0126805663670996,17.9168661643798
0.0137352964507012,17.9216428443675
0.0149625382744198,17.92652293342
0.016431213956948,17.9316255583834
0.0183152566054591,17.9373154630278
0.0207369736570076,17.9437077247598
0.0222663697282705,17.947446268617
0.0238204024817823,17.9511848124743
0.0251728984870131,17.9545481522921
0.0263133746770593,17.9576550154034
0.0272492467342368,17.9606660356004
0.0279241206735279,17.9635300955442
0.0283342421871056,17.9663359811386
0.0284641999660602,17.9692175440863
0.0282512161681975,17.9723946213741
0.0274048522609891,17.97666844608
0.0265409795489712,17.9794891579796
0.0254843087337686,17.9823098698792
0.0244146683928158,17.984831186841
0.0233469933668205,17.9871689545173
0.0222790232356702,17.9894074119902
0.021212632747318,17.9915905718973
0.0201512242478563,17.9937448277625
0.0190984355458411,17.9958881514733
0.0180577576704794,17.9980339045012
0.0170324307461274,18.0001926843866
0.0160254175648836,18.002373353619
0.0150394073599155,18.0045836586776
0.0140768257584283,18.0068306383387
0.013139844114115,18.0091209160395
0.0122303932093328,18.0114609099949
0.0113501709598508,18.013857013531
0.0105006502978745,18.0163157511499
0.00968309440468672,18.0188439007457
0.00889855776053746,18.0214486542383
0.00813021334747586,18.0242037373609
0.00737610006212532,18.02714609661
0.0066399443006047,18.0302981042503
0.0059256269955512,18.0336858668662
0.0052372285610776,18.0373396388483
0.00457898717253436,18.0412946113677
0.00395521238226063,18.0455920365097
0.00337014503274924,18.050280959717
0.00282774970826751,18.0554211924554
0.00233143074223016,18.061088906333
0.00188383965167649,18.0673853697275
0.0014928033950153,18.0743301384405
0.00116658403569498,18.0818194111621
0.000902866125653992,18.0899655267679
0.000742584037661187,18.0970533162976
0.000597715004725157,18.1059393547471
0.000491417547569602,18.1154157042407
0.000418445640817928,18.1254157042407
0.000375584106370861,18.1354157042407
0.000355525002967569,18.1454157042407
0.00035325857009972,18.1554157042407
0.00036563371192619,18.1654157042407
0.000391110061026685,18.1754157042407
0.000429596005271454,18.1854157042407
0.000482429464012855,18.1954157042407
0.00054672508651297,18.2046639439018
0.000622305579450408,18.2131623074989
0.000709897259626388,18.2209735224825
0.000810691549199552,18.2281569737235
0.000926227526960293,18.2347668658837
0.00105835275192365,18.2408527708929
0.00120922199102701,18.2464601488829
0.00138131599343431,18.2516307742087
0.0015774738866902,18.2564030968848
0.00180093632425052,18.2608125694747
0.00205540298097834,18.2648919487108
0.00234510454771882,18.268671572262
0.00267489497820876,18.2721796220617
0.00305037263293366,18.2754423944083
0.00347804064891054,18.2784845876845
0.00396552804753472,18.2813296194867
0.00452190368077816,18.2840000103592
0.00515814306644042,18.28651788972
0.00587755257819859,18.2888749390827
0.00667651126522497,18.2910578473596
0.00756834652233948,18.2931074687465
0.00857439720168171,18.2950678016728
0.00973236914675237,18.2969942747616
0.0111254299218546,18.2989835454821
0.0131258462962787,18.3014275634964
0.0145797919253879,18.3030106891826
0.0161251134217163,18.3045938148687
0.0175390370091418,18.306008516456
0.018791455152206,18.3072838646109
0.019909583606941,18.3084925978775
0.020894603215819,18.3096814672594
0.0217307641274713,18.3108906958061
0.0223857557201057,18.3121696404273
0.0227969289826469,18.3136048885164
0.022794915685725,18.3154524780162
0.0222484300775077,18.3172544664904
0.0212546444968868,18.3190564549646
0.0201555783571365,18.3205747054467
0.0189427081610626,18.3220366309734
0.0176149650463002,18.3235219623985
0.0161811063069529,18.3250714971518
0.0152563350020427,18.3260647172986
0.0143472948544993,18.3270579374454
0.0134687403765748,18.3280612872352
0.0112512428769663,18.3308397604556
0.00933502037806646,18.3336172351146
0.00779772402556541,18.3362033249607
0.00650902736520364,18.3387139718668
0.00542333042461429,18.3411621083812
0.00453391158645013,18.3434745752693
0.00379636245299464,18.3456710348546
0.00317557741809082,18.3477756341596
0.00264393939453491,18.3498169378257
0.00217857776077902,18.3518333733542
0.00175795087061317,18.3538880523049
0.00135347023724568,18.3561252130384
0.00100705387800722,18.3582966422089
0.000761539586567097,18.360010895284
0.000537709802595721,18.3617251483591
0.000354747483278671,18.3632510040856
0.000194510605711557,18.3646925937322
4.42588648348584e-05,18.3661449606842
-0.000105453196582659,18.3677005369808
-0.000267217461365403,18.369517667973
-0.000480316270409036,18.3721571714189
-0.000715207022512427,18.3754414751408
-0.000895516887322998,18.3782717396501
-0.00105675792324711,18.3810602301443
-0.00122720340757202,18.3843004274019
-0.00143144992708903,18.3886162145175
-0.00167004726795218,18.3943282022626
-0.00185885869239961,18.399598794423
-0.00199599842455436,18.404372714933
-0.00207684449511871,18.4086775796536
-0.00209454904066852,18.4125245726422
-0.00204332421732549,18.415972061663
-0.00191795310334925,18.4190750676887
-0.00171291534311915,18.4219006598527
-0.00142066465627899,18.424517064563
-0.00102723539941719,18.4270068962375
-0.000501140815550472,18.4294912421113
0.000228502633236481,18.4321627551035
0.00121553952500702,18.4350884950523
0.00218021274926615,18.4375832440582
0.00307122310850852,18.4397357926298
0.00410518025300833,18.4421372756185
0.00506737696740069,18.4442924244075
0.0060810351278168,18.4464475731965
0.00706500352063797,18.448384220176
0.00807428712853765,18.4501839782378
0.00915370847404866,18.4518973066605
0.010351600299026,18.4535659616668
0.0116993582937539,18.4551957560189
0.0132158852121316,18.4567765386542
0.0149282416066857,18.4583090049265
0.0168596837143005,18.459790132379
0.0190232327176688,18.4612112128617
0.0214506238504442,18.4625775468542
0.0241701792357455,18.4638903217932
0.0272142108451266,18.4651516017378
0.0306182753030091,18.4663634481503
0.0344285004238959,18.4675299370199
0.038697478410773,18.4686547182309
0.0434861486071755,18.4697413041009
0.0488661605693695,18.4707932455259
0.0549219225941463,18.4718140896856
0.0617549330406798,18.4728076188616
0.0694869378164587,18.473777700714
0.0782662156057605,18.4747284616804
0.0882759067653063,18.4756644208455
0.099746230459157,18.476590693975
0.112972921458915,18.477513295506
0.128345890164246,18.4784395877215
0.146397853925353,18.4793790958774
0.167894073999896,18.4803450717279
0.192831402172654,18.481314912203
0.221773739317878,18.4822947528123
0.255548241105656,18.4832975063688
0.295348564748096,18.4843440601742
0.342873308438797,18.4854685729461
0.385715717974008,18.486416179548
0.420789259051034,18.4871785981158
0.451006983005507,18.4878527056668
0.477440681144258,18.4884845524157
0.500256785996589,18.4891009437625
0.519145531907869,18.4897244430058
0.533295182541913,18.4903811856213
0.540969991784384,18.4911127992645
0.53883805175623,18.4919050264559
0.525046397544405,18.492721203458
0.498178723443491,18.4935786264482
0.456336454173175,18.4944901194059
0.397386249450732,18.4954639936976
0.350985124217845,18.4961083680738
0.299623222560944,18.4967527424499
0.254175510976317,18.4972886001029
0.215502060889962,18.4977335420374
0.181685660008238,18.4981234240019
0.151481366372829,18.4984794481255
0.124151917998055,18.4988144062443
0.0992005814432122,18.4991373843298
0.0762309242737257,18.4994563012884
0.0548414514760667,18.4997802194372
0.0344302079034614,18.5001243882343
0.013179985752503,18.5005373111439
0.00188849319931514,18.500790129653
-0.00554748715627067,18.5009743001373
-0.0123468498904369,18.5011584706215
-0.0182656358765633,18.5013341102287
-0.0243300172987578,18.5015327324549
-0.0302573426321131,18.5017503349722
-0.0358566441263206,18.5019841566026
-0.0410205289960988,18.5022330463801
-0.0456917206840325,18.5024969081048
-0.0498429546131643,18.50277637693
-0.0534652715440307,18.5030726579383
-0.0567507915498036,18.5034108908851
-0.0592467541051478,18.5037452965169
-0.0612319984105228,18.5041028174502
-0.0627238119576284,18.504487195128
-0.0637365412267408,18.5049026564464
-0.0642827603595172,18.5053544583326
-0.0643716597520909,18.5058492342414
-0.0640070532220076,18.506395521888
-0.0631828702065436,18.5070056716188
-0.0618785260789573,18.5076962238955
-0.060050994470191,18.5084912047762
-0.0576121944151327,18.5094303947839
-0.0543540171657293,18.5105957963022
-0.050242258243928,18.5120132362175
-0.046241616067066,18.5133815298212
-0.0424103021739105,18.5147081131177
-0.0387781458619417,18.5159959092837
-0.0353606109848898,18.5172460576722
-0.0321651500615456,18.5184587964893
-0.0291939477895063,18.5196339249291
-0.0264453257617797,18.5207710466535
-0.0239146183196766,18.5218696965914
-0.0215948251321301,18.5229294030348
-0.0194771578482761,18.5239497118732
-0.0175515234856172,18.5249301872672
-0.0158069575393845,18.5258703966064
-0.0142153757813994,18.5267796772106
-0.0126810851837521,18.5277120453544
-0.0112090838634271,18.5286687328669
-0.0098033784435491,18.5296517239303
-0.00846780437567462,18.5306633362478
-0.00720597069702828,18.5317063064294
-0.00602120936789777,18.5327838964825
-0.00491652237748022,18.5339000360613
-0.00389452673451456,18.5350595166081
-0.0029573970938625,18.5362682631485
-0.0021068052728395,18.5375337264066
-0.00134385503216154,18.5388654692478
-0.000669008903785324,18.5402760831957
-8.20007233886262e-05,18.5417827019169
0.000415295778570332,18.5433986210669
0.000805882752968575,18.5450546331583
0.00110707186579845,18.5467691495867
0.00133378489837719,18.5485614900021
0.00149991573682186,18.5504570600862
0.00161868572063375,18.5524910301895
0.00170315214861284,18.5547157950243
0.00176707265435163,18.5572180081662
0.00182707014697693,18.5601676843636
0.00190757884394165,18.5639074612296
0.00201066910032862,18.5677567982951
0.00214945188856434,18.571949341556
0.00231596809517117,18.5762926441977
0.00252076233101527,18.5811950023029
0.00273453124079645,18.5860929427354
0.00295396270163891,18.5910243108852
0.00315203248556531,18.5954166032787
0.00333222786004841,18.5993616160203
0.00350682632077578,18.6031239178348
0.00368184870136372,18.6068194092532
0.00386121090922021,18.610513512699
0.00404808286171679,18.6142517149811
0.00424538524187493,18.6180699367484
0.00445605318053611,18.6219993597649
0.00468323694549681,18.6260694884104
0.00493045322388848,18.6303097568117
0.00520175921347885,18.6347508240079
0.00550200199902695,18.6394257391635
0.0058372452433611,18.6443713896171
0.00621546776299915,18.6496296526876
0.00660892925783952,18.6547554681663
0.00702701392278729,18.6598417499471
0.00746981705790177,18.6648447908474
0.00794236118143017,18.6697751940184
0.00844969085726712,18.6746348119808
0.00899797110477438,18.6794291339456
0.00959393858722227,18.6841609549707
0.0102449968926795,18.6888311183905
0.0109674069927966,18.6934887075523
0.0117814005199553,18.6981775621835
0.0127047411934269,18.7029000357686
0.0137631835845393,18.7076785155232
0.0149953443767718,18.7125621993719
0.0164713817235431,18.7176730929624
0.0183705072648458,18.723388307128
0.0207924207622915,18.7297632683807
0.022317044279864,18.7334854983709
0.0238639556473573,18.737207728361
0.0252096027356816,18.7405601608274
0.026344046416413,18.7436620911424
0.0272736750165546,18.7466723374735
0.0279405087300894,18.7495330241483
0.0283424702771141,18.7523390803881
0.0284632745756511,18.7552255883726
0.0282377209246426,18.7584178222626
0.0273548458998534,18.7627712843747
0.0264858418250361,18.7655661962618
0.0254301061285639,18.7683611081489
0.0243610444796852,18.7708692504278
0.0232933978462513,18.7732004214891
0.0222254446947182,18.7754352493191
0.0211592206612654,18.7776164146416
0.0200981601558933,18.7797697351842
0.0190458991899663,18.781912884251
0.0180059176458775,18.7840590500465
0.0169814420503924,18.786218722881
0.0159754213259889,18.7884006966615
0.0149905311880274,18.7906126739571
0.0140291843583101,18.7928616663074
0.0130935397973971,18.7951542823058
0.0121855163711389,18.7974969350375
0.0113068006785367,18.7998960204451
0.0104588546709254,18.8023580731974
0.0096429310224626,18.8048898881791
0.00886007423875612,18.8074986810988
0.00809233989050354,18.8102626331481
0.00733902955094964,18.8132148553666
0.00660386415653508,18.8163779383221
0.00589073567628154,18.8197781768873
0.00520373352453114,18.8234460510234
0.0045471018826348,18.8274170232369
0.00392515062403033,18.8317326860451
0.00334211198190337,18.8364425394878
0.00280193103903546,18.8416070377502
0.00230797683976052,18.8473033733351
0.00186286188411528,18.8536343509177
0.00147518912860479,18.8606037276687
0.00115200028412307,18.8681224752449
0.000891797417983537,18.8763045810898
0.000727154905154963,18.8837662324008
0.000588422799769061,18.892547301568
0.000484234010557717,18.9021280065769
0.000414001683017653,18.9121280065769
0.00037317734030517,18.9221280065769
0.000354673374363036,18.9321280065769
0.000353644877745564,18.9421280065769
0.000367077367553851,18.9521280065769
0.000393548403358675,18.9621280065769
0.0004330755972578,18.9721280065769
0.000486949445941109,18.9821010535282
0.000552109326994259,18.9912901777283
0.000628580781599542,18.999733205099
0.000717138542653783,19.0074938404037
0.000819004188245658,19.0146310895245
0.000935741506885578,19.0211987767721
0.0010692214883684,19.0272461367082
0.00122162305869624,19.0328183285326
0.00139545314546881,19.0379568554983
0.00159357986956548,19.0426999231514
0.0018192768122732,19.0470827638672
0.00207628137572213,19.0511379366231
0.00236886836821516,19.054895601887
0.00270194381260657,19.0583837848973
0.00308116883708099,19.0616286467311
0.00351312380372408,19.0646547735743
0.00400553491280294,19.0674854972716
0.00456759744243069,19.070143286047
0.00521045783230702,19.0726502627552
0.0059355734956267,19.0749924440624
0.00674105344933953,19.0771635617673
0.00764069659197015,19.0792046011693
0.00865666465464945,19.0811599734845
0.00982860807668167,19.0830866990448
0.011246089066464,19.0850875235585
0.0133413308344995,19.0876147555109
0.0147850625537277,19.0891698414413
0.0163113809557213,19.0907249273717
0.0177020030815679,19.0921160126363
0.0189371621473379,19.0933798414365
0.0200394319047208,19.0945838299626
0.0210074572234316,19.0957729169232
0.0218236523828453,19.0969875837182
0.0224531447967914,19.0982796540573
0.0228270715500171,19.0997446028258
0.0227422831763175,19.101695307822
0.0221516051161539,19.1034180030504
0.0211642086640854,19.1051406982788
0.0200601362434635,19.1066426530524
0.0188378592611581,19.1081038352782
0.0175008998519371,19.1095930312893
0.0160584932663284,19.1111494972605
0.0151869951643936,19.1120857186429
0.014331376419042,19.1130219400254
0.0133868601318782,19.1141035289865
0.0111649801325945,19.1169024769375
0.00926531215460649,19.1196728734123
0.00774132937466753,19.1222520393341
0.0064597856763198,19.1247638340864
0.00538312895383525,19.1272062087073
0.00450075751383638,19.1295135620137
0.00376864404700942,19.131705822678
0.00315204143655486,19.1338072604046
0.00262357912422119,19.1358467033711
0.00216052065645953,19.1378631758117
0.00174126458268161,19.1399214679573
0.00133651988423408,19.1421722535928
0.000997462869451297,19.1443075856426
0.000753917427965548,19.1460138302894
0.000531770254583449,19.1477200749362
0.000349770822832971,19.1492416565131
0.000189999043887139,19.1506823402901
3.99213495906143e-05,19.1521362687483
-0.000109896152722473,19.153696547954
-0.000272284679537578,19.1555254434452
-0.000488759458371004,19.1582169584739
-0.000720266152641551,19.1614667138005
-0.000898458500531094,19.1642707817931
-0.00105919506624293,19.1670556210191
-0.00122974404039342,19.1703034289734
-0.00143462887475451,19.174641180937
-0.00167248333696061,19.1803475056501
-0.00186058448999803,19.1856115086676
-0.00199699851577542,19.190379397588
-0.00207703484819046,19.194677942404
-0.00209386982414781,19.1985195838148
-0.00204171420285541,19.2019623047071
-0.00191536028634261,19.205061297109
-0.00170927508438057,19.207883701242
-0.0014158359869906,19.2104980737143
-0.00102097653744598,19.2129869702747
-0.00049282979079087,19.2154724125212
0.000239393139084328,19.2181455548316
0.00123050094485552,19.2210766705679
0.00219258654698497,19.223561447689
0.00308408364712179,19.225713794449
0.00412221806303338,19.2281236901222
0.00507950888302281,19.2302665558035
0.00608800102243021,19.2324094214848
0.00707322859128199,19.2343472060394
0.0080824542546827,19.2361452349898
0.00916245097253947,19.2378577532668
0.0103618059861906,19.2395265823421
0.0117107529321042,19.2411558469621
0.0132291754807426,19.2427366130521
0.0149431197910541,19.2442685102324
0.016876340948477,19.2457490791156
0.0190421766665025,19.2471698191405
0.0214718070384907,19.2485356443042
0.0241938421097174,19.2498479301185
0.0272406475047271,19.2511087520503
0.0306480607975341,19.2523202534707
0.0344618980217597,19.2534863726515
0.0387349549625665,19.254610812451
0.0435282578676387,19.2556970870657
0.0489135701180908,19.2567487504437
0.0549753998273583,19.2577693457905
0.0618154043050949,19.2587626576373
0.0695555236858953,19.2597325553039
0.0783442886417813,19.2606831678024
0.0883651878196129,19.2616190193393
0.0998488739405332,19.2625452293107
0.113091735447126,19.2634678219592
0.128484628649168,19.2643941732613
0.146561742139893,19.2653338309315
0.168090842823491,19.266300087748
0.19305937406091,19.2672699628499
0.222038930423529,19.268249926566
0.255858816110145,19.2692529339463
0.295717198487567,19.2702999768311
0.343285588596391,19.2714246412204
0.386044910486586,19.2723700483097
0.421067962734653,19.2731313854015
0.451251323909889,19.273804976064
0.47765474855809,19.2744365823867
0.500439766361275,19.2750529309925
0.519292900827124,19.2756765841731
0.533397129819978,19.2763337451082
0.541004727020684,19.2770662719022
0.538777643837705,19.2778586173575
0.524880922025927,19.2786750750181
0.497893650058139,19.279532911104
0.455913830401288,19.2804449074021
0.39680740560682,19.2814193541543
0.350461812626007,19.2820620364343
0.299193198628933,19.2827047187143
0.253821021258489,19.2832394881276
0.215197012187463,19.2836838200236
0.181415396651029,19.2840733395567
0.151237960047838,19.2844291371655
0.123930426253052,19.2847639571747
0.0989973857039984,19.285086866507
0.0760428127474162,19.2854057830824
0.0546646010079892,19.2857297928839
0.0342572786195677,19.2860742459923
0.0129770466413065,19.286488362532
0.00183564641908321,19.2867381290952
-0.00559352586153026,19.286922235378
-0.0123866957936078,19.2871063416609
-0.0183035998361865,19.2872820275901
-0.0243678759615988,19.2874807758097
-0.0302936709999289,19.2876984839871
-0.0358905647665247,19.2879323999154
-0.041051558943943,19.2881813805432
-0.0457196127505909,19.2884453349687
-0.0498676047506541,19.2887249022595
-0.0534866633095731,19.2890212907347
-0.0567742222113257,19.2893603094249
-0.0592659900066851,19.289694904443
-0.0612470893608863,19.2900526319056
-0.0627348777316541,19.2904372474377
-0.0637436941018554,19.2908529855415
-0.0642860916238536,19.2913051129682
-0.0643712250461766,19.2918002764849
-0.0640028534011991,19.2923470326075
-0.063174796417906,19.2929577728964
-0.0618663305453662,19.2936490766663
-0.06003417740428,19.2944450574958
-0.0575897006657391,19.2953856906436
-0.0543230251714892,19.296553599839
-0.0502118658223609,19.2979705797449
-0.0462123266270203,19.2993385399524
-0.0423824246986299,19.3006648223749
-0.0387518393623333,19.3019523314628
-0.0353359571438902,19.3032021971698
-0.0321421830224253,19.3044146530226
-0.0291726682271446,19.3055894960206
-0.0264257089035755,19.3067263289372
-0.0238966194889787,19.307824686479
-0.0215783841904232,19.3088840970167
-0.0194622030553266,19.3099041065992
-0.0175379749526973,19.310884279484
-0.015794730317842,19.3118241829973
-0.0142035706279868,19.3127336369306
-0.0126697428492792,19.3136661862462
-0.0111982358375289,19.3146230691566
-0.00979305508479379,19.315606272153
-0.00845803447688605,19.3166181158383
-0.00719678110183707,19.3176613404385
-0.00601262456896772,19.3187392125232
-0.00490856409822704,19.3198556675846
-0.00388721349359585,19.321015504666
-0.00295074374883663,19.3222246588937
-0.00210082253426031,19.3234905947575
-0.00133854893019617,19.3248228944749
-0.000664380172636683,19.3262341778602
-7.80440339117222e-05,19.3277416220739
0.00041838161324555,19.3293577863489
0.000808238582079772,19.3310141786376
0.00110881499134459,19.3327292041275
0.00133502379257233,19.3345222195861
0.00150075231346902,19.3364186873942
0.00161921855557848,19.3384538732587
0.00170348122972071,19.3406803479561
0.00176730863035694,19.343185140885
0.0018273584102632,19.3461393005425
0.00190795114192205,19.3498785857048
0.00201127792180554,19.3537305009604
0.00215023871367696,19.3579232382198
0.00231694705102844,19.3622682436544
0.00252206670939557,19.3671763274493
0.00273586735955514,19.3720739061042
0.0029553731736212,19.3770064002623
0.00315325023984649,19.3813939440309
0.00333337819015495,19.3853370469923
0.00350796469567284,19.3890985769123
0.00368300670412773,19.3927938652734
0.0038624120164901,19.3964881304128
0.00404934760069392,19.4002267681597
0.00424673344106051,19.4040456527216
0.00445750552398575,19.4079759457774
0.00468481609693822,19.4120471461531
0.00493218490220943,19.4162886922256
0.00520367355980466,19.4207312553392
0.00550413575525326,19.4254079057278
0.0058396455306112,19.4303555617509
0.00621819814144563,19.4356161386085
0.00661175124498508,19.4407407007355
0.00703002379235225,19.4458267113489
0.00747301367697849,19.4508291432216
0.00794578604982675,19.4557590503683
0.00845338216225744,19.4606181870908
0.0090019747644009,19.4654120624003
0.00959830423270645,19.4701434488025
0.0102497790743257,19.4748131770895
0.0109727883978134,19.4794710340086
0.0117874789225218,19.4841600722246
0.0127116720730488,19.4888828474258
0.0137711814578312,19.4936618468981
0.015004757739344,19.4985465715944
0.0164829194486182,19.5036598666282
0.0183864345426288,19.5093824892809
0.0203016726989438,19.5144784942639
0.0218879243638834,19.5183989420732
0.0235177965673432,19.5223193898826
0.0249201132906507,19.5257680985501
0.0261017292032791,19.5289123671395
0.0270793614422001,19.5319316611567
0.0278083259414417,19.5348213279998
0.0282727992272243,19.5376291444786
0.0284628014721748,19.5404821957366
0.0283295374523188,19.5435702335489
0.0276784368836577,19.5474423565264
0.026845514932633,19.5504387302107
0.0257784508283536,19.5534351038949
0.0247035740667053,19.5560397547615
0.0236354140516049,19.5584171149588
0.0225674166520757,19.5606769862153
0.0215002706406492,19.5628719897071
0.0204371392807141,19.565032031138
0.0193816537574009,19.5671768515587
0.0183373607872439,19.5693208235376
0.0173075722304768,19.5714751663669
0.0162953263683817,19.5736491366742
0.0153033849599317,19.575850736117
0.0143342440369273,19.5780871613433
0.0133901421526653,19.5803651248434
0.012473073473121,19.5826910829607
0.0115847986073937,19.5850714180768
0.0107268500418544,19.5875126057247
0.00990054685044383,19.5900213414133
0.00910699820822194,19.5926046936343
0.00833548485511675,19.5953126852985
0.00757717093513921,19.5982026964571
0.00683581147208864,19.6012959513751
0.00611522550444811,19.6046175723061
0.00541944484680184,19.6081966201769
0.0047526713243602,19.6120668672112
0.00411920631272566,19.6162677998387
0.00352332747189928,19.6208461355937
0.00296909594171956,19.6258584045896
0.00246009507333678,19.6313756391226
0.00199918721180078,19.6374913046877
0.00158977682226736,19.644307988258
0.00124700187149895,19.6516439234605
0.0010226303151481,19.6577656336657
0.000851143331770045,19.6638873438709
0.000679067012899319,19.6723992371955
0.000554051374686979,19.6812481511251
0.00045961044950632,19.6910670689341
0.000399094756799755,19.7010670689341
0.0003655530427613,19.7110670689341
0.000352665779843973,19.7210670689341
0.000356177060820838,19.7310670689341
0.000373569444254314,19.7410670689341
0.000403857990123282,19.7510670689341
0.000447477340304528,19.7610670689341
0.000504625519964336,19.7708063843103
0.000572997139976355,19.7797728046548
0.000652852997809464,19.7880121937613
0.00074511010622506,19.7955868312973
0.000851094145797445,19.8025541506856
0.000972458490173845,19.8089665886086
0.00111116180971945,19.8148721522073
0.00126947497502739,19.8203149036258
0.00145000541544652,19.8253353569087
0.00165573301267266,19.8299708254103
0.00189005880535508,19.8342557383436
0.00215686664612227,19.8382219336488
0.00246060293109288,19.8418989268477
0.00280637721872067,19.8453141752563
0.00320009659408014,19.8484933534934
0.00364864550234201,19.8514606492938
0.00416013504693154,19.8542390995348
0.00474426447603576,19.8568510106427
0.00541286757874428,19.8593185291308
0.00616019882693788,19.8616069921219
0.00699124242791471,19.8637360181806
0.00792178651341777,19.865747298557
0.00897762672692939,19.8676873819217
0.0102074221289862,19.8696210112435
0.0117354980958227,19.8716851722749
0.0134749926878556,19.873732701272
0.0149346017822015,19.8752941575584
0.0164730451920146,19.8768556138449
0.0178460235533601,19.8782295890384
0.0190660450890863,19.8794840793961
0.020153981062763,19.8806843871861
0.0211064528468502,19.8818742017816
0.0219042138488186,19.8830944260079
0.0225099061211335,19.8843994547817
0.0228482229547144,19.8858942231835
0.0226744039290856,19.8879623403883
0.022040145060858,19.8896208900096
0.0210505784600776,19.8912794396309
0.0199365688825065,19.89276787302
0.0187019108582039,19.894229339804
0.0173532565270716,19.8957239403458
0.0159000264946755,19.8972896658904
0.0150272262588839,19.8982280317088
0.0141752576445225,19.8991663975271
0.0118764830785562,19.9019315521663
0.00982583798933622,19.9047805205188
0.00819156601117016,19.9074193357295
0.00685248740609332,19.9099236463993
0.0057028107226233,19.9124126882019
0.00476362608342918,19.9147615890341
0.00398780587628483,19.9169881754058
0.00333765547615918,19.919115831008
0.00278374896296584,19.9211715217742
0.00230217428512051,19.9231900664602
0.00187149719084977,19.9252250011663
0.0014668177310855,19.9273854093523
0.00102781239148589,19.9300754829924
0.000782527961053089,19.9317748411768
0.000558776814845606,19.9334741993613
0.000372603906721733,19.9350141916974
0.000210728075769681,19.9364596769076
5.99298202744639e-05,19.9379067558383
-8.9294094268332e-05,19.9394456071638
-0.000248756952958284,19.9412216652443
-0.000450943434070953,19.943695180181
-0.000703305493445718,19.9471853922006
-0.000895876827190756,19.9501995841098
-0.00106146100737482,19.9530686394809
-0.00123419943219767,19.9563650405759
-0.00144201651433962,19.9607801997914
-0.00167840672191698,19.966475610167
-0.00186503591130383,19.9717250914695
-0.00199991474243003,19.9764789829368
-0.00207826981956932,19.9807654588802
-0.0020932214646486,19.9845958683733
-0.00203904461471425,19.9880267872348
-0.00191045093504013,19.9911184494968
-0.00170204562552219,19.9939332983753
-0.00140605927940505,19.9965421681746
-0.00114246249303672,19.9982710840873
-0.000816666346453978,20
