ecg,time
0.0222644651224212,15.0026931445573
0.0238322687218007,15.0064395929906
0.0251959667787212,15.009807840334
0.0263455926677058,15.0129175265752
0.0272892553311708,15.015930306127
0.0279709688811508,15.0187979843334
0.0283862285073424,15.0216073724912
0.0285195740376537,15.0244928821707
0.0283076848335009,15.0276758156383
0.0274554716636473,15.0319685854338
0.0265885830871404,15.0347887064585
0.0255284428548394,15.0376088274831
0.0244540963761623,15.0401328012068
0.0233808248040416,15.0424751029622
0.0223066249064133,15.0447192995029
0.0212335067251534,15.04690921673
0.0201649593349337,15.0490712297116
0.0191046897808808,15.0512233554225
0.0180562514477559,15.0533790323081
0.0170229427816243,15.0555489588717
0.0160077832461195,15.0577421180868
0.015013516870682,15.0599663984942
0.0140426231240055,15.0622290028242
0.0130973260585611,15.0645367436218
0.0121796076131102,15.0668962579718
0.0112912163259893,15.069314189609
0.0104336737128353,15.0717973541591
0.00960829049670965,15.0743528651975
0.0088161673443088,15.0769883033913
0.00804675162463471,15.0797547412826
0.0072917711290647,15.0827095110232
0.00655504488289368,15.0858746572315
0.00584044615583809,15.089276239974
0.00515203618726796,15.0929444090364
0.00449401757889429,15.0969141670059
0.00387064041506124,15.1012264691443
0.00328605499614459,15.1059299172281
0.00274410135155913,15.1110836264746
0.00224800556029851,15.1167628131861
0.00180019781741953,15.1230670565999
0.00140729691078042,15.1300317594009
0.00107808558631284,15.1375453203802
0.000813609493468362,15.1457209187318
0.000606889104752909,15.1550050021364
0.000476895311545475,15.1632459989746
0.000364310755899709,15.1730603253604
0.000284672418123318,15.1830603253604
0.000230515641980373,15.1930603253604
0.000194592456273452,15.2030603253604
0.000171572835704318,15.2130603253604
0.000157631745023104,15.2230603253604
0.000150121273292295,15.2330603253604
0.000147257656811807,15.2430603253604
0.000147858295371774,15.2530603253604
0.000151150200825684,15.2630603253604
0.000156643140151818,15.2730603253604
0.00016404919100925,15.2830603253604
0.000173232166830588,15.2930603253604
0.000184176255907859,15.3030603253604
0.000196968167269113,15.3130603253604
0.000211790064304486,15.3230603253604
0.000228922266332775,15.3330603253604
0.000248755948351554,15.3430603253604
0.000271817432246236,15.3530603253604
0.000298807524739561,15.3630603253604
0.000330662174820879,15.3730603253604
0.000368645296346697,15.3830603253604
0.000414492469841209,15.3930603253604
0.000468356574414224,15.4026849875981
0.000529474932357081,15.411597550387
0.000598662223168327,15.4198371847106
0.000676965288720759,15.427454113606
0.000765598005528022,15.4344955862062
0.000865941920826687,15.4410056011426
0.000979562410681854,15.4470251451406
0.00110823148646267,15.4525924130064
0.0012539558141186,15.4577429833799
0.00141900680646766,15.4625099874894
0.00160595687038946,15.4669242834875
0.00181772048109121,15.4710146294242
0.00205760464467695,15.4748078352933
0.00232936575081408,15.4783289040232
0.00263728314895585,15.4816011859329
0.00298624861481305,15.4846465410471
0.00338188030518358,15.4874854950144
0.00383067207682936,15.4901374130563
0.00434019304066401,15.4926207049509
0.00491936423763442,15.4949530633244
0.00557885661725312,15.4971517726067
0.00631861086593564,15.4992010757452
0.00713393539232451,15.5010907485885
0.00803490342853117,15.5028520528553
0.0090364091725133,15.5045159066267
0.0101614042845804,15.5061151714015
0.0114498501517206,15.5076918460094
0.0130458917340594,15.5093762278719
0.0153300204337465,15.5114416774657
0.0170567369164049,15.5128303278298
0.0189004955151704,15.5142189781939
0.0206020370851617,15.5154641565644
0.0221147219369096,15.5165843416364
0.0234757273446802,15.517646640404
0.0246899303214363,15.5186940095619
0.0257418629105932,15.5197636048669
0.026597289037414,15.5209019135903
0.0271882104071506,15.5221929838843
0.0273228030556346,15.5239019039677
0.0268155946400289,15.5255218502938
0.0258041098271166,15.5271417966199
0.0246391778698775,15.5285299904719
0.0233188550700513,15.5298888937738
0.0218441474984866,15.5312900037218
0.0202235059071188,15.5327736653616
0.0184615386254234,15.5343803057463
0.0165861621347026,15.5361656708153
0.0146985174067515,15.5381278654509
0.0126564886920742,15.5404999312091
0.0108649610003681,15.5428688430733
0.00924144233506472,15.5453356042383
0.00782509224945386,15.5478317899009
0.00661317238111215,15.5503228598785
0.00582800899476365,15.5521748308891
0.00513085791886973,15.5540268018997
0.00455717361998048,15.5557381419156
0.00405714329170109,15.5574050020609
0.00359470275703304,15.5591302362793
0.00314025259129002,15.5610454898763
0.00264639032928845,15.5634544521154
0.00211559785362031,15.5665849289397
0.00169133217947948,15.5697044743844
0.00136860294419749,15.5726684476011
0.0010898207375613,15.575917225507
0.000837202258493814,15.5798937464039
0.00064856795782254,15.5844132499075
0.000544280472523536,15.5894582855159
0.000542469226243685,15.5940978526034
0.000623936365266388,15.5982954523759
0.000777820104304641,15.6020934885304
0.000999239317743463,15.6055348921675
0.00128716650425949,15.6086657183411
0.00164346925056994,15.6115325441848
0.0020732146668696,15.6141843245215
0.00258566928842335,15.6166723432843
0.00319563352398433,15.6190491567124
0.00392758954495639,15.621375350496
0.00482429124445264,15.6237294140246
0.00595613343717113,15.6262066337487
0.00739064648535921,15.6288417011243
0.00903772442625093,15.631404068677
0.0106845035350697,15.6336031999079
0.0123077714670315,15.6354856133643
0.0139723442706847,15.6371690961764
0.0157528287611464,15.6387373988751
0.0176868146746949,15.6402155987387
0.0198215726200802,15.6416263266691
0.0221911379231531,15.642975978647
0.0248403150504453,15.6442736396164
0.0278050599830326,15.6455207728419
0.0311355207070238,15.6467230752741
0.0348761389127029,15.6478817217765
0.0390865341099718,15.649000962052
0.0438314877540197,15.6500838920594
0.0491851302535865,15.6511334985311
0.0552327461041477,15.6521526901305
0.062081607156186,15.6531455349644
0.0698576955218263,15.6541158096087
0.0787147557673111,15.6550676389413
0.0888420849619569,15.6560055137321
0.100481502322791,15.6569348523019
0.11394466208354,15.6578619978009
0.129646024818258,15.6587948245862
0.148159193981603,15.6597437267048
0.170149053830942,15.6607163537697
0.195624921475098,15.6616919660529
0.225249923072053,15.6626806146767
0.259913169524021,15.6636967557271
0.300947836113661,15.6647649763396
0.33878860119552,15.6656643558717
0.378810427553371,15.6665637354038
0.413701794442616,15.6673337799208
0.44394024501322,15.6680169889881
0.470398317389109,15.6686557565093
0.493252494903934,15.6692771108956
0.512216456753009,15.6699035235487
0.526520980969302,15.6705603291715
0.534541661079169,15.6712864237051
0.533059098208537,15.6720812007625
0.520050803060661,15.6728977487347
0.494152503584989,15.6737533135253
0.453529014096763,15.6746607586741
0.396103751167448,15.6756285628654
0.349807074031695,15.6762816216837
0.298353863377068,15.6769346805021
0.252795863997629,15.6774765401381
0.214059623832388,15.6779252528824
0.180206714490297,15.6783176904042
0.149977424002222,15.6786755618239
0.122629169309359,15.6790118806659
0.0976643650893355,15.679335819385
0.0746888932277727,15.6796552864554
0.0533090301479719,15.6799791842386
0.0329494945193517,15.6803221170794
0.011967264946466,15.6807281595124
-0.000475297718112117,15.6810063153128
-0.00791610549576542,15.6811913401368
-0.0147190108572511,15.6813763649607
-0.0206389496923857,15.6815527866452
-0.0266913313874855,15.6817518694169
-0.0326076054666464,15.681969992523
-0.0381968020003327,15.6822043818728
-0.0433513493215929,15.6824538735658
-0.0480138784905413,15.6827183651282
-0.0521570595947636,15.6829984890814
-0.0557693033693988,15.6832954498714
-0.059018614479315,15.6836316584387
-0.0615080019938482,15.6839666088585
-0.0634872349932781,15.684324718367
-0.0649731419008566,15.6847096886414
-0.0659799145073518,15.6851257394965
-0.0665199675609601,15.6855781176397
-0.0666023238902095,15.686073440514
-0.0662306224006944,15.6866202201307
-0.0653985989261002,15.6872307662175
-0.0640854879247034,15.6879215444247
-0.0622481528532516,15.6887164311496
-0.0597986926095813,15.689654855448
-0.056530757018383,15.6908176531539
-0.0523976097562267,15.6922345727601
-0.0483751339416433,15.6936020892563
-0.0445217132523807,15.6949277217549
-0.0408673475043067,15.6962144416643
-0.0374276426873318,15.69746341859
-0.0342101649676166,15.6986749113126
-0.0312171885727654,15.699848733962
-0.028447106406783,15.7009845015521
-0.0258953110677497,15.7020817578392
-0.0235548521490009,15.7031400379486
-0.0214169864867042,15.7041588928502
-0.0194716644305747,15.705137890112
-0.0177079650960098,15.7060765988423
-0.016093467468665,15.7069867669251
-0.0145357708815181,15.7079200603264
-0.0130398157897954,15.7088777429904
-0.011609572926911,15.7098618109567
-0.0102488323987541,15.7108745967154
-0.00896114683411392,15.7119188552318
-0.00774977834731523,15.712997871604
-0.00661764251941518,15.7141156049802
-0.00556724915332529,15.7152768851515
-0.00460063900307015,15.7164876880719
-0.00371931478680241,15.7177555338515
-0.00292416321415881,15.719090082904
-0.00221536179694971,15.7205040694019
-0.00159225811588138,15.7220148464566
-0.00105761486384422,15.7236320246644
-0.000628541001000137,15.7252899719063
-0.000287459452697608,15.7270070715819
-1.91139631570739e-05,15.7288028312499
0.000190845424214856,15.7307029437601
0.000356289951625593,15.7327430626663
0.000491267833471469,15.7349764760902
0.000611214265589886,15.7374917496304
0.000736057725808629,15.740464184755
0.000895023801237491,15.7442017350533
0.001076524379101,15.7480642090966
0.00130744610931554,15.752463664661
0.00158923257881137,15.7574133184107
0.00187540889479504,15.762235585764
0.00212889112798112,15.7664497869244
0.00236810517407515,15.7704250067919
0.00260137904717127,15.7743101879098
0.00283384041452479,15.7781839301756
0.00306951010114697,15.7820983540957
0.00331199619520001,15.786093994976
0.00356476282772617,15.7902055271833
0.00383131787777064,15.7944650574099
0.00411539233235805,15.7989044314617
0.00442113209083928,15.8035567167824
0.00475339299850643,15.8084576661449
0.00511820018138144,15.8136468990593
0.00550536632304889,15.8189248024586
0.00590419796673772,15.8241050627603
0.00632052166673662,15.8292277149888
0.00675588247980144,15.8342679652146
0.0072149159344418,15.8392342133192
0.00770242586206833,15.8441303001494
0.00822395140239555,15.8489617601767
0.00878549706075166,15.8537321028569
0.00939360007782422,15.8584428966726
0.0100554111449068,15.8630939597593
0.0107859339526902,15.8677269692006
0.0116062085563316,15.8723930849211
0.0125332285271515,15.8770925481038
0.0135920201699908,15.8818467191824
0.01481958075869,15.8867010269736
0.0162816321140667,15.8917663082604
0.0181380642271316,15.8973716895939
0.0205617081494389,15.9037698848591
0.0221184456663949,15.9075637339531
0.0237066500975976,15.9113575830471
0.0250902468735525,15.9147583288074
0.0262571272538862,15.9178828847509
0.0272184589970597,15.9208985469894
0.0279230085938357,15.9237763961051
0.0283613211693926,15.92658595035
0.0285203275111726,15.9294584488459
0.0283431009757348,15.9326011533292
0.027583265733095,15.9366981622759
0.0267303953635492,15.9395911144154
0.0256670268986452,15.9424840665549
0.024590919369019,15.9450440076533
0.0235176052675389,15.9474038865106
0.0224434544046381,15.9496576500342
0.0213700090882959,15.9518528020916
0.0203006651815288,15.9540172685604
0.0192391317348204,15.9561698601558
0.018188989973996,15.9583244723156
0.0171535729563485,15.9604920847107
0.0161359355479205,15.9626818592852
0.0151388563377092,15.9649017984863
0.014164847756128,15.9671591752205
0.0132161654936625,15.9694608397784
0.0122948220036783,15.9718134413471
0.0114025946882926,15.974223615812
0.0105410331901933,15.9766981509553
0.00971147511854626,15.9792441148088
0.00891504672970353,15.9818690246012
0.00814406538137482,15.9846128802392
0.00738702679656983,15.9875425502689
0.00664776456085864,15.9906795354515
0.00593012465614871,15.9940494268112
0.00523814647273129,15.9976818145546
0.00457601890230783,16.0016110303049
0.00394799280314883,16.0058771943545
0.00335824231561559,16.0105278013839
0.00281066031096154,16.0156204067429
0.00230856618126068,16.0212277706118
0.00185449629896029,16.02744580104
0.00145306797111346,16.0343484784092
0.00111620767621665,16.0417877270573
0.000843016744750502,16.0498726207263
0.000660360970384911,16.0575503693253
0.000510807014469985,16.0661381337911
0.000390166122601856,16.0757404644747
0.000302424019269995,16.0857404644747
0.00024256483634271,16.0957404644747
0.000202630767986595,16.1057404644747
0.000176797178658708,16.1157404644747
0.000160877295508288,16.1257404644747
0.000151960890922521,16.1357404644747
0.000148079076272649,16.1457404644747
0.000147921081904518,16.1557404644747
0.000150625293601875,16.1657404644747
0.000155639217700416,16.1757404644747
0.000162629935865342,16.1857404644748
0.000171427447813796,16.1957404644748
0.000181989134826638,16.2057404644748
0.000194378830367798,16.2157404644748
0.000208757264830034,16.2257404644748
0.000225382514266246,16.2357404644748
0.000244620379375447,16.2457404644748
0.000266965944427278,16.2557404644748
0.000293079306301862,16.2657404644748
0.000323841039996028,16.2757404644748
0.000360437083803681,16.2857404644748
0.000404489726881799,16.2957404644748
0.000456961083480298,16.3055164317178
0.000516550204823057,16.3145748905002
0.000584014519882239,16.3229496604663
0.000660365377362651,16.3306914989635
0.000746783322571181,16.337848361737
0.000844614634304522,16.3444649046818
0.000955385262005957,16.3505827212056
0.00108082264442581,16.3562405699345
0.00122288269828399,16.3614745597806
0.00138377987655951,16.3663183159432
0.00156602130238304,16.3708031541817
0.00177244760398491,16.3749582551442
0.00200628071102993,16.3788108223079
0.00227117929529423,16.3823862216458
0.00257130891450724,16.3857081335291
0.00291142691262284,16.3887987148748
0.00329699186769972,16.3916787555925
0.0037343037428969,16.394367846941
0.00423069132142025,16.396884580049
0.00479477115155048,16.399246775976
0.00543681491923547,16.4014717760075
0.00616209572128843,16.4035579426447
0.00696133827208628,16.405477969161
0.00784380630278086,16.4072632012763
0.0088232878669859,16.4089446555944
0.00992063384216711,16.4105544126693
0.0111710877094971,16.4121316579046
0.0126885694192447,16.4137822531752
0.0147618329598953,16.4157194452715
0.0165428625013474,16.4171911986199
0.0184691109419513,16.4186629519682
0.0202329906508389,16.4199580534625
0.0217844068842144,16.4211001760993
0.0231781280599096,16.4221714127661
0.0244260408695552,16.4232190682269
0.0255166859741577,16.4242802949085
0.0264206149231644,16.4253979399853
0.0270803615455532,16.426642915232
0.0273541505958651,16.4282040517862
0.0269792442145613,16.4299097928769
0.0260129082602803,16.4316155339676
0.0248764685044518,16.4330269436721
0.0235871122530033,16.4343840118808
0.0221420745861482,16.4357734705173
0.0205495903136785,16.4372380701197
0.0188155105463886,16.4388170123733
0.017425104802805,16.4401101317513
0.0161101509862943,16.4414032511293
0.0138813436253833,16.4438023724856
0.0119410051016062,16.4461695587657
0.010222611877163,16.4485638946496
0.0086280804914089,16.4511321289482
0.00730984249053131,16.4536060700818
0.0061650331882667,16.4561156154966
0.00534899498334408,16.458186313789
0.00473578669412598,16.459948285101
0.00421580154834266,16.4616204137834
0.00374365264286549,16.4633178127988
0.00328940475480873,16.4651554848252
0.0028159728324162,16.4673495716779
0.00226164756884674,16.4704234341102
0.00178695184032417,16.473711542747
0.00144186256166659,16.4767140878787
0.0011543115908138,16.4798731709196
0.000895679232204526,16.4836385869895
0.000689378708748943,16.4880459666125
0.000563542845879071,16.4929547002266
0.000538165699962564,16.4977341915354
0.000600537293493842,16.5020334014777
0.000737413369491403,16.5059265690852
0.00094265946632239,16.5094520811371
0.00121437315975842,16.5126552338428
0.00155410735818594,16.5155857559191
0.00196573943927064,16.5182880772236
0.00245743948263953,16.5208135688531
0.00304297633216793,16.5232163237635
0.00374459859943799,16.5255552100024
0.0045993968790115,16.5279013867205
0.00566710937927153,16.5303394191156
0.00702486312420334,16.5329377059609
0.00863082373735134,16.5355348575239
0.0102863390739746,16.5378260196201
0.0119082145954389,16.5397707379802
0.013559419010172,16.5414966308027
0.0153012433297581,16.5430833613022
0.0171968173593594,16.5445835018643
0.0192764888400635,16.5460077660701
0.0215860817820881,16.5473721882971
0.0241617591134707,16.548681471027
0.0270455685855075,16.5499408116096
0.030283666259595,16.5511544833468
0.0339183955929714,16.5523234066757
0.0380093384490526,16.5534524385731
0.0426181887307634,16.5545443588833
0.0478132092494046,16.5556015221069
0.0536820178189062,16.5566279875019
0.0603249090439514,16.5576272317217
0.0678620902173799,16.5586029527498
0.0764385407075878,16.5595590438497
0.0862356275649542,16.5605001000986
0.0974811718168011,16.5614313021372
0.110467287594868,16.5623586955509
0.125579870598816,16.5632897304725
0.143347194355444,16.5642340769278
0.164531142860266,16.5652052739288
0.189111310795479,16.5661797933767
0.217665151879015,16.5671647122536
0.251017483193812,16.5681732041724
0.290360375451452,16.5692265216909
0.337152156221611,16.5703537352381
0.379684041738973,16.571311068632
0.414596403562008,16.5720826756858
0.444682501444181,16.5727644329678
0.470995065376402,16.5734026314508
0.493700834131252,16.5740242079435
0.512498081066912,16.5746516106467
0.526596582917675,16.5753103988659
0.534327639308334,16.5760402278259
0.532446016923273,16.5768357657579
0.519004419287082,16.5776536562453
0.492621649769318,16.5785109949858
0.451452179618165,16.5794204464825
0.393420888381096,16.5803904058207
0.347398095909764,16.5810359948342
0.296386684637992,16.5816815838477
0.251185034575589,16.582218679643
0.212682972985565,16.5826647678437
0.178995415272761,16.5830556802404
0.14889404951692,16.5834126234896
0.121650345515133,16.5837483981108
0.0967731135320531,16.5840720901558
0.0738705343620172,16.5843915993324
0.052546951919365,16.58471592014
0.0322138671556353,16.5850600512484
0.0111310645621824,16.58547073235
-0.000538904873957005,16.5857328596931
-0.00797162829038751,16.5859179008931
-0.0147670264939619,16.586102942093
-0.0206801528461706,16.5862793733356
-0.0267310419730829,16.5864786591498
-0.0326442000707467,16.5866969681188
-0.0382292574233724,16.5869315330511
-0.0433791395612875,16.5871811990974
-0.0480367775773281,16.5874458701152
-0.052175022524063,16.5877261834356
-0.0557821503802251,16.5880233476341
-0.0590153146261679,16.5883585189663
-0.0615018177647793,16.5886936111524
-0.0634784385861997,16.589051893799
-0.0649618619894356,16.5894370555868
-0.0659662686785933,16.5898533197668
-0.0665040579606906,16.5903059376384
-0.0665842314689506,16.59080153266
-0.0662104000323943,16.5913486250344
-0.0653762466315988,16.5919595439808
-0.0640609484780338,16.592650769899
-0.0622212729094957,16.5934462142171
-0.0597691166016034,16.5943853817144
-0.0564974977841957,16.5955493425131
-0.0523653484304259,16.5969659501322
-0.0483441898514399,16.5983332030044
-0.0444922904893387,16.5996585741235
-0.0408395573069064,16.6009450287399
-0.0374015438081416,16.6021937339427
-0.0341857799409184,16.6034049477806
-0.031194511965207,16.6045784845376
-0.0284261099264215,16.6057139597886
-0.0258759477458725,16.6068109179917
-0.0235370601409577,16.6078688949561
-0.0214006925605882,16.6088874422157
-0.0194567873348773,16.6098661277077
-0.0176944185919101,16.6108045206573
-0.0160803075922473,16.6117148711605
-0.0145230384269898,16.6126483550556
-0.0130275418355444,16.6136062429451
-0.0115977872869091,16.6145905333132
-0.010237563122181,16.6156035617105
-0.00895041976248302,16.6166480869118
-0.00773961664097193,16.6177273988176
-0.00660806615070139,16.6188454627192
-0.00555827436755032,16.6200071164058
-0.00459227772968546,16.6212183464644
-0.00371157396908925,16.6224866875068
-0.00291704401854037,16.6238218203573
-0.00220885862003424,16.6252365090718
-0.00158635720384317,16.6267481528022
-0.00105253099350788,16.6283655927899
-0.000624123755430285,16.6300239427505
-0.000283581824165039,16.6317415806084
-1.56563014953415e-05,16.6335380532473
0.000193998495449571,16.6354391137792
0.000359254204125823,16.6374805173742
0.000494167016048713,16.639715740568
0.000614195952606966,16.6422337539661
0.000739340460590035,16.6452109880734
0.000898563215465339,16.6489481292847
0.00108054835006416,16.6528133741777
0.00131214216761674,16.6572178751374
0.0015943905001298,16.6621685169002
0.00187851093961608,16.6669504403557
0.00213144033525833,16.6711510808506
0.00237062791042407,16.6751214593778
0.00260412499955307,16.6790058088863
0.00283696649375811,16.6828811853719
0.00307313688288323,16.6867990598952
0.00331623231282291,16.6907996731919
0.003569715587244,16.6949175432678
0.00383710264237469,16.6991847449373
0.00412213895827624,16.7036331581964
0.00442899336940025,16.7082959458798
0.00476255798322682,16.713209010603
0.00512891691212163,16.7184121720387
0.005516296061581,16.7236838837855
0.00591582873525416,16.7288638753714
0.00633273705718819,16.733983509291
0.00676884168741262,16.7390213652637
0.00722874865270243,16.7439852269343
0.00771730120346464,16.7488791739733
0.0082400522047207,16.7537086670736
0.00880302167774885,16.7584771490549
0.00941276314145736,16.7631861143569
0.0100764473809496,16.7678353271842
0.0108096493190668,16.7724695787206
0.0116330226446438,16.7771365397827
0.0125638176651833,16.7818373585041
0.0136273105833243,16.7865937974806
0.0148610594932196,16.7914525329492
0.0163322497519966,16.796527772957
0.0182067086991366,16.8021624373243
0.0206306923484795,16.808538814766
0.0221815883150446,16.8123120251112
0.0237609956022122,16.8160852354563
0.0251359421497886,16.8194716770807
0.0262953598940001,16.8225896601561
0.0272490765313639,16.8256039635921
0.0279437700580138,16.8284773148269
0.0283721528193387,16.8312866865012
0.0285201403504273,16.8341646303372
0.0283281346272311,16.8373242214645
0.027530405307334,16.8415004825907
0.0266716253541707,16.8443619253819
0.0256098116278624,16.8472233681732
0.0245345223382111,16.8497679874526
0.0234612427766871,16.8521204652479
0.0223870704656809,16.8543702196017
0.0213137538997249,16.8565631795123
0.0202447302445066,16.8587266150956
0.0191837084842786,16.8608790037134
0.0181342586050805,16.8630340497024
0.0170996994622702,16.8652026155983
0.0160830713450168,16.8673937890709
0.0150871385735585,16.8696155256021
0.0141143999776436,16.8718750694401
0.0131670981829421,16.874179255865
0.0122472330260614,16.8765347299148
0.0113565700179344,16.8789481317086
0.0104966471868562,16.8814262618775
0.00966879105988557,16.883976208908
0.00887411735983139,16.8866055182584
0.00810377723630621,16.8893586664742
0.00734758224016147,16.8922986652005
0.00660936025461013,16.8954472375172
0.00589296853624449,16.8988301672127
0.00520245554829976,16.9024772744118
0.0045420159764929,16.9064231661547
0.0039159006173704,16.9107083047492
0.00332827420891504,16.915380636621
0.00278300826482439,16.9204983523302
0.00228338415191948,16.9261352093513
0.00183189430787956,16.9323886103042
0.00143399334872278,16.939316693071
0.00110029607334169,16.9467863720473
0.000830812447810839,16.9549083911689
0.000639095448068633,16.9631882033041
0.000497544046720216,16.971631337021
0.000379688838175967,16.9813468299422
0.000295243915633023,16.9913468299422
0.000237715832566105,17.0013468299422
0.000199425605575428,17.0113468299422
0.000174745016590931,17.0213468299422
0.000159634080671684,17.0313468299422
0.000151290496948177,17.0413468299422
0.000147821796505011,17.0513468299422
0.000147969925006402,17.0613468299422
0.000150909496790165,17.0713468299422
0.00015611332540712,17.0813468299422
0.000163266692295597,17.0913468299422
0.000172213190777488,17.1013468299422
0.000182920875036506,17.1113468299422
0.000195462555992931,17.1213468299422
0.000210007226910033,17.1313468299422
0.00022682138656245,17.1413468299422
0.000246280300888611,17.1513468299422
0.000268890580315383,17.1613468299422
0.000295327233716351,17.1713468299422
0.00032649102204794,17.1813468299422
0.000363596213980433,17.1913468299422
0.000408306154885616,17.2013468299422
0.000461282986946788,17.2110653222521
0.000521425176104065,17.2200684601999
0.000589510966636391,17.2283920775939
0.000666564410372381,17.2360867082638
0.000753777815506247,17.2432000224425
0.000852509817755623,17.2497764123199
0.000964300181340915,17.2558572293672
0.00109089196447117,17.2614810087036
0.001234258885614,17.2666836500386
0.00139663535818336,17.2714985844238
0.00158055139820936,17.2759569482798
0.00178887348226235,17.2800877570502
0.0020248533519083,17.2839180607882
0.00229218382523003,17.2874730839321
0.00259507022273452,17.2907763780197
0.00293831678203669,17.2938499838618
0.00332743762478495,17.2967145874239
0.00376880009201896,17.2993896899983
0.00426981622249,17.3018938088343
0.00483920772212293,17.3042447096764
0.00548738364405774,17.3064597031098
0.0062177551970626,17.3085321061166
0.00702263452231213,17.3104407074048
0.00791155755334703,17.312216801602
0.00889867646566448,17.3138913353582
0.0100055259207506,17.3154966056356
0.0112688606753904,17.3170726558478
0.0128124777508333,17.3187333865071
0.0149510063231838,17.3207083164443
0.016728836376037,17.3221626005623
0.0186441177285956,17.3236168846802
0.0203851797251451,17.3248923763797
0.0219218551817561,17.3260251894659
0.0233033515739812,17.3270923693626
0.0245387449928956,17.328139397662
0.0256149967064291,17.3292033366886
0.0265008519493733,17.3303283171003
0.0271350307170588,17.3315898922213
0.027359149772581,17.3332019030708
0.0269321852634849,17.3348760480847
0.025946499442252,17.3365501930986
0.0247991299072447,17.3379520183286
0.0234979381121446,17.3393092781018
0.0220414463668,17.3407027473876
0.0204379922759222,17.3421741736896
0.0186929763352399,17.3437631687627
0.0168284911477242,17.3455226174269
0.0154111228278159,17.3469603268707
0.0132736373222849,17.3493469549167
0.0114076353992785,17.3517135939463
0.009739905882675,17.3541360970645
0.00823351178028884,17.356669352814
0.00696801920423393,17.3591502104508
0.00610191942235955,17.361102126028
0.00533734353385187,17.3630540416052
0.00472708626040952,17.364811110325
0.00420795388243585,17.3664837093693
0.00373684381128367,17.368180692863
0.00328391025214419,17.3700165697948
0.00281240826533818,17.3722054966221
0.00225880273409895,17.3752804087292
0.00178476437315174,17.3785699224507
0.00144019577857034,17.3815740644271
0.00115343267520774,17.3847314767409
0.000895802056093246,17.3884904693439
0.00068994029011345,17.3928992030501
0.000564567438011259,17.3978099996986
0.000539652416499433,17.4025902365136
0.00060242809819238,17.4068903771425
0.000739674760046339,17.4107844398236
0.000945268748519188,17.414310800498
0.00121733021972322,17.41751491493
0.00155711044736479,17.4204439865971
0.00196877340952315,17.4231456580229
0.00246048081035087,17.4256708303576
0.00304545084877463,17.4280713320735
0.00374495904336356,17.4304040383323
0.00459571882561919,17.4327410628541
0.00565983683423673,17.435173489557
0.00701128874991755,17.4377626492601
0.00861199807183976,17.4403543319251
0.010268230687286,17.4426488383386
0.011892328145976,17.4445978012201
0.013544522400724,17.446325976143
0.0152871716935851,17.4479146332599
0.0171824051591667,17.4494157041561
0.0192616383823723,17.4508409273727
0.0215699004693065,17.452205872527
0.0241440786262534,17.4535157413456
0.0270256579776901,17.4547754707136
0.0302611171106157,17.4559895211846
0.0338926871218592,17.4571587826091
0.0379799798214447,17.4582881387596
0.0425846361831987,17.4593803668259
0.0477748667762302,17.4604378216466
0.0536381532227766,17.4614645524144
0.0602746983529408,17.4624640395106
0.0678045546161104,17.4634399786821
0.0763725405453959,17.4643962649827
0.0861596703545724,17.4653374812072
0.0973934490577266,17.4662688094933
0.110365493672284,17.4671962901141
0.125460984395808,17.4681273651044
0.14320714506589,17.4690716930649
0.164364020663774,17.4700427861177
0.188917423353169,17.4710173678396
0.217439663571285,17.4720022933702
0.250754034365182,17.4730107117047
0.290049478798564,17.4740638094617
0.336799329222964,17.4751909804323
0.379383310122566,17.4761500393993
0.41432826392669,17.4769225844089
0.444436301054998,17.4776048546066
0.470768074225716,17.4782433475707
0.493493721151864,17.478865059121
0.512314205976844,17.4794924382815
0.526443240281289,17.4801509917197
0.534221079646931,17.480880196682
0.532408990588748,17.4816757248178
0.519045381764157,17.4824934661876
0.492752741051097,17.4833505331647
0.451688761249296,17.484259615683
0.39377991587675,17.4852291233146
0.347727663706497,17.4858758888843
0.296660439965103,17.4865226544539
0.251412520275208,17.4870605174094
0.212880308289401,17.4875070444436
0.179171669458691,17.487898224357
0.149054074099808,17.4882553402604
0.121797143039622,17.4885912253716
0.0969088957466307,17.4889149788871
0.0739973180093624,17.4892345011119
0.0526672513727649,17.4895587699184
0.0323327063603615,17.4899027140655
0.0112714016535426,17.4903125924002
-0.000522069593861789,17.4905773151551
-0.00795704513855491,17.4907623934119
-0.0147544838815643,17.4909474716687
-0.0206692437099798,17.4911239345847
-0.0267199319146806,17.4913231918809
-0.0326333245200645,17.4915414789891
-0.0382189133176995,17.4917760265828
-0.0433694996630742,17.4920256771133
-0.0480279402508729,17.4922903326578
-0.0521670410159699,17.492570629279
-0.0557750396197035,17.4928677745259
-0.0590087175708023,17.4932028734126
-0.0614961601226944,17.4935379352577
-0.0634737134900054,17.4938961823926
-0.0649580558605833,17.4942813014217
-0.0659633686412229,17.4946975136957
-0.0665020552923182,17.4951500680073
-0.0665831256003354,17.4956455843731
-0.0662102039047736,17.4961925780742
-0.065377001054211,17.4968033678636
-0.0640627314743047,17.4974944235556
-0.0622242315471078,17.4982896331416
-0.059773551347307,17.4992284490826
-0.0565041936920411,17.5003917750773
-0.0523720807766587,17.5018084792553
-0.0483508402288609,17.5031757933206
-0.0444987854135055,17.5045012141795
-0.0408458577951973,17.505787712535
-0.0374076280510995,17.5070364583448
-0.0341916360892274,17.5082477112068
-0.0312001347504069,17.5094212862481
-0.0284314988169206,17.5105567995023
-0.0258811057916773,17.5116537956744
-0.0235419931304217,17.5127118107069
-0.0214054083537508,17.5137303962092
-0.0194612953041323,17.5147091201725
-0.0176987291435658,17.5156475518769
-0.0160845337791519,17.5165578812479
-0.0145271732155442,17.5174913429924
-0.0130315793560493,17.5184492069235
-0.0116017217811559,17.5194334712422
-0.0102413889821222,17.5204464711413
-0.00895413155995984,17.521490964947
-0.00774320915607401,17.5225702419922
-0.00661153439730766,17.5236882668399
-0.00556161361409378,17.5248498763287
-0.00459548351321925,17.5260610557806
-0.0037146420997117,17.5273293380797
-0.00291997057010487,17.5286644016169
-0.00221163990148019,17.5300790068829
-0.00158898970238999,17.5315905475341
-0.00105498351744068,17.5332079570026
-0.000626412261030468,17.5348662595803
-0.000285718674722127,17.5365838338844
-1.76521489393205e-05,17.5383802221285
0.00019213462062053,17.5402811702551
0.000357514779249411,17.5423224213315
0.000492545904340643,17.5445574294325
0.000612688077815836,17.5470751168355
0.000737940042988951,17.5500517791233
0.000897308830278546,17.5537889696911
0.00107941498963135,17.5576538855037
0.00131112771787824,17.5620577861799
0.0015935393152744,17.567008310401
0.00187796694212739,17.5717926091925
0.0021310996621911,17.5759942002274
0.00237045114910019,17.5799650562727
0.00260409348482265,17.5838496673523
0.00283707015672079,17.5877251762228
0.00307337038598345,17.5916430914573
0.00331659346634065,17.5956436717831
0.00357020476032187,17.5997614458395
0.00383772238519384,17.6040284918715
0.00412289400604206,17.6084766896412
0.00442989080263225,17.6131391984408
0.00476360750707719,17.6180519142584
0.00513013118103199,17.6232546468666
0.00551767718604927,17.6285257953452
0.00591739044272423,17.6337053207653
0.00633449080508785,17.6388245153584
0.00677080119900046,17.6438619744087
0.00723092872761994,17.6488254593458
0.00771971979482072,17.653719046649
0.00824273045294371,17.6585481863048
0.00880598492011838,17.6633163156534
0.00941604135406706,17.6680249236604
0.0100800758377077,17.6726737716767
0.0108137699026066,17.677308227294
0.0116377062737597,17.6819753206069
0.0125691825554509,17.6866763663848
0.0136335203180059,17.6914331993017
0.0148683790453399,17.6962927198255
0.0163412090821954,17.7013697447386
0.0182189245293073,17.7070097164293
0.0206429693967928,17.7133822235647
0.0221928199299143,17.7171517638352
0.0237706558878293,17.7209213041057
0.0251440682764177,17.7243052281605
0.0263021560179154,17.7274220587307
0.0272545102496631,17.7304361373077
0.0279474403254762,17.7333086982667
0.0283740428772791,17.7361180535992
0.028520048981641,17.738996999379
0.0283253680781853,17.7421596915015
0.0275205499880475,17.7463509511563
0.0266606916290995,17.7492067572943
0.0255991319315934,17.7520625634323
0.0245239798932046,17.7546044024358
0.0234507042413255,17.7569555219068
0.0223765287346259,17.7592045359044
0.0213032381044115,17.7613970890553
0.0202342767390639,17.7635603316898
0.0191733534866116,17.7657126798518
0.018124036204164,17.7678678025298
0.0170896411008298,17.7700365404427
0.0160732057596502,17.7722279672929
0.015077491863808,17.7744500295663
0.0141049957293861,17.7767099658385
0.0131579575716502,17.7790146081553
0.0122383749048895,17.7813706002191
0.0113480110400952,17.7837845822706
0.0104884018636522,17.7862633564839
0.0096608718514421,17.7888140141212
0.00886653476926977,17.7914441046313
0.00809631505298342,17.7941989762351
0.00734027829187288,17.7971408899224
0.00660225117526029,17.8002916104928
0.00588609306182406,17.8036769573579
0.00519585410063739,17.8073267931091
0.00453573004097935,17.8112757756509
0.00390997163268752,17.8155644305359
0.00332274179927083,17.8202407879991
0.00277790800623652,17.8253631567609
0.0022787444736534,17.831005480392
0.00182773548846515,17.8372654397835
0.00143048767331438,17.8441982492781
0.00109737639021819,17.8516735932477
0.000828511380783883,17.8598025290935
0.000635655980970518,17.8681682773742
0.000495236544607866,17.8765954180354
0.000377887076397907,17.8863256622786
0.000293965271729267,17.8963256622786
0.000236802548454495,17.9063256622786
0.000198765882703936,17.9163256622786
0.000174259473805029,17.9263256622786
0.000159267066344146,17.9363256622786
0.000151003446909861,17.9463256622786
0.00014758807164194,17.9563256622786
0.000147771018258568,17.9663256622786
0.000150732397170095,17.9763256622786
0.000155948736612734,17.9863256622786
0.000163107825875322,17.9963256622786
0.00017205492959141,18.0063256622786
0.00018275917530787,18.0163256622786
0.000195294004912027,18.0263256622786
0.000209828700000195,18.0363256622786
0.000226629762972003,18.0463256622786
0.000246072201280505,18.0563256622786
0.000268662093399373,18.0663256622786
0.000295073593442186,18.0763256622786
0.000326206185881585,18.0863256622786
0.000363272268908937,18.0963256622786
0.000407932432616857,18.1063256622786
0.000460866607261263,18.1160475328693
0.000520961811499668,18.1250539418757
0.000588995036537186,18.1333806014454
0.000665989468677938,18.1410780546044
0.000753136550406683,18.1481939851151
0.00085179398215525,18.1547727979948
0.000963500477713897,18.1608558566973
0.00108999790505914,18.1664817075758
0.00123325862322799,18.171686261007
0.00139551551139016,18.1765029580504
0.00157929682112069,18.1809629444359
0.00178746702153596,18.1850952442112
0.0020232755303736,18.1889269154399
0.00229041248484693,18.1924831899404
0.00259308006821646,18.1957876259136
0.00293607879867905,18.1988622700733
0.00332491836138591,18.2017278135147
0.00376596068559032,18.2044037617156
0.00426661107811946,18.2069086349458
0.00483558267735326,18.2092602005261
0.00548327325841943,18.2114757685983
0.00621324099787442,18.213549050385
0.00701767041298442,18.2154583563868
0.00790607358618169,18.2172349796467
0.00889256969489592,18.2189098650609
0.00999863076664648,18.2205152814096
0.0112608713871721,18.2220911824194
0.0128022314145641,18.2237507616579
0.0149347691079384,18.2257218169521
0.0167130171643592,18.2271774602511
0.0186294452173013,18.2286331035501
0.0203728321299943,18.2299102465267
0.0219110989953776,18.2310437967253
0.0232939518863557,18.2321112366078
0.0245307262131642,18.2331582063258
0.0256085323841466,18.2342217694909
0.0264962891345988,18.2353459258843
0.0271330902465194,18.2366057621468
0.0273622528683368,18.2382125284141
0.0269403802305749,18.2398893326085
0.0259567503491189,18.2415661368028
0.0248105162457558,18.2429687298185
0.0235104707121572,18.2443258641911
0.0220550412239933,18.2457188423588
0.0204525612890727,18.2471895020431
0.0187084765996992,18.2487774118069
0.0168444932303769,18.2505352944537
0.01544367582418,18.2519544418582
0.0133028918321271,18.2543403845317
0.0114344588135652,18.2567053450265
0.00976583740907448,18.2591236293673
0.00825467487535561,18.2616587083482
0.00698629244275624,18.2641390914861
0.00611514676729246,18.266097805374
0.00534642261624646,18.2680565192618
0.00473442648369572,18.2698156544427
0.00421459865067713,18.2714877517612
0.00374334546759289,18.2731822700708
0.00329077859781528,18.2750129260413
0.00282060003839527,18.2771899388282
0.00226572366035816,18.2802619727034
0.001790458818993,18.2835482625461
0.00144485339870232,18.2865494834966
0.0011575770504422,18.2896976068903
0.000899483374768315,18.2934391390151
0.0006920727565351,18.2978391393043
0.000564804278893696,18.3027393671361
0.000537699089551691,18.3075325289289
0.00059867965280309,18.3118418705475
0.000734297195066959,18.3157444689814
0.00093831982737869,18.3192782673313
0.00120879041089794,18.3224886576022
0.00154689450182691,18.3254228483769
0.00195673483302009,18.3281285559288
0.00244637717130187,18.330656642956
0.00302891424406343,18.3330589323892
0.00372540310192579,18.3353921532347
0.00457223264695153,18.3377282982432
0.00563118151465101,18.3401586830141
0.00697736214399274,18.3427476113562
0.00857624240674528,18.345345525413
0.0102343894904131,18.3476501258227
0.0118585338829798,18.3496050858867
0.013509153520961,18.3513368664569
0.0152483921882211,18.3529273679901
0.0171398007588563,18.3544302424845
0.0192136951325748,18.3558565098403
0.0215163178891759,18.357222718384
0.0240835222978706,18.3585334997206
0.0269576320632881,18.3597942842036
0.0301845284143688,18.3610092832644
0.0338065106616395,18.3621794529462
0.0378829184819522,18.3633096414503
0.0424751859379273,18.3644026227705
0.04765114159263,18.3654607223688
0.053498182383347,18.3664880390187
0.0601159872694316,18.3674880243235
0.0676240692880482,18.3684643663152
0.0761662908700501,18.3694209228307
0.0859231570147457,18.3703623131984
0.0971206701501692,18.3712936760248
0.110048558959724,18.3722210198628
0.125089183964401,18.3731517382717
0.142765086411596,18.3740953998385
0.163828825701743,18.3750653892076
0.188296065802142,18.3760396627203
0.2167148228477,18.3770239802381
0.249901710772948,18.3780313450293
0.289031730070765,18.3790826025509
0.335676271494922,18.3802092735973
0.378529415313947,18.3811749466343
0.413636024888396,18.3819505579523
0.443854116427044,18.3826341620251
0.470282705622945,18.3832731736476
0.493107009014045,18.3838948404695
0.512038813282704,18.3845216311093
0.526306434275892,18.3851788906662
0.534281244995569,18.3859055495138
0.532743754997092,18.3867006306882
0.519679776438205,18.3875175019415
0.493723874991338,18.3883733730928
0.453041722267862,18.3892810652311
0.395559928855945,18.3902490454352
0.349330610624317,18.3909008777706
0.297972419430653,18.391552710106
0.252488997157406,18.392093814271
0.213802201384299,18.3925421364209
0.179984558926379,18.3929343668871
0.149782692347413,18.3932921280695
0.122456914026736,18.3936283972091
0.09751103711468,18.3939523318913
0.0745515889275418,18.3942718379921
0.0531848265042496,18.3945958299799
0.0328339255794158,18.3949389660058
0.0118434715128122,18.3953456772888
-0.000481117934068887,18.3956214577207
-0.00792112681587135,18.3958065386037
-0.0147232311213019,18.3959916194868
-0.0206422442494303,18.3961680895576
-0.0266936422394985,18.3963672276891
-0.0326087774731448,18.3965854073602
-0.0381967689142879,18.3968198547542
-0.0433501049454429,18.3970694064526
-0.0480114536075755,18.3973339604683
-0.0521535069589607,18.3976141498102
-0.0557645576819287,18.3979111794296
-0.0590069103423494,18.3982467897406
-0.0614962633295636,18.3985817633858
-0.0634755803344886,18.3989399036707
-0.0649616118557115,18.399324903117
-0.0659685454702393,18.3997409804734
-0.0665087945380783,18.4001933810707
-0.0665913834282856,18.4006887203291
-0.0662199568998319,18.4012355071751
-0.0653882652250999,18.4018460457419
-0.0640755683548932,18.4025367937189
-0.0622387817073773,18.4033316109844
-0.0597901248423804,18.4042698885993
-0.0565236313866382,18.4054323386788
-0.0523909897603332,18.4068492485648
-0.0483690055806467,18.4082167281582
-0.0445160711932051,18.4095423087335
-0.0408621911231057,18.4108289664817
-0.0374229706869236,18.4120778738604
-0.0342059727888967,18.4132892914826
-0.0312134676257676,18.4144630347323
-0.0284438438357925,18.4155987195278
-0.02589249012986,18.4166958902984
-0.0235524528413785,18.4177540826744
-0.0214149862334385,18.4187728479944
-0.0194700389109388,18.419751754074
-0.0177066889909332,18.4206903701526
-0.0160922601165767,18.4216005935171
-0.0145346419963039,18.4225339445301
-0.0130387721953341,18.423491689128
-0.0116086210282786,18.4244758240914
-0.0102479780033195,18.4254886828328
-0.00896039499295114,18.4265330214619
-0.00774913317993467,18.4276121265163
-0.00661710701910379,18.4287299589817
-0.0055668249757257,18.4298913510395
-0.00460032622520102,18.4311022818184
-0.00371911161580842,18.4323702757555
-0.00292406562845112,18.4337049993517
-0.00221536307920191,18.4351191956886
-0.00159234817753852,18.436630231598
-0.0010578512424587,18.4382474888391
-0.00062887656635174,18.4399055570711
-0.000287853084901993,18.4416228181112
-1.95257265100421e-05,18.4434187912711
0.00019045553253163,18.4453191873922
0.000355963925236399,18.4473596903447
0.000491052857333894,18.4495936444291
0.000611169318606173,18.4521097359195
0.000736272263200685,18.4550836023134
0.000895524998849629,18.4588210307554
0.00107738379554466,18.4626843326455
0.00130874540493298,18.4670852939516
0.0015909348103023,18.4720352416319
0.00187632604339775,18.4768382847498
0.00212972916049557,18.4810462244177
0.00236910624337485,18.485019362973
0.00260265712500331,18.4889043800473
0.00283546820518515,18.4927791393242
0.00307154555810941,18.4966954531258
0.003314494096496,18.5006937183808
0.00356777988886303,18.5048085369276
0.00383491739344246,18.5090720020057
0.00411964759212558,18.5135159773723
0.00442613099413695,18.5181735775892
0.00475924537050092,18.5230806283804
0.00512505010668822,18.5282768455555
0.00551250338723191,18.5335508863284
0.00591189492698898,18.5387305388844
0.00632872715628115,18.5438511423236
0.00676469428187989,18.5488897183929
0.00722441731028576,18.5538543166956
0.00771272425727358,18.5587489022058
0.00823516484084922,18.5635789597908
0.00879775605467155,18.5683479578542
0.00940704847185536,18.5730574198887
0.0100702087935017,18.5777071322943
0.0108026508008112,18.5823410069463
0.0116251381407955,18.5870077031394
0.0125548480162926,18.5917081116172
0.0136169841447736,18.5964638760378
0.0148489410513422,18.6013213069368
0.0163174746502625,18.6063936209833
0.018186656020567,18.6120196552339
0.020610555614131,18.6184023546331
0.0221631680784274,18.6221815663563
0.0237451508135583,18.6259607780795
0.0251226165428369,18.6293513524242
0.0262842129841578,18.6324712297281
0.0272401561843963,18.6354859114902
0.0279377272359469,18.6383605551616
0.0283690119411181,18.6411699595179
0.0285202247479962,18.6440462845626
0.028332560535005,18.6472008716146
0.0275461746012472,18.6513532476757
0.0266891412612746,18.6542238628757
0.0256268986348891,18.6570944780756
0.0245513777785133,18.6596435924161
0.0234780898280511,18.6619982521256
0.0224039238167585,18.6642491884341
0.0213305686393317,18.6664427915345
0.0202614495182105,18.6686065247454
0.0192002755578548,18.6707589638663
0.0181506201384796,18.6729138696651
0.0171158063842885,18.675082139182
0.0160988789622977,18.6772728818464
0.0151026064824089,18.679494066733
0.014129491866565,18.6817529461719
0.013181781673361,18.6840563593783
0.0122614795397893,18.6864109519792
0.0113703545560172,18.6888233620595
0.0105099482455022,18.6913003854772
0.00968159046597399,18.693849103475
0.0088864000961838,18.6964770517084
0.00811586713526113,18.6992273988019
0.00735941870400077,18.7021642832047
0.00662088427861721,18.7053093612974
0.00590411775714208,18.7086883585027
0.00521316490929967,18.7123310252896
0.00455221872028189,18.7162718851747
0.00392553005573888,18.7205512966182
0.00333726654022501,18.7252170687017
0.00279130614604087,18.7303271989123
0.00229094171217091,18.7359551413935
0.00183867884724686,18.7421978447593
0.00143972058335912,18.7491182481795
0.00110507552038866,18.7565787311027
0.000834413145985061,18.7646895326201
0.000646489416324467,18.7727317126811
0.000502002754619577,18.7812335654985
0.000383146540388697,18.7909116584176
0.000297562647897053,18.8009116584176
0.00023922682899698,18.8109116584176
0.000200363459735579,18.8209116584176
0.000175276768369235,18.8309116584176
0.000159876466996676,18.8409116584176
0.000151323214244663,18.8509116584176
0.000147698182396827,18.8609116584176
0.000147724990130622,18.8709116584176
0.000150565506836932,18.8809116584176
0.0001556834767671,18.8909116584176
0.00016275746319458,18.9009116584176
0.000171625806538856,18.9109116584176
0.000182252157804681,18.9209116584176
0.000194705304369865,18.9309116584176
0.000209150190538022,18.9409116584176
0.000225848843645834,18.9509116584176
0.000245171192707995,18.9609116584176
0.000267617090111994,18.9709116584176
0.000293852601400963,18.9809116584176
0.000324766235548821,18.9909116584176
0.000361554966257496,19.0009116584176
0.000405857013117964,19.0109116584176
0.000458514912713034,19.0206645380514
0.000518307613297594,19.0297008050068
0.000586000791330791,19.0380550827756
0.000662610701171009,19.0457780326706
0.000749322341935897,19.0529174905794
0.000847486632394071,19.0595180022266
0.000958634704562066,19.0656210603132
0.00108449985410781,19.0712653307322
0.00122704467147166,19.0764868358541
0.0013884910799351,19.0813191207487
0.00157135476649876,19.0857934272759
0.00177848600766488,19.0899388680778
0.00201311785496088,19.0937825835354
0.00227892168883503,19.0973498814059
0.00258007785044905,19.1006643889959
0.00292136108633953,19.1037482152719
0.00330825054656334,19.1066221069964
0.0037470711058404,19.1093056177152
0.00424518225681089,19.1118173069908
0.00481123923930266,19.1141749712567
0.00545556414421299,19.1163959362128
0.00618273819302985,19.1184766745404
0.00698407234448019,19.1203921597574
0.00786892803364767,19.1221737104305
0.00885122219338193,19.1238523060886
0.00995204643443151,19.1254600908913
0.0112071727489265,19.1270365354064
0.0127340591011006,19.1286903757946
0.014830119872562,19.1306401368587
0.0166101658201808,19.1321053286211
0.0185327083764539,19.1335705203835
0.0202888267560939,19.1348584419621
0.0218353872122119,19.1359970986635
0.0232251515157145,19.1370667361739
0.0244690091883366,19.1381139934292
0.0255549514203717,19.1391759754409
0.0264529113089598,19.1402959528089
0.0271041371920894,19.1415463793567
0.0273614321810839,19.1431241948243
0.0269688507810177,19.1448182474334
0.0259964299746205,19.1465123000425
0.0248565402678416,19.1479201380204
0.023563261922768,19.1492770869449
0.0221143513327962,19.1506677207906
0.0205180963962499,19.1521344299095
0.0187802029290531,19.1537165432686
0.0173495743216605,19.1550497090064
0.015999707039733,19.1563828747442
0.0137857950276939,19.1587792827893
0.0118582106216012,19.1611447715126
0.0101497571310409,19.1635400105902
0.00856662396482381,19.1661062986511
0.00725653921227183,19.1685812237774
0.00611855205577091,19.1710930266724
0.0053139320726122,19.1731482743931
0.00470654265964982,19.1749039904305
0.00419006519902169,19.1765744688782
0.00372021639684529,19.1782734865281
0.00326725713523971,19.1801172529153
0.00279345552227393,19.1823284810815
0.00224228386553092,19.1854092764747
0.00177054641763509,19.1887054263886
0.0014280925153283,19.191713551429
0.00114221058926752,19.1948885845041
0.000885040554446021,19.1986850782271
0.000681840446888831,19.2031117097031
0.000559668434034923,19.2080440877738
0.00053837796004757,19.2128016693249
0.000603999036724071,19.2170854242048
0.000743728943891428,19.2209639069942
0.000951648580567953,19.2244763315735
0.00122599716757754,19.2276680675031
0.00156843909898365,19.2305888216758
0.00198297149518477,19.2332831084996
0.00247791950291513,19.2358023333615
0.00306730417478401,19.238200774536
0.00377379300228405,19.2405376451029
0.00463515499001385,19.2428845760312
0.00571206180890191,19.2453264416444
0.00708113254196317,19.2479287529144
0.00869470757813516,19.250521444457
0.0103502068364142,19.2527988313555
0.0119730435292024,19.254733697985
0.0136274782031485,19.2564533350629
0.0153749013382496,19.2580361868862
0.0172771804061885,19.2595329601711
0.0193658184018193,19.2609549563911
0.0216851909417413,19.2623169608079
0.0242727887908704,19.2636243504259
0.027169604053358,19.264881666714
0.0304225523733845,19.2660934715477
0.0340740386229606,19.2672606354173
0.0381840256620625,19.268388038546
0.0428145569592189,19.2694784629424
0.0480346020785072,19.270534322241
0.0539317979966867,19.2715595664291
0.0606073684404504,19.2725577300977
0.0681824144037722,19.2735325215153
0.0768035266892593,19.2744878958207
0.0866527914998161,19.2754283736043
0.0979604707805095,19.2763592039862
0.111021632227653,19.2772864733075
0.126226491893607,19.2782176933032
0.144110327928638,19.2791626499458
0.165445987491191,19.2801350422265
0.19017112606673,19.2811096419884
0.218897731867363,19.282095041047
0.252460437109501,19.2831046029634
0.292071876418381,19.2841600549057
0.339068619599068,19.2852878596974
0.381242215052916,19.2862351878262
0.415932305628263,19.2870017164316
0.4458656644337,19.2876809505417
0.472043251171659,19.2883179019147
0.494610124940012,19.2889391482601
0.513247878104869,19.2895671278398
0.527142526772913,19.2902276964684
0.534572366390117,19.2909615088189
0.532261171972347,19.2917574669172
0.518344161821329,19.2925765281104
0.491419507721481,19.2934356572134
0.449626011403273,19.2943473364749
0.390884028852135,19.2953198819149
0.345094664118096,19.2959579389767
0.294484460803853,19.2965959960385
0.249611067170729,19.2971282146164
0.211324694593634,19.2975715500586
0.177789296339936,19.2979608154497
0.147805627304222,19.2983167220179
0.120658082260064,19.2986518586148
0.0958611797278455,19.2989752262987
0.0730247850070445,19.2992947208361
0.0517503890075617,19.2996194440229
0.0314336138846897,19.2999648487544
0.0102157500476637,19.3003808813618
-0.000750019664828248,19.3006285089517
-0.00815584705656655,19.3008132786676
-0.0149267879731372,19.3009980483836
-0.0208386577880533,19.3011748415436
-0.0268895226287014,19.3013746455157
-0.0327965782556089,19.3015933813188
-0.0383718937079432,19.301828324947
-0.0435100266393365,19.3020783548151
-0.0481548803320713,19.3023433969229
-0.0522798940375726,19.3026241048159
-0.0558734514589309,19.3029217005597
-0.0590811469591095,19.3032560572647
-0.0615565628124373,19.3035915874148
-0.0635225302743898,19.3039503907813
-0.0649955949603777,19.3043361549374
-0.0659899162529426,19.3047531225708
-0.0665178395250674,19.3052065706905
-0.0665882737428984,19.3057031576408
-0.0662046862602174,19.3062514529496
-0.0653604712151598,19.3068638937451
-0.0640344394377885,19.30755706264
-0.0621826908555911,19.3083551009966
-0.0597156515168282,19.3092980248428
-0.0564216774384957,19.310468531078
-0.052290949370385,19.3118839578121
-0.0482724982119845,19.3132503625968
-0.0444240926016573,19.3145749751895
-0.0407752558783559,19.315860710777
-0.0373413444512995,19.3171087111733
-0.034129767945435,19.3183192216878
-0.0311426885558236,19.3194920504758
-0.0283784128848147,19.3206268104746
-0.0258322655152542,19.3217230453017
-0.0234972430406172,19.3227802907596
-0.0213645624475363,19.3237980986277
-0.0194241461947562,19.3247760369697
-0.017665056193,19.3257136747602
-0.016051985564502,19.3266244519042
-0.0144958560755367,19.3275583819942
-0.0130015754029138,19.3285167513375
-0.0115731100660166,19.3295015641448
-0.010214244361052,19.3305151631641
-0.00892852368641123,19.3315603161512
-0.00771920141765981,19.3326403243483
-0.00658918279700149,19.3337591675756
-0.00554096558813832,19.334921702556
-0.00457657666596354,19.3361339410708
-0.00369750281354633,19.3374034521186
-0.00290461240846363,19.3387399649559
-0.00219806164656902,19.3401563146066
-0.00157717270411669,19.3416700096624
-0.00104547635354378,19.3432880664722
-0.000618847023516104,19.3449473671939
-0.000279788651288903,19.3466662771336
-1.3072328954233e-05,19.3484644364476
0.000195634189108204,19.3503677414329
0.000360198892249895,19.3524121890367
0.000494690025121225,19.3546517048657
0.000614611783203247,19.3571762273678
0.000740110301095158,19.360164898298
0.000899479409410256,19.3639011404923
0.00108211845416013,19.3677729865193
0.00131472109048889,19.3721895361585
0.00159736973199878,19.377142645278
0.00188164123784565,19.381925751493
0.00213456479248196,19.3861265770344
0.00237369405910563,19.3900968474463
0.00260711803498792,19.3939809483087
0.00283988845874167,19.3978559816531
0.00307599768578172,19.4017734376339
0.00331904508376866,19.4057735637688
0.00357249446456436,19.4098908788622
0.00383986200916136,19.4141574551478
0.00412489347850279,19.4186051662965
0.0044317585180172,19.4232671656354
0.00476535078841589,19.4281793440234
0.00513175647446597,19.4333815049377
0.00551924159129431,19.4386526939589
0.00591889644704012,19.4438320812864
0.00633595610210813,19.4489511906935
0.00677223823911045,19.453988556552
0.00723235048968445,19.4589519517927
0.00772113848704639,19.4638454441902
0.00824415887577738,19.468674486456
0.00880743652003466,19.4734425158527
0.0094175304578027,19.4781510211627
0.0100816178726249,19.4827997637553
0.010815410850447,19.4874342815971
0.0116394702578419,19.4921014152347
0.0125711073389355,19.4968025286207
0.0136356564950904,19.5015594773823
0.0148708062972615,19.5064192273792
0.0163440836730611,19.5114967730304
0.0182227190029607,19.5171382946948
0.0206467512232547,19.5235096758334
0.0221962808878657,19.5272781475886
0.023773644269228,19.5310466193438
0.0251465980677131,19.5344298115672
0.0263042880553713,19.5375463068582
0.0272562359314306,19.5405603199621
0.0279486441012682,19.5434326509422
0.0283747204404365,19.5462420016342
0.0285201417985443,19.5491212396817
0.0283246729845858,19.5522848376989
0.0275177644900517,19.5564805091996
0.0266575853534198,19.5593346746068
0.0255960939999796,19.562188840014
0.024520978932052,19.5647298670916
0.0234477020619913,19.5670805886291
0.0223735235772398,19.569329385123
0.0213002386756636,19.5715218183101
0.0202312938133551,19.5736850035255
0.0191703977735174,19.5758373388775
0.018121117771906,19.5779924830083
0.0170867692274366,19.5801612702492
0.0160703889164658,19.582352770215
0.0150747377358916,19.5845749267629
0.014102311251264,19.5868349768191
0.0131553489570275,19.589139751501
0.012235847671443,19.5914958941497
0.0113455700447231,19.5939100450843
0.0104860513183631,19.5963890069925
0.00965861534895235,19.5989398720356
0.00886437531020767,19.6015701909481
0.00809418919749876,19.6043255676671
0.00733819709197483,19.6072680428192
0.00660022533036196,19.6104193935388
0.0058841338866198,19.613805449822
0.0051939734042333,19.6174560869178
0.00453393994644635,19.6214059779533
0.00390828425546628,19.6256956674854
0.00332116873482812,19.6303732110192
0.00277645968480848,19.6354969529801
0.00227742926158069,19.6411408931998
0.00182655940635032,19.6474027969783
0.00142950276617934,19.654336995743
0.00109656328233954,19.6618140036534
0.000827901482790736,19.669944970014
0.000634433919350299,19.6783505107987
0.000494499711964467,19.6867685078579
0.000377341802695777,19.6965041044789
0.000293618223626562,19.7065041044789
0.000236598005445189,19.7165041044789
0.000198664867525342,19.7265041044789
0.000174234721584572,19.7365041044789
0.000159299969804868,19.7465041044789
0.00015108176774091,19.7565041044789
0.000147704158369651,19.7665041044789
0.000147920501433847,19.7765041044789
0.000150913307275085,19.7865041044789
0.000156160950732931,19.7965041044789
0.000163352751079342,19.8065041044789
0.000172335357457229,19.8165041044789
0.000183079271550153,19.8265041044789
0.000195659421644301,19.8365041044789
0.000210246816636685,19.8465041044789
0.00022711007946488,19.8565041044789
0.000246626929176911,19.8665041044789
0.000269307021602057,19.876504104479
0.000295829354548406,19.886504104479
0.000327100129316978,19.896504104479
0.000364341284295152,19.906504104479
0.000409227310329046,19.916504104479
0.00046234390077937,19.9262081429642
0.000522640377594436,19.9351972994965
0.000590900678260884,19.9435079275428
0.000668152537464186,19.9511905188306
0.000755591771161973,19.9582926834991
0.000854580745867723,19.9648587570345
0.000966663399577709,19.9709300379721
0.00109358750781519,19.9765450117368
0.00123733215636022,19.9817395308304
0.00140013778645933,19.9865469819801
0.00158454131711915,19.9909984602865
0.00179341703863417,19.9951229428575
0.00193878954584568,19.9975614714287
0.00210412005887637,20
