ecg,time
6.81914843999313e-05,15.0079537536808
7.20764130823655e-05,15.0179537536808
7.62598855941147e-05,15.0279537536808
8.07754330896714e-05,15.0379537536808
8.56615309818978e-05,15.0479537536808
9.09625240153867e-05,15.0579537536808
9.6729763908073e-05,15.0679537536808
0.000103023018138805,15.0779537536808
0.000109912227486819,15.0879537536808
0.000117479716143629,15.0979537536808
0.000125822994740951,15.1079537536808
0.000135058348140009,15.1179537536808
0.000145325473395311,15.1279537536808
0.000156793539865825,15.1379537536808
0.000169669200128258,15.1479537536808
0.000184207314499839,15.1579537536808
0.000200725508135972,15.1679537536808
0.000219624231919677,15.1779537536808
0.000241414872875376,15.1879537536808
0.000266759877057704,15.1979537536808
0.000296531203931984,15.2079537536808
0.000331897460615099,15.2179537536808
0.000374457176607028,15.2279537536808
0.000424333183767204,15.2375814441497
0.000480804012409468,15.2464967739925
0.000544646046733704,15.2547385885941
0.000616831506207359,15.2623568855381
0.000698476634434935,15.2693988310997
0.000790849678789593,15.2759084168411
0.000895387618979944,15.2819266420038
0.00101371681273698,15.2874917001466
0.00114767748974571,15.292639143871
0.00129935053918562,15.2974020461513
0.00147108898128323,15.3018111659122
0.00166555373867175,15.3058951128645
0.00188575643056486,15.3096804986558
0.0021351079423262,15.3131920790945
0.00241747903248238,15.316452901979
0.00273727303885712,15.3194844574505
0.003099516445288,15.3223068221014
0.0035099741029959,15.3249388103097
0.00397529851239676,15.3273981402377
0.00450322914741746,15.3297016143897
0.00510286662618646,15.3318653332863
0.0057850638035287,15.3339049667628
0.00654217127436064,15.3357887906348
0.00737442442275058,15.3375251314327
0.00829130628010472,15.3391418113009
0.00930625285905166,15.3406653669085
0.0104391931364326,15.342122926787
0.0117284796237062,15.3435525550109
0.0132989975572951,15.3450559928101
0.0153794819100156,15.3467691010285
0.0174084383683893,15.3482368825137
0.0196311104739938,15.3497046639989
0.0216008842986955,15.3509437015284
0.0233170265815537,15.3520194309753
0.0248614031152364,15.3530236836611
0.02625296081109,15.3540039914636
0.0274826008030381,15.354996064917
0.0285221513218741,15.3560402386171
0.0293158593732803,15.3572022011616
0.0297293719844342,15.3586523992698
0.0294528839953421,15.3603008729163
0.0285092597754695,15.3619493465628
0.0273577968218643,15.3633055520667
0.0260303308380332,15.3646121463476
0.0245228636450458,15.3659578486102
0.0228421903818894,15.3673865195246
0.0209919880103799,15.3689393040096
0.0197264803756961,15.3700133228606
0.0185028549404242,15.3710873417116
0.016148647687751,15.373318996184
0.0141348339831417,15.375448942511
0.0124394485650548,15.3774525000287
0.0110059387044179,15.3793429718698
0.00978576380871495,15.381134848125
0.00873865516845631,15.3828431465815
0.00783117186373225,15.3844842619225
0.00703503116017844,15.3860775813501
0.00632514425594273,15.3876488530373
0.00567657667793244,15.3892385592949
0.00505662972908804,15.3909300029828
0.00437822539542359,15.393027484552
0.00398852316200743,15.3943805760833
0.00363286560740684,15.3957336676145
0.0033379516226073,15.3969586616741
0.00308358395567006,15.3981047713483
0.00284911681518066,15.3992481218943
0.00262053894126346,15.4004577777306
0.00238205627724046,15.4018398217924
0.00209623562724789,15.4036971979245
0.00171948543682913,15.4066011367178
0.00142797248386138,15.4093780124565
0.00119632595133354,15.4121145544695
0.000977173396411423,15.4154503832964
0.00077771238419766,15.4198226169996
0.000652295173256336,15.4247060227901
0.000616696655771446,15.4301052721198
0.000674281869708772,15.4348498347879
0.00080637283680007,15.4391026247905
0.00100389907751392,15.4428937386437
0.00126242310987375,15.4462711592974
0.00157980849066208,15.4492797941756
0.00195587346070437,15.4519674533575
0.00239220647427727,15.4543812323119
0.0028920448854349,15.4565647723698
0.00346125689252823,15.4585606247013
0.00410992740634906,15.4604115236619
0.0048543768573049,15.4621607919293
0.00572179968897312,15.4638567062097
0.00675921685916805,15.4655590496056
0.00807496262718511,15.4673810261211
0.00998250965240613,15.4696010073734
0.0123450855216247,15.471923690082
0.014410763885863,15.4736923764422
0.0167457354318592,15.4754610628024
0.0190418161256967,15.4769939748192
0.0214390687729032,15.4784036898028
0.0239656708022302,15.4797068205455
0.0267325847272924,15.4809526733951
0.0297701202313234,15.4821407807419
0.0331546605889435,15.4832865125898
0.0369221673009918,15.484387136742
0.041145781844435,15.4854500975237
0.045887979683939,15.4864770269911
0.0512099310706517,15.4874682063839
0.0572016391794558,15.4884279153762
0.0639570289016354,15.4893586133841
0.071585510077728,15.4902629137622
0.0802137498300448,15.4911433759804
0.0899944828733203,15.4920029794246
0.101111554864396,15.4928449232015
0.113784275508129,15.4936723921791
0.12827825485632,15.4944887436347
0.14491801509109,15.4952975692021
0.164104112217124,15.4961027895057
0.186344432950467,15.4969090592052
0.212311301352726,15.4977225252351
0.242987419094236,15.498553159533
0.278810567688737,15.4993934194142
0.32030098319254,15.5002420286129
0.368842123634212,15.5011182885833
0.40977059465869,15.5017932272079
0.452814057293454,15.5024681658324
0.490920695080499,15.5030586375398
0.524325817630895,15.5035921752185
0.553982807307774,15.5041025109077
0.580045708594538,15.5046132426708
0.60212725330257,15.5051485084465
0.619154604412686,15.5057460929536
0.627840252424259,15.5064363370397
0.624407791133989,15.5071517702628
0.607745193492179,15.5079174242859
0.580885672815507,15.508644607972
0.543124340240038,15.5093965624158
0.491313235494205,15.5102191959613
0.422346289502665,15.5111278329411
0.368191030025634,15.5117554851363
0.309670756895709,15.5123831373316
0.259438233448668,15.5128988158079
0.217657526365147,15.5133230993233
0.181576717831838,15.5136942183139
0.149583505313914,15.5140336841153
0.120767899741277,15.5143541777166
0.0945268201948195,15.5146648219731
0.0703710272604514,15.5149740256627
0.0477656816205071,15.5152925850573
0.0257355852864428,15.5156428542352
0.00815135297564557,15.5159641793737
-0.00157768603101171,15.5161646377054
-0.0103937958705554,15.5163650960371
-0.0171608836954238,15.5165344069435
-0.0233907425329317,15.5167052396765
-0.0297086440948767,15.5168969784338
-0.0358423415181907,15.5171061195971
-0.04161547648438,15.5173304885255
-0.0469283590397923,15.5175692584229
-0.0517279103185961,15.5178225079431
-0.055989473159462,15.5180909687349
-0.0597059793424254,15.5183759023329
-0.0628812851252151,15.518679057957
-0.0655258757661589,15.5190026866141
-0.0676539275780418,15.5193496021078
-0.0692811370260661,15.5197232900955
-0.0704169511498787,15.5201280759229
-0.0710738897639697,15.5205811379367
-0.0712301456954414,15.5210613026918
-0.0709230050195438,15.5215928930768
-0.0701459317132151,15.5221888634258
-0.0688754564370146,15.5228668117835
-0.0670614791907588,15.5236528273173
-0.0645978835375829,15.5245918485388
-0.061214007018426,15.5257847047197
-0.0569854962560749,15.5272168908041
-0.0528473718532938,15.5286036661822
-0.0488623239649695,15.5299517487057
-0.0450641278943809,15.5312633207561
-0.0414715946253952,15.5325390415597
-0.0380952967732202,15.5337788084781
-0.0349403439747935,15.5349821613795
-0.0320077353885479,15.5361484975225
-0.029295177475026,15.5372771842229
-0.0267976948197805,15.5383676145559
-0.0245081561305375,15.5394192294603
-0.0224177567916178,15.5404315186358
-0.020516467573482,15.5414040070742
-0.0187934469696791,15.5423362310842
-0.0172005328350064,15.5432494869932
-0.0156646943697677,15.5441860498121
-0.014190686062899,15.5451473053382
-0.0127824635396745,15.5461352913912
-0.011443796659132,15.5471523946015
-0.0101782134429872,15.54820143883
-0.00898894652861174,15.5492857973713
-0.00787887680126849,15.5504095434492
-0.0068504739519594,15.5515776565781
-0.00590573314131613,15.5527963130285
-0.0050461060441784,15.5540733075546
-0.00427242295993782,15.5554186889731
-0.0035847996369512,15.5568457629099
-0.00298251615178162,15.5583727677221
-0.00247251386422985,15.5599945983294
-0.00206485451363633,15.5616598721792
-0.00174256830351774,15.5633868745795
-0.00149070920106205,15.5651958556802
-0.00129520522126468,15.5671136589145
-0.00114242901031446,15.5691778944291
-0.00101853930023325,15.5714455144044
-0.000908230013919142,15.5740130772188
-0.000791349175207954,15.5770787831191
-0.000645421191757201,15.580811134851
-0.000475525220785536,15.5847271183054
-0.000258749144075406,15.5892254090514
-2.85691231185852e-06,15.5941986242354
0.000292294520655218,15.5998383640032
0.000627971457610358,15.6064091873738
0.000958122608315763,15.6131648423504
0.00127312080015359,15.6198393908028
0.00157491709165579,15.6263789053002
0.00186370945059335,15.6327735551805
0.00214167491257024,15.6390334140202
0.00241103611756727,15.6451639960101
0.0026740330165154,15.6511716333474
0.00293273948728031,15.6570606574733
0.00318929925233487,15.6628393884898
0.00344554469090814,15.6685109494346
0.00366995832528272,15.6733594591298
0.00387601439190796,15.6777049718751
0.00407829641014006,15.6818600499608
0.00428964864383424,15.6860728180739
0.00452974110611906,15.6906887370876
0.00479077622846216,15.6954866420262
0.00506391561682864,15.7002520881192
0.00534036209075277,15.7048006838869
0.00559706271297787,15.7087659099246
0.00585302609892463,15.7124974910568
0.0061172018809128,15.7161366169718
0.00639554113094766,15.7197566275214
0.00669331121247488,15.7234058353518
0.00701591279273771,15.727120747961
0.0073693607327072,15.7309318227274
0.00776075402370545,15.7348669976074
0.00819872592271029,15.7389532414803
0.00869403852214947,15.743217738214
0.00926041522456278,15.7476887375703
0.00991578839943059,15.7523962761697
0.0106258944281366,15.757011826011
0.0114244406321425,15.7616907561322
0.0123200771046581,15.7663934138909
0.0133333660756096,15.7711329821085
0.0144936469614551,15.7759385357474
0.0158507466982033,15.7808869746477
0.0175087208380213,15.7861805373084
0.0198304524394013,15.7926242667475
0.0214940580072684,15.7968007292559
0.0232300345676254,15.8009771917643
0.0247212108930101,15.8045885238857
0.0259701877869683,15.8078085890704
0.0270105061796126,15.8108551864067
0.0278174617130316,15.8137936020713
0.0283565261105956,15.8166164836602
0.0286242224363242,15.8194462721931
0.0285856425089547,15.8224463530789
0.0281132833405986,15.8259910026969
0.0273090862659499,15.8292390075024
0.0262083665653541,15.832487012308
0.0251134265553834,15.8351960516492
0.0240338472586152,15.8376197206916
0.0229554253168846,15.8399058168515
0.0218770952195682,15.8421176233003
0.0208017546163017,15.8442889057953
0.0197330778340578,15.8464412573933
0.0186747431235686,15.8485900595256
0.0176302158054271,15.8507471230808
0.0166026928403678,15.8529220511638
0.0155951027452404,15.8551230105742
0.0146100944390163,15.8573572651157
0.0136500721630105,15.8596314538724
0.0127171763350209,15.8619518963593
0.0118133146816329,15.8643247239571
0.0109401696771949,15.8667560240153
0.0100991851620996,15.8692520231283
0.0092915971529308,15.8718191378011
0.00851264323285935,15.8744846902709
0.00774608024813674,15.877327060434
0.00699571308896834,15.8803661862999
0.00626530159181883,15.8836260366548
0.00555881368906,15.8871342794498
0.00488038597716591,15.8909229855225
0.0042342528746236,15.8950295638759
0.00362463002224352,15.899498132395
0.00305553350497583,15.9043817888221
0.00253053460872689,15.9097466161075
0.00205249192563914,15.9156786909431
0.00162346726570055,15.9222938168555
0.00125724308578758,15.9294732355198
0.000951869127026364,15.9372457208459
0.000700683248194538,15.9457410566599
0.000497502907289651,15.9551307037687
0.000343231313198291,15.9651307037687
0.000234499407144816,15.9751307037687
0.000166661683448129,15.984678321304
0.000118426290734806,15.994678321304
8.53079964115134e-05,16.004678321304
6.25543098246764e-05,16.014678321304
4.72268975099792e-05,16.024678321304
3.72483020614442e-05,16.034678321304
3.1067554936464e-05,16.044678321304
2.75447468285566e-05,16.054678321304
2.58724751460557e-05,16.0646783213041
2.54950642923107e-05,16.0746783213041
2.64461728054681e-05,16.0846783213041
2.85124099636796e-05,16.0946783213041
3.12346091929177e-05,16.1046783213041
3.43634648692604e-05,16.1146783213041
3.77638559818845e-05,16.1246783213041
4.13643643029192e-05,16.1346783213041
4.51300783619479e-05,16.1446783213041
4.90476229849844e-05,16.1546783213041
5.31167735176636e-05,16.1646783213041
5.73457105985227e-05,16.1746783213041
6.17483362006215e-05,16.1846783213041
6.6342784718408e-05,16.1946783213041
7.11506475610486e-05,16.2046783213041
7.61966417979079e-05,16.2146783213041
8.15085718338571e-05,16.2246783213041
8.71175002376141e-05,16.2346783213041
9.30580831320497e-05,16.2446783213041
9.93690499210543e-05,16.2546783213041
0.000106093823647193,16.2646783213041
0.000113281290860752,16.2746783213041
0.000120986740841448,16.2846783213041
0.000129273004902387,16.2946783213041
0.000138211838577612,16.3046783213041
0.000147885603975277,16.3146783213041
0.000158389327863194,16.3246783213041
0.000169833234907198,16.3346783213041
0.000182345887289873,16.3446783213041
0.000196078105049302,16.3546783213041
0.000211207900729431,16.3646783213041
0.000227946744437729,16.3746783213041
0.000246547591807949,16.3846783213041
0.000267315273873122,16.3946783213041
0.000290620089581428,16.4046783213041
0.000316915798301134,16.4146783213041
0.000346763745125947,16.4246783213041
0.00037949789005301,16.4342860224892
0.000413734777151763,16.4430994876433
0.000449237528046233,16.4511705927404
0.000485854001011673,16.458564717176
0.000523451327333604,16.4653424700599
0.000561898124820149,16.4715593799666
0.000601061130443445,16.4772663525243
0.000640805077983087,16.4825100151165
0.000681001857750218,16.4873330754276
0.000721528142065598,16.4917747111674
0.000762276539679826,16.4958708460727
0.00080315124082827,16.4996545053316
0.000844076419213413,16.5031560923112
0.000884999288906665,16.5064037163121
0.000925888488842226,16.5094234937934
0.000966745738747916,16.512239897991
0.00100760874375909,16.5148761407714
0.00104855774192717,16.5173546539411
0.00108973535341563,16.5196977379037
0.00113137021111681,16.5219285387287
0.00117382033907094,16.5240727099022
0.00121767036449977,16.5261616299898
0.00126395391178344,16.5282397739323
0.00131479769643139,16.5303861804575
0.00137633577464503,16.5328115789579
0.00143066493191806,16.5348108093906
0.0014885850798819,16.5368100398234
0.00154060172279647,16.5384996352018
0.00158980545166559,16.5400134489583
0.00164025960546386,16.5414871383748
0.00169535040051389,16.5430123828361
0.00176014456489023,16.5447034750607
0.00184732861238832,16.5468204411712
0.00202672102265552,16.5506881517421
0.00222420916689109,16.5543246254699
0.00242601264149271,16.5575219006594
0.00267896175540561,16.5609770901395
0.00307379823978122,16.5655109390179
0.00361117728654396,16.5705548330003
0.00421335181794891,16.5751411108121
0.00486440146207791,16.5791866929291
0.00558775771633695,16.5828676817801
0.00640639018201394,16.586279959547
0.00733751105444993,16.5894579174674
0.00836279909054141,16.592333645198
0.00948899270257011,16.5949491929169
0.0107252528906768,16.5973453470904
0.0120835014943733,16.5995596463059
0.0135804835424292,16.6016280952057
0.0152392652383372,16.6035851010508
0.0170903862686052,16.6054631650147
0.0191811425507433,16.6072997811905
0.0215622762715379,16.6091233485904
0.0243821470563643,16.6110166705565
0.0276306887299628,16.6129427942461
0.0311322632282944,16.6148015770791
0.0343499524566159,16.616364289084
0.0374658356425106,16.61777554226
0.0406124622928139,16.6191169578579
0.0438948581682397,16.6204375640527
0.0473587582607587,16.6217492225758
0.0508660549648222,16.6229908148014
0.0545055999900496,16.6241835987559
0.0583409704007528,16.6253323212077
0.0624302143006503,16.62643610464
0.0668728665888733,16.6275025515196
0.0717637460248144,16.6285345252689
0.0772024599012548,16.6295339509912
0.0833105117350791,16.6305049044699
0.0902184420580127,16.6314504605512
0.0980734282893144,16.6323736912952
0.107049401265737,16.6332782502967
0.117353341473762,16.6341681000791
0.129234769995893,16.635047473542
0.143002471055644,16.6359211559808
0.159046033158307,16.6367946499242
0.177874205012098,16.6376746673292
0.195465238995646,16.6383913436362
0.221118910845597,16.6393024917969
0.250944430219395,16.6402162571665
0.285656703670193,16.6411402091829
0.326284091402221,16.64208869008
0.374554916812784,16.6430917412811
0.411321583743077,16.643799837002
0.449311365655126,16.644507932723
0.483092580660452,16.6451407958241
0.512772470428952,16.6457237713015
0.538825727001764,16.6462867127183
0.561160443102468,16.646853024615
0.579176372283264,16.6474483076209
0.591461388531804,16.6481134576997
0.594508447844797,16.6488565238292
0.585700165997358,16.6496249739722
0.563711138147479,16.6504406956328
0.528210482731464,16.651287452722
0.479347136228668,16.6521579244647
0.415352237594417,16.6530746916453
0.365081839282428,16.6536994619301
0.310363624043524,16.6543242322149
0.262680573262597,16.6548423536395
0.222466986384078,16.655272561899
0.187479233877141,16.6556502034768
0.156325217407514,16.6559959070205
0.128191513299638,16.6563221226467
0.102529929404426,16.6566378413887
0.0788954032534414,16.6569512150618
0.0568131466962791,16.6572722835631
0.0354798405646362,16.6576202176977
0.0115343836244399,16.6580789574756
0.00321438851063799,16.658263370651
-0.00439402657019827,16.6584477838265
-0.0108921076427089,16.6586202025352
-0.0171212428005887,16.6588016570817
-0.023356541570962,16.6590033872381
-0.0293552980798287,16.6592221205308
-0.0349671687921975,16.6594560266531
-0.0401088358745429,16.6597045304042
-0.0447374057413018,16.6599679039863
-0.0488345985738192,16.6602470436741
-0.0523973514079543,16.6605433664491
-0.0554320104700631,16.6608587817683
-0.0579448432765159,16.6611957172654
-0.0599768192639772,16.6615649114206
-0.0614510208003339,16.6619516004959
-0.0624501958022244,16.6623707164076
-0.062988044235528,16.6628281246238
-0.0630737004793077,16.6633311489472
-0.0627100235504447,16.6638893635228
-0.0618879206095416,16.6645171389819
-0.0605816149240904,16.665233541654
-0.058736154109753,16.6660681277127
-0.0562315708883684,16.6670741265612
-0.0527306784819745,16.6683845054073
-0.0488454832897455,16.6697919307798
-0.0450655562973769,16.6711563164742
-0.0414441554277868,16.6724817977509
-0.03800891547553,16.6737701885617
-0.0347752283916395,16.6750220100344
-0.0317512428321283,16.6762371386108
-0.0289400929061756,16.6774151523253
-0.0263410921588975,16.678555513685
-0.0239505179351328,16.6796576640288
-0.0217622238555669,16.6807210678205
-0.0197681703861366,16.681745226894
-0.0179589041411936,16.6827296754302
-0.0163239928369478,16.6836739616551
-0.0148477459240128,16.6845805801154
-0.0134294147131067,16.685510190201
-0.0120742859573462,16.6864639308429
-0.0107866451032973,16.6874437509436
-0.00957065045107653,16.6884519249138
-0.0084302855787826,16.6894911362205
-0.00736931910068832,16.6905645805605
-0.00639126545481623,16.6916761034116
-0.00549934823676307,16.6928303873004
-0.00469646803390732,16.694033213202
-0.00398517759214867,16.6952918363181
-0.00336766878739583,16.6966155456634
-0.00284577919357965,16.698016533942
-0.00242103321651797,16.6995113242856
-0.00209474973814623,16.7011232777836
-0.00187930434694372,16.7027737339498
-0.00175876708937183,16.7044808580931
-0.00171942921471241,16.7062634504047
-0.00174878973936022,16.7081461152952
-0.00183526917553307,16.7101626848288
-0.00196785066065302,16.7123631017078
-0.00213558119551655,16.7148288437126
-0.0023267143797422,16.7177159708991
-0.00251186176089454,16.7211024004825
-0.00263478487345101,16.72450428567
-0.00268657542384771,16.7281144882491
-0.00265100394073572,16.7321274652805
-0.00253545662263488,16.7359691124946
-0.00235255997444212,16.7398423275521
-0.00215482282590162,16.7431470824746
-0.0019465170141508,16.7461908967187
-0.00172763755201176,16.7491222938322
-0.00149855836821821,16.7520111549967
-0.00125956344635347,16.754899381635
-0.00101076553324333,16.7578164083373
-0.000752115306650966,16.7607852620467
-0.000483415285813083,16.7638254614061
-0.000204316560761851,16.7669546994321
8.56823474823603e-05,16.7701897598941
0.000387252193428612,16.7735471661332
0.000701256449240995,16.7770435967446
0.00102878166848941,16.7806961315387
0.00137117558748105,16.7845223563654
0.0017301088378095,16.7885405040687
0.00210765406654795,16.7927695470433
0.00250637116078005,16.7972290901297
0.0029294353451121,16.8019394182529
0.00336234810307272,16.8067174851545
0.00380961215438775,16.8115902302544
0.0042775333583108,16.8165969910172
0.00477093411115045,16.8217510473911
0.00526987838319472,16.8268052593094
0.0057848077224929,16.8318328122739
0.00631630349055795,16.8367989150567
0.00686924874504223,16.8417068208461
0.00744836172353735,16.8465524689139
0.0080595483781559,16.8513366839217
0.0087093849952094,16.8560597273692
0.00940522785003845,16.8607216122786
0.0101586506408941,16.8653418125252
0.0109944370201468,16.8699974486256
0.0119278721134518,16.8746824671457
0.0129825511075355,16.8794158625217
0.0141918840276805,16.884234471202
0.0156120219775226,16.8892258791551
0.0173657520089834,16.894630545418
0.0198128583901714,16.9012064849359
0.0214377669533834,16.9051905986035
0.0231160941861255,16.9091747122711
0.0245769376812987,16.9126955216191
0.0258071795950454,16.915876447464
0.0268303894537455,16.9189093639236
0.0276119723923086,16.9218259781753
0.0281261723238017,16.924643923007
0.0283668074346302,16.9274876439508
0.0282929859722151,16.9305326514923
0.02774961790302,16.9342279357199
0.0269400681029105,16.9373507263178
0.0258653571074231,16.9404735169157
0.0247862793482052,16.9431357503372
0.023716436978886,16.9455423202881
0.0226463057229238,16.947821241969
0.0215759884116416,16.9500305679032
0.0205086620774839,16.9522022834927
0.0194480835300729,16.9543571651146
0.0183979447915118,16.9565101800469
0.0173617031919487,16.9586729152377
0.0163425357978344,16.9608548661812
0.0153433416604189,16.9630641774012
0.0143667452905144,16.9653081312477
0.0134151135256741,16.967593460628
0.0124905646007523,16.969926588261
0.0115949751240287,16.9723138160542
0.0107299943722075,16.9747614608657
0.00989704923837513,16.9772759930819
0.0090973517718592,16.9798641595328
0.00832583835762452,16.9825551110847
0.00756726669253362,16.9854255558873
0.00682545463128362,16.9884958191241
0.00610418526161753,16.9917902748117
0.00540744279702561,16.995337052319
0.00473937191249077,16.9991687336069
0.00410419987718174,17.0033233085643
0.0035061123087187,17.0078455865755
0.00294906358093481,17.0127895689402
0.00243651611981361,17.0182227690608
0.00197119104564146,17.0242334724354
0.00155501610088549,17.0309405936608
0.00120202038039961,17.0382063837293
0.000908788077323707,17.0460825570096
0.000668733605813094,17.0547045167689
0.000475756728033038,17.0642514587187
0.000332682706546665,17.0742514587187
0.000232315780484197,17.0842514587187
0.00016191938279283,17.0942514587187
0.000112564025596455,17.1042514587187
7.7987653160138e-05,17.1142514587187
5.38591865583841e-05,17.1242514587187
3.75013946449894e-05,17.1342514587188
2.66516000527337e-05,17.1442514587188
1.93345717296608e-05,17.1542514587188
1.43828956776023e-05,17.1642514587188
1.10820656264479e-05,17.1742514587188
8.95413654947702e-06,17.1842514587188
7.65768990404947e-06,17.1942514587188
6.94548072328089e-06,17.2042514587188
6.64160259940119e-06,17.2142514587188
6.62373932242175e-06,17.2242514587188
6.8080613336997e-06,17.2342514587188
7.13734098352309e-06,17.2442514587188
7.57243055953848e-06,17.2542514587188
8.08650069836826e-06,17.2642514587188
8.661211916497e-06,17.2742514587188
9.28413764722537e-06,17.2842514587188
9.94699099518666e-06,17.2942514587188
1.06443871164024e-05,17.3042514587188
1.13729779311629e-05,17.3142514587188
1.2130851021061e-05,17.3242514587188
1.29171157084814e-05,17.3342514587188
1.37316203202763e-05,17.3442514587188
1.45747605066735e-05,17.3542514587188
1.54473505303684e-05,17.3642514587188
1.63505381985479e-05,17.3742514587188
1.72857502222831e-05,17.3842514587188
1.82546589644779e-05,17.3942514587188
1.92591643904169e-05,17.4042514587188
2.03013870045139e-05,17.4142514587188
2.13836689327562e-05,17.4242514587188
2.25085812793508e-05,17.4342514587188
2.36789365725074e-05,17.4442514587188
2.48978056046282e-05,17.4542514587188
2.6168538328208e-05,17.4642514587188
2.74947887349661e-05,17.4742514587188
2.88805438540818e-05,17.4842514587188
3.03301571789785e-05,17.4942514587188
3.18483869879538e-05,17.5042514587188
3.34404401751935e-05,17.5142514587188
3.51120223660977e-05,17.5242514587188
3.6869395263961e-05,17.5342514587188
3.871944237318e-05,17.5442514587188
4.0669744477144e-05,17.5542514587188
4.27286665279367e-05,17.5642514587188
4.49054579431778e-05,17.5742514587188
4.72103687190789e-05,17.5842514587188
4.96547842786234e-05,17.5942514587188
5.22513826059603e-05,17.6042514587188
5.50143180066058e-05,17.6142514587188
5.79594368222167e-05,17.6242514587188
6.11045316768567e-05,17.6342514587188
6.44696424161972e-05,17.6442514587188
6.80774139252965e-05,17.6542514587188
7.19535236136423e-05,17.6642514587188
7.6127194726891e-05,17.6742514587188
8.063181604174e-05,17.6842514587188
8.55056942807173e-05,17.6942514587188
9.07929732452202e-05,17.7042514587188
9.65447639088931e-05,17.7142514587188
0.000102820543536985,17.7242514587188
0.000109689900736185,17.7342514587188
0.00011723472928413,17.7442514587188
0.000125552009721602,17.7542514587188
0.000134757368623024,17.7642514587188
0.000144989678184778,17.7742514587189
0.000156417064060289,17.7842514587189
0.000169244844108113,17.7942514587189
0.00018372615184237,17.8042514587189
0.000200176349720066,17.8142514587189
0.000218992881843037,17.8242514587189
0.000240683077203299,17.8342514587189
0.000265903809739778,17.8442514587189
0.000295519238871229,17.8542514587189
0.000330686813658184,17.8642514587189
0.000372988705326621,17.8742514587189
0.000422665409426255,17.8839018689473
0.000478915358339828,17.8928391318255
0.000542507333390922,17.9011012944083
0.000614408906777235,17.908738424733
0.000695731567884227,17.9157977876698
0.000787738352549526,17.922323468659
0.000891860403246795,17.9283565551561
0.00100971750569118,17.93393532372
0.00114314245554653,17.9390954053532
0.00129420779912237,17.9438699465186
0.00146525706988614,17.9482897746371
0.0016589404757912,17.952383563068
0.00187825739971761,17.9561779828015
0.00212660473446107,17.9596978445634
0.00240783710331701,17.9629662464366
0.00272633901163916,17.9660047242907
0.00308711484069102,17.9688333959237
0.00349590305601071,17.9714711119326
0.0039593241289684,17.973935621211
0.00448507796283554,17.9762437508056
0.00508221497429395,17.9784116180529
0.00576152236320717,17.9804548995002
0.00651627459858901,17.9823439012924
0.00734592128358265,17.9840845113257
0.0082598230101598,17.9857045676958
0.00927125633677474,17.9872306302674
0.0103998598000457,17.9886897469566
0.0116815637125472,17.9901178308549
0.0132402445645111,17.9916172259047
0.0152951054939864,17.9933179079174
0.0173529229461921,17.9948120613854
0.0196128872937747,17.9963062148534
0.0215898969150097,17.9975498306315
0.0233079277248718,17.9986263997556
0.0248535965889568,17.9996308827807
0.0262464167618284,18.0006111492937
0.0274774421933468,18.0016029312224
0.028518644819954,18.0026464752403
0.0293145492275273,18.0038071531696
0.0297318884312437,18.0052538415162
0.0294600223768643,18.0069049312563
0.0285178021053868,18.0085560209963
0.0273670090137782,18.0099129016311
0.0260403167431837,18.011219407369
0.0245335818167784,18.0125647696716
0.0228535782865019,18.013992930524
0.0210040103710996,18.0155450105892
0.0197386224839134,18.0166186913402
0.0185148065579471,18.0176923720912
0.0161601928227238,18.0199232318443
0.0141458521258255,18.0220524478698
0.0124498801260009,18.024055352276
0.0110157643940757,18.0259452406641
0.00979498268215494,18.0277366046149
0.00874727354498422,18.0294444684032
0.00783919696493401,18.0310852368524
0.00704246504746262,18.032678314844
0.00633197386463572,18.0342494891378
0.00568275034875942,18.0358393440582
0.00506197690514753,18.0375315319596
0.00438177456060901,18.0396330195051
0.00399221358395024,18.0409847514783
0.00363665375727527,18.0423364834514
0.00334175374720709,18.0435604301385
0.00308724183572722,18.0447062150335
0.00285253870452623,18.0458497442883
0.00262363209402836,18.0470601590706
0.0023846525184823,18.0484441040164
0.00209771154921271,18.050308026635
0.00172081305805874,18.0532128786089
0.00142948077319014,18.055987929622
0.00119775695500981,18.0587254454998
0.000978240289740234,18.0620685783456
0.000779022512241689,18.0664413319831
0.000653931113284033,18.071325135496
0.000618777995657606,18.0767208698296
0.000676766714192377,18.081462766401
0.000809257778385295,18.0857130581736
0.00100718792479954,18.0895019400897
0.00126612208710954,18.0928773830871
0.00158392698956042,18.0958843110898
0.00196042079382797,18.0985704970605
0.00239719758408779,18.1009830315641
0.00289750032554962,18.1031655309682
0.00346720754003431,18.1051605278903
0.00411641949250517,18.1070107377662
0.00486148112527049,18.1087594714142
0.00572961010185787,18.1104549718713
0.00676789662923149,18.1121570446684
0.00808486585896507,18.11397898403
0.00999478600111965,18.116199634503
0.0123588720209288,18.1185216350933
0.0144253610988777,18.1202893818491
0.0167612716267696,18.1220571286048
0.0190575158843621,18.1235887123167
0.0214572090152976,18.124998511019
0.0239852564180454,18.1263010835693
0.0267546101553778,18.1275467669332
0.0297943574014068,18.1287345091285
0.0331814242430437,18.1298799100655
0.0369517678756764,18.1309802280651
0.0411785918707423,18.1320429056795
0.04592441465732,18.1330695735101
0.0512504876835028,18.1340605183275
0.0572468459427333,18.1350200085697
0.0640075145203865,18.1359505055855
0.0716420145286525,18.1368546230509
0.0802773639101052,18.137734941916
0.0900661089535074,18.1385944044102
0.101192440822836,18.1394362255551
0.113875926682081,18.1402635911138
0.128382492201503,18.1410798590273
0.145037058869129,18.1418886219798
0.164240750364332,18.1426938043933
0.186502150247955,18.1435000632634
0.212494877929405,18.1443135595149
0.243204332472558,18.1451443010529
0.279060286344304,18.1459845441397
0.320590160800591,18.1468332129619
0.369182182561542,18.1477097035072
0.410062029357587,18.1483834652932
0.453041698585646,18.1490572270793
0.491117029891512,18.1496472014968
0.524502091573999,18.1501805214869
0.5541416998692,18.1506907806302
0.580186569035917,18.1512015508399
0.602246731303612,18.1517369989604
0.619244391977107,18.1523350415933
0.62787350913362,18.1530253272249
0.624380865644293,18.1537409240728
0.60765031967665,18.154506868963
0.580740922353437,18.1552339602634
0.542917842416763,18.1559861430499
0.491025143271028,18.1568092048755
0.421977256176824,18.1577181174021
0.36787306225246,18.1583447887134
0.309424252793839,18.1589714600247
0.259242267896675,18.1594865479626
0.217491688384878,18.1599105201776
0.181430988668207,18.1602814608998
0.149452847236551,18.1606208181719
0.120649268420765,18.1609412484047
0.0944179851994221,18.1612518659513
0.0702699173913662,18.1615610821438
0.0476695008551077,18.1618797150977
0.0256373125415681,18.1622302235117
0.00811676309277697,18.1625505464438
-0.00159868204433131,18.1627507755718
-0.0104033505137735,18.1629510046998
-0.0171687810274255,18.1631202902897
-0.0233990655040891,18.1632911519749
-0.0297169687107074,18.1634829139883
-0.0358503710178059,18.1636920742444
-0.041623040320372,18.1639164603106
-0.0469353635791276,18.1641552468386
-0.0517343084837353,18.1644085134701
-0.0559952466149425,18.1646769926035
-0.059711127791749,18.1649619464183
-0.0628858196133815,18.1652651247623
-0.0655298142653904,18.1655887793185
-0.0676572918783313,18.1659357246753
-0.06928395033191,18.1663094474483
-0.0704192347146957,18.1667142742195
-0.0710756453189826,18.1671673816275
-0.071231414630665,18.1676476034055
-0.0709237940729845,18.1681792636447
-0.0701462307625106,18.1687753233397
-0.0688752321671752,18.16945338758
-0.0670606539535098,18.1702395613187
-0.064596273642958,18.1711788204951
-0.0612110379350543,18.1723721309865
-0.056982785526566,18.1738042516516
-0.0528449799035405,18.1751909811657
-0.0488602817416566,18.1765390222761
-0.0450624435581942,18.1778505547418
-0.0414702658222333,18.1791262364496
-0.038094315430576,18.1803659640934
-0.034939698421217,18.1815692772322
-0.0320074114594081,18.1827355730066
-0.0292951592130055,18.1838642187138
-0.0267979650051869,18.1849546074583
-0.0245086967316042,18.186006180224
-0.0224185493665117,18.1870184267512
-0.020517493632013,18.1879908720539
-0.0187946882957824,18.1889230524337
-0.0172018581257526,18.1898363330202
-0.0156661057975234,18.190772921669
-0.0141921844883745,18.1917342050801
-0.0127840496342723,18.1927222214112
-0.0114454708354315,18.1937393577176
-0.0101799757891162,18.1947884383908
-0.00899079673546353,18.1958728373962
-0.00788081408131209,18.1969966288191
-0.00685249694734966,18.1981647932986
-0.00590783981752344,18.199383508607
-0.00504829356298448,18.2006605715553
-0.00427468752032075,18.202006033871
-0.00358713626329336,18.2034332054714
-0.00298491839033544,18.2049603313833
-0.00247500424349397,18.2065821996399
-0.00206740916749769,18.208247530577
-0.00174516630066244,18.2099746091833
-0.00149333044672871,18.2117836912797
-0.00129782984804331,18.2137016291098
-0.0011450364832613,18.2157660478506
-0.00102110694243983,18.2180339280364
-0.000910729914613931,18.2206018907343
-0.000793738958679989,18.2236683207237
-0.000647692606875242,18.2274006659779
-0.000477648230587945,18.2313170714155
-0.0002606913023109,18.2358161465353
-4.64629008875583e-06,18.2407895927171
0.000290699370581646,18.2464304361762
0.000626305775081395,18.252997081368
0.000956697624766506,18.259755156635
0.00127170487263495,18.2664283604135
0.00157364120373508,18.2729694355658
0.00186249075939696,18.2793636454611
0.00214056159452966,18.2856242382269
0.00240999156522644,18.2917548558403
0.00267306448120235,18.2977628974375
0.00293183062143551,18.3036521438713
0.00318844513733834,18.3094311775304
0.00344473538348589,18.3151029916699
0.00366938614935077,18.3199561280895
0.00387557436968113,18.3243039476448
0.00407789997184375,18.3284594965958
0.00428919940595814,18.3326708714314
0.00452904255042446,18.3372818295525
0.00479012893554658,18.3420808221914
0.00506321844966261,18.346845637318
0.00534006133586905,18.3514011702122
0.00559691573896771,18.355368851252
0.00585294758460973,18.3591014156165
0.00611714992758066,18.3627408695776
0.00639548655022876,18.3663608128108
0.00669322887315994,18.3700096688606
0.00701577815691433,18.3737240027479
0.00736914720729546,18.3775342976415
0.00776043090361892,18.3814685015511
0.00819825629160016,18.3855535840482
0.00869337644104012,18.3898167224719
0.00925950161030184,18.3942861543593
0.00991454414241352,18.3989918972838
0.0106245781905207,18.4036076245311
0.0114229873114081,18.4082864063774
0.0123184917022663,18.4129890615733
0.0133316194167288,18.4177286118873
0.014491689560278,18.4225340881814
0.0158484767016104,18.427482259581
0.0175058949418458,18.4327750407126
0.0198258537979176,18.4392151979493
0.0214901911263063,18.4433941302927
0.0232271327000585,18.4475730626361
0.0247188677714127,18.4511855073896
0.0259682378431104,18.4544060481217
0.027008923903968,18.4574528149898
0.02781635815439,18.4603915409976
0.0283558869443013,18.4632145237602
0.028624072659933,18.4660441814333
0.0285860869762216,18.4690437617145
0.0281147505570348,18.4725867299609
0.0273107726849869,18.4758364347251
0.0262098518953524,18.4790861394893
0.0251148313740115,18.481795806143
0.0240352397797852,18.4842197176057
0.0229568158571185,18.486505935503
0.0218784815526233,18.4887178093325
0.0208031323011379,18.4908891270209
0.0197344421457249,18.4930414919555
0.0186760895903566,18.4951902911384
0.0176315402588999,18.4973473389368
0.0166039915152014,18.4995222405403
0.0155963722319912,18.5017231641658
0.014611331702723,18.5039573744677
0.013651274541632,18.5062315109971
0.0127183414442154,18.5085518936648
0.0118144405182371,18.5109246537533
0.0109412545564248,18.513355878443
0.010100227684157,18.5158517940444
0.00929259623187287,18.518418816489
0.00851362766760194,18.5210841599936
0.00774704537369885,18.5239262984554
0.00699665441130745,18.5269651649082
0.00626621434136287,18.5302247239852
0.00555969287807662,18.5337326386246
0.00488122644932665,18.5375209737517
0.00423504941576268,18.5416271311436
0.00362537753199427,18.5460952194818
0.00305622727361105,18.5509783237141
0.00253117066082075,18.5563425075618
0.00205306727186739,18.5622738183493
0.00162397983247184,18.5688880177032
0.00125767508517624,18.5760667484433
0.000952228948831969,18.5838384079223
0.000700978962899389,18.5923327305588
0.000497741936365802,18.6017211169493
0.000343403022253934,18.6117211169493
0.000234592436155652,18.6217211169493
0.000166877417266212,18.6312426855897
0.000118569108382295,18.6412426855897
8.54017140819414e-05,18.6512426855897
6.26130723060537e-05,18.6612426855897
4.72604361961178e-05,18.6712426855897
3.72638565576168e-05,18.6812426855897
3.10704805241014e-05,18.6912426855897
2.75388537377971e-05,18.7012426855897
2.58603782706775e-05,18.7112426855897
2.54785224803565e-05,18.7212426855897
2.64214337315791e-05,18.7312426855897
2.84831257320464e-05,18.7412426855897
3.1202631318442e-05,18.7512426855897
3.43297057882509e-05,18.7612426855897
3.77287310112647e-05,18.7712426855897
4.1328020715083e-05,18.7812426855897
4.50925154395799e-05,18.7912426855897
4.9008755430825e-05,18.8012426855897
5.30764649324345e-05,18.8112426855897
5.73037908641541e-05,18.8212426855897
6.17046100367891e-05,18.8312426855897
6.62970352625034e-05,18.8412426855897
7.11026370147597e-05,18.8512426855897
7.6146110217157e-05,18.8612426855897
8.14552346147059e-05,18.8712426855897
8.70610445583093e-05,18.8812426855897
9.29981634386166e-05,18.8912426855897
9.93052824312387e-05,18.9012426855897
0.00010602577976311,18.9112426855897
0.000113208489306159,18.9212426855897
0.000120908638263448,18.9312426855897
0.000129188984590525,18.9412426855897
0.000138121196847012,18.9512426855897
0.000147787533624734,18.9612426855897
0.000158282897941345,18.9712426855897
0.000169717365782868,18.9812426855897
0.000182219319702386,18.9912426855897
0.000195939361376404,19.0012426855897
0.000211055236103843,19.0112426855897
0.000227778084493268,19.0212426855897
0.00024636045262901,19.0312426855897
0.000267106657983159,19.0412426855898
0.000290386349264633,19.0512426855898
0.000316652453772976,19.0612426855898
0.000346465239345739,19.0712426855898
0.000379183543951124,19.0808574391285
0.000413407181754371,19.0896776571122
0.00044889825294769,19.0977549480513
0.000485504343737335,19.1051547236067
0.000523092548926235,19.1119376344722
0.000561531505528218,19.1181592477736
0.000600687978462283,19.1238705044596
0.000640426682805644,19.1291180651525
0.000680619437044751,19.1339446673254
0.000721142817699805,19.1383895164018
0.000761889316635837,19.1424885610878
0.000802762888580082,19.1462748490945
0.000843687588449797,19.1497788037375
0.000884610336049182,19.1530285516264
0.000925499490206738,19.1560502235762
0.000966356484599886,19.158868303925
0.00100721855085767,19.1615060114713
0.00104816538716659,19.1639857795827
0.00108933892353525,19.1663299022203
0.00113096667838613,19.168561506138
0.00117340486089775,19.1707062021146
0.00121723494852146,19.1727952773544
0.00126348374216158,19.1748729941856
0.00131425906591248,19.1770177779714
0.00137560687911667,19.1794374236658
0.00143009814321307,19.1814440587768
0.00148820384573803,19.1834506938878
0.00154027649518966,19.1851426985598
0.001589482843918,19.1866570568062
0.00163991477487961,19.1881305497059
0.00169495618447235,19.18965493663
0.00175965009431962,19.1913440811464
0.00184657056501152,19.193455803536
0.00202593060741521,19.1973253131326
0.00222399629670528,19.2009738040569
0.00242643006611823,19.2041807388264
0.00267999332989993,19.2076426654298
0.00307611048439369,19.212187353615
0.00361387047702047,19.2172294705716
0.00421623978998308,19.2218125117838
0.00486749916309301,19.2258553959724
0.00559111833284363,19.2295342089171
0.00641006538085154,19.232944653233
0.00734180354217441,19.2361218155707
0.00836774524773333,19.2389967224318
0.00949470598574807,19.2416116308686
0.0107318574991657,19.2440072900727
0.0120911222167779,19.2462211946895
0.0135892780146224,19.2482893616486
0.0152495254545454,19.2502463095574
0.0171022888142188,19.2521243513959
0.0191948270356029,19.2539609444453
0.0215780637405808,19.2557846446041
0.0244007589305876,19.2576784647549
0.0276519846943111,19.2596049729981
0.0311551286865287,19.2614637485721
0.0343684514638329,19.2630240423774
0.0374811232243097,19.2644339559163
0.0406253654342422,19.2657747478121
0.0439060222327718,19.2670952681775
0.0473681494421074,19.2684070306379
0.0508727536510441,19.2696484954229
0.0545098615606806,19.2708413017611
0.0583428057634367,19.2719900530486
0.0624295516843664,19.2730938135119
0.0668699274908466,19.274160250375
0.0717587673518425,19.2751922158947
0.0771956659514278,19.2761916277083
0.0833021512374292,19.2771625670519
0.0902087486000037,19.2781081084012
0.0980626464851649,19.2790313275012
0.107037660750629,19.2799358680378
0.117340771984843,19.280825697059
0.129221456015445,19.2817050468342
0.142988440130618,19.2825787016449
0.159031313079445,19.2834521664708
0.177858809518022,19.2843321437711
0.19542405145529,19.2850478134237
0.221073162603624,19.285958926398
0.250893384929451,19.2868726487809
0.285599124837708,19.2877965362108
0.326218099515019,19.2887449159511
0.374476783397458,19.2897477850835
0.411252005356457,19.2904560523876
0.449253513198608,19.2911643196917
0.483044539633862,19.291797276439
0.512732438576205,19.2923802799814
0.538793375517881,19.2929432072873
0.561136380054904,19.293509466874
0.57916223054167,19.2941046476793
0.591460908715928,19.294769600695
0.594528766305594,19.295512618854
0.585742683376296,19.296280986423
0.563778474607366,19.2970965951429
0.528301261939648,19.2979433042049
0.479467673339662,19.2988136283382
0.415497006240831,19.2997303610638
0.365208029685191,19.3003555046542
0.310463282272968,19.3009806482445
0.262760202467473,19.3014990022199
0.222533926341029,19.3019293359625
0.187537390959816,19.3023070493575
0.15637666802069,19.3026527958238
0.128237546002913,19.3029790356221
0.102571487192244,19.3032947635732
0.0789333288531851,19.3036081310394
0.0568484782872328,19.3039291708143
0.0355148161770653,19.3042770216191
0.0115853761528156,19.3047352652001
0.00324897735826876,19.3049199482568
-0.00437358798761925,19.3051046313136
-0.0108752315115693,19.3052770876135
-0.0171038357267997,19.3054584629768
-0.0233395947437701,19.3056601268056
-0.0293394836317257,19.3058788027092
-0.0349528650420694,19.3061126551342
-0.0400962431632176,19.3063611053991
-0.0447266168127803,19.3066244232632
-0.0488256399752449,19.306903503079
-0.0523902085897059,19.3071997601096
-0.0554266436963119,19.3075151020874
-0.0579412582644647,19.3078519547506
-0.0599762628526178,19.3082213242304
-0.0614517692207694,19.3086079292552
-0.0624521873784677,19.3090269438191
-0.0629912401090535,19.309484232684
-0.0630780752931188,19.3099871145825
-0.062715576109745,19.310545152607
-0.0618946866419892,19.3111727080954
-0.06058968554823,19.3118888270073
-0.058745728948734,19.3127230253237
-0.0562431240268247,19.3137284302325
-0.0527458699951445,19.3150375676358
-0.0488602853040873,19.3164451451705
-0.0450797703530819,19.3178096596342
-0.0414576818818285,19.3191352615841
-0.0380217040742756,19.3204237703706
-0.0347872555019278,19.3216757098072
-0.0317625019680957,19.3228909576068
-0.0289505901200089,19.3240690923284
-0.0263508432937142,19.3252095766144
-0.023959546620291,19.3263118517474
-0.0217705598199194,19.3273753820593
-0.0197758479408743,19.3283996692477
-0.0179659607910421,19.3293842474025
-0.0163304680219201,19.3303286647384
-0.0148540059514072,19.331235208524
-0.0134354429983309,19.332164740642
-0.0120800695841807,19.3331183972698
-0.0107921714744623,19.3340981263314
-0.00957590744692979,19.3351062010099
-0.0084352616868798,19.3361453032446
-0.00737400354182619,19.3372186268082
-0.0063956483001197,19.3383300147208
-0.00550342050876312,19.3394841463173
-0.00470022178160405,19.3406867983422
-0.00398860592491336,19.3419452202512
-0.00337076584261166,19.3432686930129
-0.00284853999302815,19.3446693976294
-0.00242345332333382,19.3461638393601
-0.00209682452235872,19.3477753501712
-0.00188101072138459,19.349425648085
-0.0017601551383747,19.3511325465937
-0.00172054160829167,19.3529148398272
-0.00174966389374523,19.3547971074235
-0.00183593776144142,19.3568131405105
-0.00196834205966685,19.3590128071605
-0.00213591995928033,19.3614774290843
-0.00232692182679896,19.3643626531823
-0.00251214158718169,19.3677490700669
-0.00263517141096065,19.3711509128586
-0.00268708051116853,19.3747608464541
-0.0026516270025452,19.3787740825472
-0.00253616708181475,19.3826158117788
-0.00235334427190438,19.3864889493359
-0.0021556343918038,19.3897940161209
-0.00194735079690481,19.3928379864519
-0.00172849171274212,19.3957694655479
-0.0014994323549686,19.3986583689878
-0.00126045765487051,19.4015466128164
-0.00101168108374812,19.4044636390326
-0.000753053883482646,19.4074324789721
-0.000484379012054956,19.4104726544737
-0.000205307938339521,19.413601861057
8.46605142124628e-05,19.4168368852972
0.000386196868981545,19.4201942541724
0.000700164447382131,19.4236906512998
0.00102764973805479,19.4273431632922
0.0013700004829493,19.4311693846067
0.00172888735792768,19.435187558156
0.00210638304576238,19.4394166671274
0.00250504733592986,19.4438763260435
0.00292805509397331,19.4485868266304
0.00336072231646825,19.453363045143
0.00380771325196063,19.4582337888215
0.00427532980692851,19.4632384118032
0.00476869647773133,19.4683934159609
0.00526749888509382,19.4734475611539
0.00578231048305052,19.4784754766433
0.00631366228616921,19.4834418861407
0.00686644570749627,19.4883501633645
0.00744536749207993,19.4931961770095
0.00805632942602309,19.4979807540726
0.00870590237727924,19.502704150486
0.00940143820373875,19.5073663845328
0.0101544079101286,19.5119863698404
0.0109896697991405,19.5166418676973
0.011922464257226,19.5213266631262
0.0129763488605805,19.5260597008006
0.0141846510886199,19.5308776398799
0.0156033227980352,19.5358676146503
0.017354459790254,19.5412684929346
0.0198014554295907,19.5478483935887
0.0214278567167677,19.5518375668382
0.0231082020533213,19.5558267400876
0.0245704203106984,19.5593501410361
0.0258017167996145,19.562532225501
0.0268259487416489,19.5655655104873
0.0276088723922599,19.5684829082668
0.0281243901573706,19.5713010512477
0.0283664372152723,19.5741442848987
0.0282943802306965,19.5771876255068
0.0277543539716969,19.5808769004238
0.0269454765978161,19.5840043039625
0.0258703239423193,19.5871317075012
0.0247910619607425,19.5897958037862
0.023721199014645,19.5922031524692
0.0226510707458681,19.5944824744302
0.0215807469484216,19.5966920193859
0.0205133984517733,19.5988638438505
0.0194527814425737,19.6010187581274
0.0184025887624242,19.6031717482485
0.017366278878777,19.6053344125509
0.0163470301007503,19.607516253646
0.0153477426813314,19.6097254206288
0.0143710422687197,19.6119691987442
0.0134192968470545,19.61425432244
0.0124946256269834,19.6165872153528
0.0115989062636624,19.6189741792935
0.0107337890453994,19.6214215303531
0.0099007017257207,19.623935737884
0.00910085728908897,19.6265235467968
0.00832929184109808,19.6292137392314
0.00757065127806509,19.6320833414234
0.00682875391856017,19.635152660793
0.00610738186160657,19.6384460561273
0.00541051852413669,19.6419916385377
0.00474230802213431,19.6458219682146
0.00410697749398423,19.649975008296
0.00350871312072979,19.6544955334729
0.00295147084970278,19.6594374964043
0.00243871599074353,19.6648683358379
0.00197317329293427,19.6708762239295
0.0015567737045398,19.677579914552
0.00120349059750861,19.6848431707384
0.00091000077392111,19.692716297245
0.000669717665505307,19.7013345075515
0.000476538834971748,19.710876763852
0.000333231379508687,19.720876763852
0.000232700483673904,19.730876763852
0.00016218885316044,19.740876763852
0.000112752461750003,19.750876763852
7.81190698628765e-05,19.760876763852
5.39502105933087e-05,19.770876763852
3.75649021646979e-05,19.780876763852
2.6696499681932e-05,19.790876763852
1.93665268977279e-05,19.800876763852
1.44057137940365e-05,19.8108767638521
1.10984250411615e-05,19.8208767638521
8.96594841339214e-06,19.8308767638521
7.66630769630873e-06,19.8408767638521
6.95185061385025e-06,19.8508767638521
6.64638059597288e-06,19.8608767638521
6.62737983541435e-06,19.8708767638521
6.81088043140916e-06,19.8808767638521
7.13955975687905e-06,19.8908767638521
7.57420443484551e-06,19.9008767638521
8.08793938821113e-06,19.9108767638521
8.66239319530279e-06,19.9208767638521
9.28511696349523e-06,19.9308767638521
9.94780819844037e-06,19.9408767638521
1.06450711537777e-05,19.9508767638521
1.1373550113986e-05,19.9608767638521
1.21313272907525e-05,19.9708767638521
1.29175082070515e-05,19.9808767638521
1.36999847592465e-05,19.990438381926
1.45058449844976e-05,20
