ecg,time
0.0066880985288911,15.0019751905991
0.00717532252494075,15.0069296473505
0.00769141634543845,15.0118344828228
0.00823904554242122,15.0166693009165
0.00882383050238441,15.0214351230166
0.0094522695854504,15.026132608306
0.0101319869061513,15.0307637879402
0.0108828181298235,15.0353964959954
0.0117230893116392,15.0400576783467
0.0126718089186063,15.0447552964848
0.0137556136670435,15.0495133579227
0.0150146500608907,15.0543839595735
0.0165223321751633,15.0594951237798
0.0184701857546097,15.0652490393707
0.0203771728132843,15.0702549242029
0.021968536634174,15.0741508619929
0.0235986346776227,15.078046799783
0.0249994793065993,15.0814803409878
0.0261791466564557,15.0846190956611
0.0271530224392813,15.0876395455823
0.0278734839096818,15.0905265049954
0.0283276671955341,15.0933379709923
0.0285041318288354,15.0962033771009
0.028350020072762,15.0993214421852
0.0276458572946835,15.1033059374309
0.0268021432053112,15.1062506966868
0.0257358748865518,15.1091954559427
0.0246583586416837,15.1117800261115
0.023585050434665,15.1141516014049
0.0225111023863231,15.1164115981941
0.0214377375811451,15.118610004904
0.0203683034333382,15.1207757336495
0.0193065281262893,15.1229280577077
0.0182560284296709,15.1250811027945
0.0172201781858028,15.127245947958
0.016202074079242,15.1294317691147
0.0152045349689215,15.1316465203727
0.014230113918126,15.1338973670598
0.0132811039784289,15.1361910016233
0.0123595540025731,15.1385338562797
0.0114672758450746,15.1409322851851
0.01060585089491,15.1433927198637
0.00977664291215707,15.1459217907161
0.00898080149368197,15.1485264681113
0.00820890128650243,15.1512522826107
0.00745065373675629,15.1541615529802
0.00670985544909372,15.1572754615758
0.00599033228463963,15.1606191439677
0.00529610817278874,15.164221624482
0.00463135635359795,15.1681165647856
0.00400031812495285,15.1723432594992
0.00340716758227388,15.1769481608225
0.00285591106906881,15.1819874671008
0.00234996715907627,15.1875319256089
0.00189189747905941,15.1936744937597
0.00148413414035654,15.2005280879363
0.00114170115878561,15.2079093539218
0.000857786137456213,15.2159245000873
0.00062585442114801,15.2247169634173
0.000442726671779702,15.2344757085245
0.000321850724887486,15.2441609011436
0.000236026199975307,15.2541609011436
0.000176296116165387,15.2641609011436
0.000134670082808891,15.2741609011436
0.00010599396345923,15.2841609011436
8.65690453949417e-05,15.2941609011436
7.36623885090154e-05,15.3041609011436
6.52996146256182e-05,15.3141609011436
6.01009453570806e-05,15.3241609011436
5.71233264092033e-05,15.3341609011436
5.57265110069361e-05,15.3441609011436
5.5474477149237e-05,15.3541609011436
5.60691517488246e-05,15.3641609011436
5.73072891665991e-05,15.3741609011436
5.90520340919783e-05,15.3841609011436
6.12135567614415e-05,15.3941609011436
6.37355594053152e-05,15.4041609011436
6.65858430850635e-05,15.4141609011436
6.97497945093589e-05,15.4241609011436
7.32259856158105e-05,15.4341609011436
7.70232907029768e-05,15.4441609011436
8.11590918698757e-05,15.4541609011436
8.56582768830979e-05,15.4641609011436
9.05528352628638e-05,15.4741609011436
9.58819325919084e-05,15.4841609011436
0.000101692397286327,15.4941609011436
0.000108039595939966,15.5041609011436
0.000114988709025613,15.5141609011436
0.00012261645297663,15.5241609011436
0.000131013331618473,15.5341609011436
0.000140286543927305,15.5441609011436
0.000150563731570106,15.5541609011436
0.00016199782605225,15.5641609011436
0.000174773362393901,15.5741609011436
0.000189114780516271,15.5841609011436
0.000205297462665471,15.5941609011436
0.000223662596515266,15.6041609011436
0.000244637476911289,15.6141609011436
0.00026876367875404,15.6241609011436
0.000296736846482105,15.6341609011436
0.00032946400209888,15.6441609011436
0.000368147914250427,15.6541609011436
0.000414414407508114,15.6641609011436
0.000470034846198104,15.6740825554877
0.000532971235555154,15.6832748430507
0.000603930076449789,15.6917674129381
0.000683889391992142,15.6996127037725
0.000773992425719871,15.7068604024103
0.000875541871887559,15.7135566789736
0.000990012832873766,15.719744458233
0.00111907396804865,15.725463702705
0.00126461415972657,15.7307516081529
0.00142877280945274,15.7356427090886
0.00161396953653405,15.7401690649354
0.00182294875008625,15.7443604926277
0.00205882597437448,15.7482447779635
0.00232514042508327,15.7518477623853
0.0026259215677076,15.7551934884485
0.00296577033556126,15.7583044201472
0.00334996807401941,15.7612016005126
0.0037846011456829,15.7639047785605
0.00427673763422839,15.7664326339543
0.00483467180668281,15.768803005821
0.0054682506056567,15.7710331288952
0.00618728000641634,15.7731344443642
0.00697811783543119,15.7750638289043
0.00784906903817633,15.7768521851221
0.00881255597489266,15.7785299999231
0.0098868252163615,15.7801276639114
0.0111014109531055,15.7816800584244
0.0125388356247461,15.7832652217974
0.0144066203343565,15.7850398920405
0.0164931185021283,15.7867693845733
0.0182474665854248,15.7880935565035
0.0200944738317925,15.7894177284336
0.0217536117075303,15.790590693608
0.0232403882106702,15.7916694903399
0.0245790416568425,15.7927089844911
0.0257662498100765,15.7937477170341
0.0267803424241311,15.7948241939989
0.0275778990329953,15.7959936279626
0.0280661927051498,15.7973741836092
0.028024268940441,15.7989337501025
0.027272261382748,15.8007502224922
0.0262272515707272,15.8022179519633
0.025020604889759,15.8035698664994
0.0236518969210834,15.8049298170975
0.0221292535940237,15.8063493626046
0.0204613107910545,15.8078669865746
0.0191371283369673,15.8090766637395
0.0178539675464654,15.8102863409043
0.0164147592715673,15.8117304024728
0.01385319357342,15.8146031232193
0.0116009924399809,15.8175796001411
0.00987578199531408,15.8202894970074
0.00852387421476143,15.8228036520633
0.00739482161858296,15.8252945879333
0.00643322671603493,15.8278397242804
0.00562145706949593,15.8304643852534
0.00494906242136065,15.8331914593624
0.00441128076302258,15.8360447609975
0.00400970414265247,15.8390504861596
0.00375461467296687,15.8422386549834
0.00366982158310765,15.8455131938623
0.00375156862543269,15.8484525819616
0.00396717425381262,15.8511181555106
0.00429922396588203,15.8535576701778
0.00474124075942248,15.8558190855383
0.00529713415964688,15.8579534015352
0.00598393702035697,15.8600194375774
0.006839336804644,15.8620917758371
0.00794465275572568,15.8642865527062
0.00949082699817178,15.8668222506146
0.011480916576314,15.8695435803301
0.0131119909210534,15.8714700717882
0.0149595866848834,15.8733965632463
0.0168173834840751,15.8750991521913
0.0187307612005917,15.8766390505457
0.0207751970687239,15.8780788711901
0.0230057397274721,15.8794468182093
0.025467812208659,15.8807557467031
0.0282057816373484,15.8820130680283
0.0312640585810125,15.8832230686703
0.0346887584501057,15.8843885993127
0.0385330628527571,15.8855130320118
0.0428497208764518,15.8865978103525
0.0477060085678276,15.8876464211831
0.0531760795318338,15.8886616081825
0.0593450493001946,15.8896460885345
0.0663160434328693,15.8906032042713
0.0742100313426483,15.8915362072881
0.0831722832554327,15.8924485607302
0.0933795653983224,15.8933440250255
0.105048425594565,15.8942266470205
0.118448597816669,15.8951009445355
0.133920911795644,15.8959720550615
0.151904376007572,15.8968460160885
0.17298032763858,15.8977302992187
0.197953593777621,15.8986349454166
0.227026326151663,15.8995460941693
0.260700249421447,15.9004640552078
0.299894481498154,15.9014007099946
0.346032708402715,15.9023788378925
0.384760995366439,15.9031320055018
0.425362553950291,15.9038851731112
0.461327091132524,15.9045459585585
0.49271319049643,15.9051414891788
0.520343891318562,15.9057076018345
0.544332988179332,15.9062691276705
0.564280297669,15.9068498538285
0.579147706368838,15.9074829710342
0.586313625641724,15.9082216787097
0.581896572480028,15.9089783288424
0.564814505278452,15.9097752952838
0.533369347156508,15.910630124963
0.48960524524341,15.9114828261028
0.430558072887169,15.9123890398209
0.377668971246419,15.9130787162019
0.318877467403484,15.9137683925829
0.268169083981211,15.9143261459632
0.226110373772236,15.9147775283083
0.18989288409471,15.9151672938845
0.157823603466077,15.9155203776934
0.128963869917177,15.9158509671845
0.102712411599404,15.9161687203571
0.0786087730677912,15.916481800055
0.0562044728092454,15.9167993367736
0.0348499553738177,15.9171364726435
0.0126240056553763,15.9175410778915
0.000848082336206846,15.9177882136631
-0.00677802237604725,15.917965153247
-0.0137614676681189,15.9181420928309
-0.0198536497940241,15.9183109383908
-0.0260823152283909,15.918501095513
-0.0322051635343255,15.9187101129879
-0.0380161904592632,15.9189351809355
-0.0433972877782196,15.9191750530313
-0.0482845739195916,15.9194295440285
-0.0526468656178645,15.9196992041786
-0.0564730265483891,15.9199851532502
-0.0597643352398786,15.9202890122436
-0.0625296730075964,15.9206128992735
-0.0648247747694284,15.9209690168598
-0.0665267805133003,15.9213387130247
-0.0677415413737944,15.921738005832
-0.0684840642495748,15.9221720591546
-0.0687655352758374,15.9226472097952
-0.0685921538372003,15.9231716081575
-0.0679616448960531,15.9237566101963
-0.0668574689043336,15.9244181881158
-0.0652422224229148,15.9251789270835
-0.0630378707296099,15.9260756605103
-0.0600629995879682,15.9271818147333
-0.0559968196313412,15.9286212407312
-0.0520078664475173,15.9300093112316
-0.0481624996023401,15.931356497158
-0.0444974808339355,15.9326658258897
-0.0410323654701889,15.9339384295422
-0.0377776532013105,15.9351744829578
-0.0347381206968224,15.9363736970635
-0.0319144076360357,15.9375355801755
-0.0293039348606681,15.9386595751861
-0.0269015538468717,15.9397451284325
-0.0247000812422603,15.9407917189514
-0.0226907748311941,15.9417988632651
-0.0208637675601937,15.9427661039837
-0.0192084622380638,15.9436929868492
-0.0176640891581329,15.9446094663246
-0.0161755456507796,15.9455493910963
-0.0147472724953512,15.9465142617084
-0.0133830639117792,15.9475061605541
-0.0120865212037225,15.9485275297053
-0.0108609963577912,15.949581261866
-0.00970953609328052,15.9506708170739
-0.00863482205472966,15.9518003796489
-0.00763910643735543,15.9529750741091
-0.00672414153770976,15.9542012702684
-0.00589110035603362,15.9554870282803
-0.00514048289117274,15.9568427731819
-0.00447199793154824,15.9582823666764
-0.00388439990480793,15.9598249147662
-0.00338773764065582,15.9614517609176
-0.00298619654765411,15.9631245131647
-0.0026631916481065,15.9648614501048
-0.00240377163637105,15.9666835630692
-0.00219360928433597,15.9686188523837
-0.00201845433783652,15.9707069113842
-0.00186322669620139,15.9730084637975
-0.00171012619644452,15.9756285248699
-0.00153303786617346,15.9787909124135
-0.00133861301375521,15.98211132657
-0.00111971449950333,15.985563442295
-0.000873887861579581,15.9891657710487
-0.000603163756486392,15.9929373947983
-0.000311719315879117,15.9968980944612
-4.04558219552556e-06,16.0010686011368
0.000316270738712898,16.0054711129187
0.000647210107503514,16.0101304667437
0.000953181061245639,16.0145536993872
0.00124610159218723,16.0188941414272
0.0015449063218782,16.0234184602376
0.001877871221654,16.0285539328452
0.00219571899474166,16.0335106074741
0.0025172184363159,16.0385495059022
0.00280000305297534,16.0429685861711
0.00305963140300813,16.0469976215965
0.00331178983399829,16.0508686593989
0.00356427181648117,16.0546880486876
0.00382225233575774,16.0585186516229
0.00408998726149421,16.0624053735499
0.00437149825777172,16.0663846794641
0.00467090905986942,16.0704885280335
0.00499275101428994,16.0747473700037
0.00534222474627324,16.0791917594579
0.00572553685234128,16.083853693484
0.00615039798471457,16.0887677622966
0.00661303848877566,16.09382470191
0.00709560661131628,16.0987823684461
0.00760716400091768,16.1036987934779
0.00814937052182966,16.1085443235971
0.008727849045969,16.1133213527578
0.00934883855077658,16.1180295643677
0.0100198267867001,16.1226711777736
0.0107576308982685,16.1272980739199
0.0115826289315588,16.131955039595
0.0125125088396678,16.1366455793463
0.013572600824115,16.1413916013476
0.0148000937858211,16.1462386455539
0.0162605265103739,16.1512965818678
0.0181121510674095,16.1568902219808
0.020535450442513,16.1632929476675
0.0220940671242886,16.1670940540329
0.0236845494244231,16.1708951603983
0.0250700029424154,16.1743013670212
0.0262380824000599,16.1774293384656
0.0272003214950178,16.1804473051174
0.0279057182220107,16.1833270370791
0.0283447969964155,16.1861378520122
0.0285046163948899,16.1890110081265
0.0283284993597106,16.1921533736634
0.027571668824709,16.1962451073903
0.0267193246843325,16.1991414240733
0.025655906314447,16.2020377407563
0.0245798000009749,16.2045994798384
0.0235065904677411,16.2069602718597
0.0224326179219889,16.2092144639655
0.0213594307300974,16.2114096795903
0.0202904419997288,16.2135738680891
0.0192293814660745,16.2157258195382
0.0181798506172488,16.2178793837308
0.0171452043824115,16.2200454686681
0.0161285177710081,16.2222331448935
0.0151325912764366,16.2244502935302
0.014159957258375,16.2267040395793
0.0132128913446561,16.2290010482199
0.0122934262100074,16.2313477368743
0.0114033542368555,16.2337504666066
0.0105442410365628,16.2362156785261
0.00971743605047901,16.2387500189987
0.00892407284977002,16.2413604902865
0.0081530490462762,16.2440990340382
0.00739595776293264,16.247022441758
0.00665658664722479,16.2501522023989
0.00593877846939799,16.253513706564
0.00524656781331574,16.2571362987569
0.00458413699336638,16.2610540092519
0.00395572767858055,16.2653065939072
0.0033655016970627,16.2699411123602
0.00281744981877162,16.2750146160441
0.00231492407826534,16.2805991835363
0.00186042599562809,16.2867897679015
0.00145758353123162,16.2936777930661
0.00111956125317418,16.3011003085699
0.000839569119259074,16.3091657862913
0.000611115415765202,16.3180203632957
0.00043166771959466,16.3278569949351
0.000310932261764089,16.3378569949351
0.000228531235058638,16.3478569949351
0.000171131573401078,16.3578569949351
0.000131121968654195,16.3678569949351
0.000103577587186551,16.3778569949351
8.49458917419637e-05,16.3878569949351
7.25941992926093e-05,16.3978569949351
6.46197278219215e-05,16.4078569949351
5.96938971364468e-05,16.4178569949351
5.69096711886805e-05,16.4278569949351
5.56517548935648e-05,16.4378569949351
5.5501305266351e-05,16.4478569949351
5.61721103560669e-05,16.4578569949351
5.74691762302046e-05,16.4678569949351
5.92614363376328e-05,16.4778569949351
6.14631544583069e-05,16.4878569949351
6.40209549026684e-05,16.4978569949351
6.69047543178866e-05,16.5078569949351
7.0101506291662e-05,16.5178569949351
7.36109841950374e-05,16.5278569949351
7.74430293987687e-05,16.5378569949351
8.16158517475137e-05,16.5478569949351
8.61550982150858e-05,16.5578569949351
9.10935041568857e-05,16.5678569949351
9.64710135208678e-05,16.5778569949351
0.000102335307116089,16.5878569949351
0.000108742719040514,16.5978569949351
0.000115759556679658,16.6078569949351
0.00012346387400739,16.6178569949351
0.000131947785385192,16.6278569949351
0.0001413204520951,16.6378569949351
0.00015171193202085,16.6478569949351
0.000163278161917549,16.6578569949351
0.000176207452879661,16.6678569949351
0.000190729040142851,16.6778569949351
0.000207124465244793,16.6878569949351
0.000225742925275112,16.6978569949351
0.000247022272053961,16.7078569949351
0.000271518204421436,16.7178569949351
0.000299945578634565,16.7278569949351
0.000333238037721859,16.7378569949351
0.000372636014534465,16.7478569949351
0.000419819894191138,16.7578569949351
0.000476153460928876,16.7677014491704
0.000539870466883504,16.7768193579083
0.000611704023445031,16.7852430966438
0.000692648844881431,16.7930248264556
0.000783863931243239,16.8002138609598
0.000886668582780464,16.8068560229989
0.00100255667090303,16.8129939212377
0.0011332180896349,16.8186672289709
0.00128056621028401,16.8239128615833
0.00144676742038259,16.8287650905095
0.00163427293677829,16.8332557336228
0.00184586240724366,16.8374143917235
0.00208469297023395,16.8412686473963
0.00235435029462404,16.8448441496162
0.00265891851196845,16.8481647675968
0.00300306343804491,16.8512528150679
0.00339214211007078,16.8541291948369
0.00383233286691756,16.8568135339911
0.00433081736938352,16.8593244170571
0.00489603165492626,16.8616796081833
0.0055380067914524,16.8638962992092
0.0062639701421497,16.8659786367121
0.00706246129898616,16.8678922936979
0.00794214138428066,16.8696680978547
0.00891588300667467,16.8713363890393
0.01000274542109,16.8729277475406
0.0112339633575992,16.8744779380342
0.0127034423436403,16.8760745098329
0.0146374968776683,16.8778838636437
0.0166438183451657,16.8795284325185
0.0183898260625041,16.8808390526468
0.0202223986394374,16.8821496727751
0.0218670695772869,16.8833130578182
0.023342661303061,16.8843874464203
0.0246706581139013,16.8854256667093
0.0258462169517484,16.8864657603259
0.0268463646917957,16.8875467854304
0.0276255258991623,16.8887262312069
0.0280843806757172,16.8901316543546
0.0279937778395589,16.8917060196243
0.0272276991280112,16.8934652648007
0.026181998254731,16.8949142228574
0.024970138209558,16.8962636813176
0.0235954843104843,16.8976250181613
0.0220671725117331,16.8990476078438
0.0203937981939859,16.9005698002503
0.0191382479267412,16.9017170837668
0.0179194674111582,16.9028643672833
0.0165314326420184,16.9042507713776
0.0139780208730329,16.9070936132523
0.0116964201804262,16.9100836333943
0.00994922946381454,16.9128055369212
0.00858225305682795,16.9153272802601
0.00744456821277355,16.9178164828354
0.00647548081561842,16.9203584166442
0.00565686519881436,16.9229787775984
0.00497799198784962,16.9257004548165
0.00443382452451797,16.9285471838031
0.00402561476592252,16.9315450158492
0.00376314451299885,16.9347237533386
0.00366972012357839,16.938014636742
0.00374479001740305,16.940967441153
0.00395483497906785,16.9436446093311
0.00428182587120669,16.9460931861907
0.00471892868646931,16.9483618482551
0.00526941796790757,16.9505006348078
0.00594966842577991,16.9525682108786
0.00679619315555348,16.9546382682676
0.00788747126745179,16.9568241464748
0.00940698269771724,16.9593376922783
0.0113784299710458,16.9620559596916
0.0130126375501803,16.9640007419553
0.014865091078879,16.965945524219
0.0167233874871165,16.9676597385497
0.018631740950119,16.969205767801
0.0206680628792101,16.9706497207804
0.0228878762370005,16.9720207846193
0.0253371113567572,16.9733324481004
0.0280600519804127,16.974592248056
0.0311007930004495,16.9758044686044
0.0345058855928918,16.9769722240832
0.0383278777540676,16.9780987409188
0.0426190110306751,16.9791854139912
0.0474464363402106,16.9802358140074
0.0528835465146712,16.9812526275473
0.059014857102385,16.9822385815033
0.065942615918865,16.9831970087214
0.0737866389531957,16.9841311440223
0.0826909386976687,16.9850444538698
0.0928304715951272,16.9859406788706
0.104419458208631,16.9868238447491
0.117724614406575,16.9876984461547
0.133082601756142,16.9885695821381
0.150926588215597,16.9894432343748
0.171829245618405,16.9903267836653
0.196581004193557,16.991230092564
0.225438896201037,16.9921411188981
0.258858480335501,16.9930584956619
0.29774310443034,16.9939937879128
0.343476721588959,16.9949688885905
0.382508875257944,16.9957309703696
0.423524651709047,16.9964930521486
0.45976133547299,16.997158515043
0.491337333891709,16.9977561872648
0.51913613212002,16.9983230754445
0.543299992373571,16.9988843115223
0.563452324075099,16.9994635321754
0.578594611267607,17.000093137862
0.586239440392179,17.0008316093375
0.582332528262132,17.0015870384873
0.565821127864287,17.0023818515026
0.534906894871207,17.0032367340239
0.49172145906359,17.0040878652577
0.433315868382068,17.0049921184807
0.380091820922586,17.0056904137757
0.320763754880934,17.0063887090706
0.269660327827363,17.0069516104656
0.227363683166648,17.0074056877173
0.190989384509444,17.007796973826
0.158803585935219,17.0081509832365
0.129850903611206,17.0084821327646
0.103522945148189,17.0088001703863
0.0793567614906793,17.0091132714076
0.0569057550074014,17.0094304845126
0.0355336267514183,17.0097665902271
0.013419085846594,17.0101669281089
0.000999576936194659,17.0104264270017
-0.00664591058586014,17.0106035333308
-0.0136470182273838,17.0107806396599
-0.0197530760295516,17.0109496038931
-0.0259815953865919,17.0111394358745
-0.0321081000898401,17.0113481757501
-0.0379253012392811,17.0115729972831
-0.0433139782929985,17.0118126335171
-0.0482095744292998,17.0120668851715
-0.052580495493148,17.0123362922429
-0.0564153513035612,17.0126219660294
-0.0597152633372873,17.012925519595
-0.0624890185899268,17.0132490627695
-0.064784143395377,17.0136032102595
-0.0664963461167965,17.0139723149333
-0.067721082022467,17.0143709410387
-0.0684733098308659,17.0148042113152
-0.0687642961922003,17.015278430634
-0.0686003680278297,17.0158017047804
-0.0679794939954743,17.0163852936435
-0.0668854700931381,17.0170450792252
-0.0652814654816591,17.0178034471096
-0.0630906656533141,17.0186968007619
-0.0601352877711887,17.0197972781679
-0.0560683656918257,17.0212378806679
-0.0520773632391627,17.0226267120194
-0.048229053729638,17.0239745829121
-0.0445606334382305,17.0252845648986
-0.0410918663147718,17.0265578129899
-0.0378333740656633,17.0277945133955
-0.034790017201837,17.0289943822802
-0.0319624990894931,17.0301569299623
-0.0293482912151541,17.0312815996654
-0.02694228550929,17.0323678372721
-0.0247373303003156,17.0334151211088
-0.0227247070241168,17.0344229670719
-0.0208945649573199,17.0353909174649
-0.0192363166110974,17.0363185182175
-0.0176909989161163,17.0372345915833
-0.0162014219307456,17.0381740909115
-0.0147720466518818,17.0391385019516
-0.0134066701878105,17.0401299014291
-0.0121088977770843,17.0411507242928
-0.0108820863012297,17.0422038543381
-0.00972928839908678,17.0432927403173
-0.00865319273205817,17.0444215520378
-0.00765605970100863,17.0455953950125
-0.00673965112402476,17.0468206136142
-0.00590515103460931,17.0481052330122
-0.00515307229923838,17.0494596285074
-0.00448313897848417,17.0508975880449
-0.003894124255617,17.0524381020743
-0.00339562002723925,17.0540642967124
-0.00299255373452184,17.0557360747244
-0.00266829541341588,17.0574717136046
-0.00240787910202784,17.0592921065462
-0.00219697058402213,17.06122509967
-0.00202132458535371,17.0633100204206
-0.00186588741023115,17.065607082822
-0.00171293596504334,17.0682201445544
-0.00153661177768236,17.071369427934
-0.00134259370248686,17.0746874423246
-0.00112420976731931,17.0781368354059
-0.000878894795972113,17.0817360773622
-0.000608616199985636,17.0855042392963
-0.000317528736375645,17.0894610866489
-1.01309397849319e-05,17.0936273277249
0.000309965350727148,17.0980251248969
0.000640706539479985,17.1026792454926
0.000947084411221165,17.1071060276491
0.00124009610191431,17.111445760805
0.00153853630574875,17.1159627057144
0.00187206110402162,17.1211054198195
0.00219005037020732,17.1260635305642
0.00251129999469062,17.1310983347912
0.00279478803761492,17.1355289140199
0.00305467566347552,17.139562687588
0.00330689140409919,17.1434355763665
0.00355931252432253,17.1472552882786
0.0038171432372339,17.151085203987
0.00408464907038419,17.1549704618134
0.00436585251884604,17.1589476453232
0.00466487229353662,17.1630487690658
0.00498622929880512,17.1673042950603
0.00533510828441496,17.1717447624546
0.00571769224642673,17.1764021296292
0.00614165591955421,17.181310923765
0.00660400338614983,17.1863705011869
0.00708601187691686,17.1913285152725
0.00759702669548485,17.1962463264957
0.00813858580458403,17.2010931445306
0.00871631243387216,17.205871530713
0.00933641367605491,17.2105810431894
0.0100063606252283,17.2152239221777
0.0107426122092945,17.2198501217007
0.0115657921599618,17.2245065960389
0.0124934324339421,17.2291963128893
0.0135507146756551,17.2339409531119
0.0147744952794418,17.2387853245886
0.0162294522323916,17.2438373167744
0.0180704186348224,17.2494137944078
0.0204935129622361,17.2558298805256
0.0220556235825254,17.2596435267376
0.02365139655382,17.2634571729495
0.0250421368623233,17.2668722550303
0.0262147407629318,17.2700043292032
0.0271815696802041,17.2730232187446
0.0278929107015363,17.2759057581065
0.0283379599025686,17.2787167834498
0.0285043746897809,17.2815868089193
0.0283370191215229,17.2847193930938
0.0276016238247283,17.2887670958631
0.0267527380479599,17.2916824848153
0.0256882629596731,17.2945978737676
0.0246116255333018,17.2971687022737
0.0235383863412086,17.2995338240007
0.0224644276124272,17.3017903548157
0.0213911706184275,17.3039868573949
0.0203220030441104,17.3061516660344
0.0192606541547757,17.3083037652342
0.0182107316923214,17.3104571159976
0.0171755985802098,17.3126226947187
0.0161583380815058,17.3148096156268
0.0151617588008787,17.317025787908
0.0141884007586344,17.3192783544842
0.0132405470570362,17.3215739906494
0.0123202375138159,17.3239191182701
0.0114292713402059,17.3263200982508
0.0105692208398818,17.3287833671206
0.00974144178407313,17.3313155631845
0.00894707391191475,17.3339236766147
0.00817569609834023,17.3366570355692
0.00741813684426323,17.3395746844164
0.00667818735903581,17.3426979873197
0.00595968403701215,17.3460522284463
0.0052666563237502,17.3496666253503
0.0046032832061006,17.3535750563722
0.00397380630649978,17.357817088617
0.00338239255001822,17.3624395329763
0.00283303910943839,17.367499091398
0.00232912524924392,17.3730672960993
0.00187317692058833,17.3792382819692
0.00146833850834017,17.3861122561004
0.00112852724796245,17.3935179361921
0.000846944091183496,17.4015628667415
0.000617079935925865,17.4103920785702
0.000436141263278054,17.420196890221
0.000313963699473904,17.430196890221
0.000230621161062746,17.440196890221
0.000172580574169578,17.450196890221
0.000132121117530331,17.460196890221
0.000104258237413113,17.470196890221
8.54021946932241e-05,17.480196890221
7.28936171851221e-05,17.490196890221
6.48096790844253e-05,17.500196890221
5.98071070336985e-05,17.510196890221
5.69685169361703e-05,17.5201968902211
5.5671519835704e-05,17.5301968902211
5.54924419006955e-05,17.5401968902211
5.61417538493676e-05,17.5501968902211
5.74221531809734e-05,17.5601968902211
5.9200948785583e-05,17.5701968902211
6.13912521815e-05,17.5801968902211
6.39388638016384e-05,17.5901968902211
6.6813103430963e-05,17.6001968902211
7.00004823509923e-05,17.6101968902211
7.35004343463853e-05,17.6201968902211
7.73225268180933e-05,17.6301968902211
8.14847344042191e-05,17.6401968902211
8.60124876520388e-05,17.6501968902211
9.09383086760614e-05,17.6601968902211
9.63019183488099e-05,17.6701968902211
0.000102150752746938,17.6801968902211
0.000108540867825416,17.6901968902211
0.000115538246699596,17.7001968902211
0.000123220558205056,17.7101968902211
0.00013167945271525,17.7201968902211
0.000141023525934117,17.7301968902211
0.000151382139064689,17.7401968902211
0.000162910362008863,17.7501968902211
0.000175795416238732,17.7601968902211
0.000190265152683826,17.7701968902211
0.000206599334033959,17.7801968902211
0.000225144843082173,17.7901968902211
0.00024633647962059,17.8001968902211
0.000270725856846574,17.8101968902211
0.000299022269957608,17.8201968902211
0.000332151650591517,17.8301968902211
0.000371343512259696,17.8401968902211
0.00041826240738875,17.8501968902211
0.000474390500657152,17.8600634284411
0.000537882604218106,17.8692026136527
0.000609464130262547,17.8776460415199
0.000690124995023721,17.8854459525904
0.000781019664587562,17.8926517672725
0.000883462649370562,17.8993094077197
0.00099894241267775,17.9054615730298
0.00112914272667507,17.9111480191974
0.00127596990663467,17.9164057420006
0.00144158256962018,17.9212690881447
0.00162842281478378,17.9257699445306
0.00183926013084829,17.9299379737239
0.00207723967042259,17.9338008165625
0.00234593369506161,17.9373841770741
0.00264941058251901,17.9407119739567
0.00299231739746904,17.9438065638708
0.00337998933794311,17.9466888897235
0.00381857818083579,17.9493786133396
0.00431523271843157,17.9518943462938
0.00487834797727747,17.9542538739966
0.00551790167763385,17.956474400154
0.00624186597496843,17.9585621510043
0.00703814915661429,17.9604802914713
0.00791530877959789,17.9622596698011
0.00888608562289808,17.9639306653583
0.00996929986478721,17.9655237991742
0.0111956831436566,17.9670745713278
0.0126557884846403,17.9686677508699
0.0145701133435382,17.9704666579502
0.0165981324606284,17.9721344433788
0.0183468736103383,17.9734492788016
0.0201840303953014,17.9747641142244
0.0218330238982124,17.9759303361656
0.0233119680501346,17.9770060220142
0.0246431734168322,17.9780446051361
0.025822249052363,17.9790842685064
0.0268266157745601,17.9801638956392
0.0276113596798574,17.9813402689168
0.0280792219739032,17.9827379946207
0.0280034663116813,17.9843077941882
0.0272420031127185,17.9860833422888
0.0261969480268149,17.9875377046091
0.0249869096777043,17.9888878574911
0.0236142471811653,17.9902487138607
0.0220878257736669,17.9916702822457
0.020416263409006,17.9931909454982
0.0191395725929313,17.9943574299747
0.017900883045,17.9955239144511
0.016500925249734,17.9969239321031
0.0139455375285445,17.9997743467784
0.0116716331243362,18.0027607895342
0.00993017226908637,18.0054795521048
0.00856711335985004,18.0079993178845
0.00743166706306472,18.0104889621645
0.00646452104918807,18.0130317190446
0.00564767831826614,18.0156531870611
0.00497048185340951,18.0183762547836
0.00442796587745892,18.021224677816
0.00402146985466906,18.0242245445635
0.00376090427830168,18.0274057133533
0.00366971710117839,18.0306924376522
0.00374651648414804,18.0336417146432
0.00395799986443469,18.0363158761301
0.0042863034087479,18.0387621393671
0.00472466796982045,18.0410288835228
0.0052765240854936,18.0431664186073
0.00595845028059706,18.0452335765209
0.00680723044338908,18.0473041714593
0.00790207543644847,18.0494922854381
0.00942835495898517,18.0520114474451
0.0114045880122691,18.0547305334015
0.0130379597131973,18.0566705839785
0.0148891200730947,18.0586106345554
0.0167472259940641,18.0603218308519
0.0186568571346483,18.0618663063543
0.0206952640536121,18.0633092286883
0.0229178304579171,18.0646795177816
0.0253703317224492,18.0659904875459
0.0280970936807547,18.0672496573677
0.0311422926436471,18.0684613129928
0.0345523655083906,18.0696285004576
0.0383800258450998,18.0707544853796
0.0426776369651653,18.0718406733401
0.0475123935406161,18.072890616676
0.0529578831826035,18.0739070162961
0.0590987605522251,18.074892594106
0.0660375015501538,18.0758506864063
0.073894216087328,18.0767845325344
0.0828132332469448,18.0776975978157
0.0929699690895797,18.0785936280087
0.104579233687381,18.07947665418
0.117908507563195,18.0803511768579
0.133295507208504,18.0812223048021
0.151174877594873,18.0820960337735
0.172121479281818,18.0829797674561
0.19692936803482,18.0838834131652
0.225841768434803,18.0847944686964
0.259325860251488,18.0857119912311
0.298288947559416,18.0866476249415
0.344124881472726,18.0876234833977
0.383058960366313,18.0883828927677
0.423947086213422,18.0891423021377
0.460118538087605,18.0898066349334
0.491651039053459,18.0904038104455
0.519411581773862,18.0909705174756
0.543535766381415,18.0915318150005
0.563641651486455,18.0921113720921
0.578721846594865,18.0927417647651
0.586258153985653,18.0934802856005
0.582235739861223,18.094235987838
0.565595234121023,18.095031285785
0.534530640865381,18.0958868387308
0.491206103410727,18.0967383004996
0.432642672901328,18.0976430474111
0.379500303014501,18.0983392249903
0.320303667750813,18.0990354025696
0.269297017461471,18.0995970406017
0.227058563756058,18.1000504576421
0.190722535614754,18.1004413718501
0.158565138997229,18.1007951550016
0.129635099839447,18.1011261675265
0.103325774237162,18.101444135258
0.0791748305320164,18.1017572302571
0.056735230371591,18.1020745206873
0.0353675188443448,18.1024108733136
0.0132269170002843,18.1028122227241
0.000972594053551466,18.1030685290747
-0.00666948761564295,18.1032456068442
-0.0136674877711864,18.1034226846138
-0.0197710632019868,18.1035916276111
-0.025999615151098,18.1037815178479
-0.032125469919949,18.1039903074359
-0.0379415689229027,18.1042151730684
-0.0433288913790605,18.1044548514939
-0.0482230016640863,18.1047091459483
-0.0525923793607724,18.104978598266
-0.0564256798413913,18.1052643212613
-0.0597240527665827,18.1055679294181
-0.0624963020639185,18.1058915340472
-0.0647914167017631,18.1062460314307
-0.0665017978840593,18.1066152415744
-0.0677247519880464,18.107013986579
-0.0684752463246917,18.1074473964906
-0.0687645332267078,18.1079217818669
-0.0685989169234019,18.1084452564366
-0.067976322750057,18.1090290971908
-0.0668804869750598,18.1096892021561
-0.0652744770689141,18.1104479923592
-0.0630812622571627,18.1113419474617
-0.0601224186735436,18.1124434328652
-0.0560556267118762,18.1138838249457
-0.0520649874956893,18.1152725207252
-0.0482172011098744,18.1166202696161
-0.0445493859881599,18.1179301352832
-0.0410812687739884,18.1192032686431
-0.0378234493843678,18.1204398538717
-0.0347807733713136,18.1216396061961
-0.0319539327437853,18.1228020355754
-0.029340389956942,18.1239265851729
-0.02693502972947,18.1250127009518
-0.0247306947372058,18.1260598613648
-0.0227186621961037,18.1270675824202
-0.0208890784662891,18.1280354064764
-0.0192313543241485,18.1289628794308
-0.0176862047808334,18.1298790251001
-0.0161968117816915,18.1308186001696
-0.0147676327199676,18.1317830930235
-0.0134024641907854,18.1327745813952
-0.0121049107331327,18.1337955015003
-0.0108783283580027,18.1348487387184
-0.00972576865129244,18.1359377438084
-0.00864991902615186,18.137066689158
-0.00765303842354924,18.1382406836583
-0.00673688696750744,18.1394660762039
-0.00590264672851244,18.1407508981805
-0.0051508282838558,18.1421055337242
-0.00448115297758591,18.1435437838784
-0.00389239065800282,18.1450846596033
-0.00339421480378931,18.1467109699064
-0.00299142043427541,18.1483829210066
-0.00266738562622407,18.1501187905293
-0.00240714703573102,18.1519394890884
-0.00219637170333015,18.1538728901602
-0.00202081348828044,18.155958368328
-0.00186541403334008,18.1582562278931
-0.00171243663054045,18.1608705312341
-0.00153597760767237,18.1640221344126
-0.00134188752133825,18.1673405750182
-0.0011234122214649,18.1707904517083
-0.000878006280741683,18.174390242018
-0.000607648414861603,18.1781590189783
-0.00031649740834575,18.1821165507836
-9.050499480212e-06,18.1862835497745
0.0003110849201117,18.190682184644
0.000641861296965335,18.195337235017
0.000948166417767228,18.1997633814627
0.00124116126366203,18.2041032323076
0.00153966502294251,18.208621470059
0.00187308971661491,18.2137628900871
0.00219105324759752,18.2187207384857
0.00251234639616202,18.223756259095
0.00279570904832339,18.2281847913368
0.00305555042610622,18.2322177228779
0.00330775576188227,18.2360902822266
0.00356018739205244,18.2399099354022
0.0038180443295911,18.2437399709801
0.00408559037946141,18.2476254859479
0.00436684787856329,18.251603042833
0.00466593641440484,18.2557046462455
0.00498737872509367,18.2599607561762
0.00533636235007802,18.2644019143707
0.00571907443248587,18.2690600859997
0.00614319601868731,18.2739698093389
0.00660559503861434,18.2790289224227
0.00708770203155391,18.2839868759715
0.00759881230670155,18.2889044432461
0.0081404853087882,18.293751034504
0.0087183442039897,18.2985291815751
0.00933860171173591,18.3032384647998
0.0100087318634639,18.307881120752
0.0107452565933558,18.3125074429123
0.0115687563862578,18.3171640035354
0.0124967906269491,18.321853864874
0.0135545669919728,18.3265987474369
0.0147790000873155,18.3314435871869
0.016234918241492,18.3364966194093
0.0180777487073219,18.3420760898201
0.0205008806196378,18.3484898217161
0.0220623802630702,18.3523012636154
0.0236572262003054,18.3561127055147
0.0250470361218041,18.3595262191685
0.0262188452909839,18.3626575671938
0.0271848691103093,18.365676290149
0.0278951669683454,18.3685583324338
0.0283391692315588,18.3713693162588
0.0285044288477129,18.3742398841601
0.0283355426274994,18.3773741665129
0.0275964486073624,18.3814294287573
0.0267469605673505,18.384341465492
0.0256826769936233,18.3872535022267
0.0246061347745028,18.389822742438
0.023532901246195,18.3921871108202
0.0224589400297603,18.3944432352918
0.0213856948523055,18.396639514165
0.0203165578898918,18.3988042146826
0.0192552585146587,18.4009562875527
0.0182054033961142,18.4031096744736
0.017170354080192,18.4052753399741
0.0161531924058631,18.407462390707
0.0151567255774495,18.4096787309919
0.0141834922936894,18.4119315006393
0.0132357743662839,18.4142273731857
0.0123156103802768,18.4165727697196
0.0114247983680274,18.4189740511647
0.0105649094776248,18.4214376548336
0.00973729838885855,18.4239702204109
0.00894310377546718,18.4265787401492
0.00817178684883281,18.429312992666
0.00741430813299937,18.432231633984
0.0066744582243002,18.4353560497564
0.00595607461906121,18.4387115424808
0.00526318765233552,18.4423273515734
0.00459997689042291,18.4462373815316
0.00397068397294087,18.4504812319341
0.00337947495922594,18.4551057564249
0.00283034592935157,18.4601677169994
0.00232667146707703,18.4657387396546
0.00187097330881448,18.4719130998065
0.00146647962475249,18.478789491806
0.00112697734868252,18.4861980687776
0.000845668992545675,18.4942465345056
0.000616048461656038,18.5030801097638
0.000435367503467028,18.5128903939793
0.00031343943419934,18.5228903939793
0.000230259696991718,18.5328903939793
0.000172329928752745,18.5428903939793
0.00013194826983802,18.5528903939793
0.000104140482891595,18.5628903939793
8.53232506600053e-05,18.5728903939793
7.2841812233817e-05,18.5828903939793
6.47768086019259e-05,18.5928903939793
5.9787509103655e-05,18.6028903939794
5.69583204730934e-05,18.6128903939794
5.56680811484698e-05,18.6228903939794
5.54939529293218e-05,18.6328903939794
5.61469802732261e-05,18.6428903939794
5.74302599373559e-05,18.6528903939794
5.92113817781558e-05,18.6628903939794
6.14036565968355e-05,18.6728903939794
6.39530273065975e-05,18.6828903939794
6.68289168985386e-05,18.6928903939794
7.00179131181997e-05,18.7028903939794
7.35195084379894e-05,18.7128903939794
7.73433175872595e-05,18.7228903939794
8.15073558163144e-05,18.7328903939794
8.60370910225031e-05,18.7428903939794
9.09650821024982e-05,18.7528903939794
9.63310883912202e-05,18.7628903939794
0.000102182588147848,18.7728903939794
0.000108575685256547,18.7828903939794
0.000115576418699686,18.7928903939794
0.000123262523656335,18.8028903939794
0.000131725730415464,18.8128903939794
0.000141074732082205,18.8228903939794
0.000151439009824447,18.8328903939794
0.000162973782793731,18.8428903939794
0.000175866460043023,18.8528903939794
0.000190345130780726,18.8628903939794
0.000206689863842264,18.8728903939794
0.000225247940254409,18.8828903939794
0.000246454684894991,18.8928903939794
0.000270862413736425,18.9028903939794
0.000299181378328526,18.9128903939794
0.000332338836133157,18.9228903939794
0.000371566177507382,18.9328903939794
0.000418530675382028,18.9428903939794
0.000474694160551367,18.9527531195722
0.000538225003784336,18.9618886315273
0.000609849941541295,18.9703286601475
0.000690559717159778,18.9781254322674
0.000781509578072181,18.9853283498622
0.000884014859485437,18.9919833179401
0.000999564956271999,18.9981330199865
0.00112984469504309,19.0038171977232
0.00127676160650597,19.0090728330571
0.00144247564639187,19.0139342597003
0.0016294304840872,19.0184333526342
0.00184039735770095,19.0225997637582
0.0020785234848596,19.0264611238614
0.00234738343543824,19.0300431274671
0.00265104830073962,19.033369684725
0.00299416837238841,19.0364631448814
0.00338208260864817,19.0393444439207
0.00382094735863897,19.0420332376626
0.00431791706832507,19.0445481330035
0.00488139381954134,19.0469069116735
0.00552136450526896,19.0491267753074
0.00624567308624801,19.0512135906341
0.00704233644643196,19.0531309561313
0.00791992992929983,19.0549097164474
0.00889121690203938,19.0565802439793
0.0099750584410447,19.0581730697027
0.0112022720809126,19.0597237386917
0.0126639840550894,19.061317496559
0.0145816693713766,19.06311817612
0.0166058760884362,19.0647818953734
0.0183541636586056,19.0660960209149
0.0201905530803298,19.0674101464564
0.021838810267951,19.0685758837533
0.0233171841462108,19.0696513475862
0.0246478445898314,19.0706898679081
0.0258263235335419,19.07172960315
0.0268299750127966,19.0728094659686
0.0276137735872413,19.0739863574356
0.0280801152931762,19.0753853770673
0.0280018508827386,19.0769559430547
0.0272396263563318,19.0787286699063
0.0261944870657911,19.0801821005007
0.0249841543365779,19.0815321327804
0.0236111657245465,19.0828930669149
0.0220844343472537,19.0843148023984
0.0204125749458559,19.085835716029
0.0191394598331984,19.0869989517198
0.0179041326950042,19.0881621874107
0.0165064429172504,19.0895596323742
0.0139514260990222,19.092408658386
0.0116761293614085,19.095395746091
0.00993363013279235,19.0981150771997
0.00856986065397218,19.1006352013976
0.00743400798990908,19.1031247651158
0.00646650944698909,19.105667372235
0.00564934470824079,19.1082886389144
0.00497184361563188,19.111011453803
0.00442902749869205,19.1138595688385
0.00402221988762977,19.1168590656687
0.00376130783988157,19.1200397924399
0.00366971414165518,19.1233272811227
0.003746199333431,19.1262771959732
0.00395742120707124,19.1289519034229
0.00428548640316295,19.1313985897525
0.00472362103120001,19.1336656803761
0.00527522607096536,19.1358034350752
0.00595684612896652,19.1378706677049
0.00680521357603085,19.13994116198
0.00789940592742766,19.1421288656332
0.0094244465592184,19.1446469992221
0.0113998064651534,19.1473659376457
0.0130333300042303,19.1493068507704
0.0148847251693757,19.1512477638951
0.0167428624567591,19.1529595086879
0.018652260511969,19.1545042690016
0.020690288040804,19.1559473812903
0.0229123531587288,19.157317813362
0.0253642577086829,19.1586289101243
0.0280903213088404,19.1598881951889
0.0311347053049372,19.1610999540194
0.0345438676069923,19.162267245202
0.0383704916524754,19.1633933272601
0.0426669180962649,19.1644796037259
0.0475003342820443,19.1655296304605
0.052944292286782,19.1665461057406
0.0590834206156228,19.1675317522455
0.0660201537539228,19.1684899057063
0.0738745479271352,19.1694238046439
0.0827908742015402,19.1703369145776
0.0929444646117866,19.1712329803303
0.104550021381953,19.172116031991
0.117874885167715,19.1729905690144
0.1332565794375,19.1738616983833
0.151129478862534,19.1747354132808
0.172068043343664,19.1756191132007
0.196865664437502,19.1765226972519
0.225768096682373,19.1774337473904
0.259240390754231,19.1783512431918
0.298189125108875,19.179286814306
0.344006331923706,19.18026253375
0.382958266472472,19.1810224296496
0.423869636407978,19.1817823255492
0.460053013286909,19.1824468647301
0.491593485688002,19.1830441310829
0.519361046190956,19.18361087118
0.543492513320904,19.184172157264
0.563606928281583,19.1847516523838
0.578698534811979,19.1853819001545
0.586254772900452,19.1861204117693
0.582253576098157,19.1868760637162
0.565636791416168,19.1876712724824
0.534599828493885,19.1885267022008
0.49130086455402,19.1893781029092
0.432766400472339,19.1902827596399
0.379609015148895,19.1909793258105
0.320388245444034,19.1916758919811
0.269363825246092,19.1922377619054
0.227114682093526,19.1926913001857
0.190771619993207,19.1930822827204
0.158609001528236,19.1934361074486
0.129674798654944,19.1937671451451
0.10336204661971,19.1940851257044
0.0792083007276468,19.1943982217742
0.0567666045765407,19.1947154979136
0.0353980871996216,19.1950518049391
0.0132623294694239,19.1954529670002
0.000978064639486022,19.195709851069
-0.0066647108634955,19.1958869347105
-0.0136633437994989,19.196064018352
-0.0197674219867746,19.1962329656549
-0.0259959675006148,19.1964228441
-0.0321219539816035,19.1966316236258
-0.037938276205268,19.1968564803313
-0.0433258729733184,19.1970961502157
-0.0482202841322961,19.1973504360054
-0.0525899743405803,19.1976198791627
-0.0564235897503233,19.197905592195
-0.059722274317603,19.1982091892987
-0.0624948285428127,19.1985327814845
-0.0647899456625389,19.198887208052
-0.0665006955967374,19.199256396841
-0.0677240104064391,19.1996551177709
-0.0684748556678216,19.2000884994081
-0.0687644866138576,19.2005628511586
-0.0685992120703628,19.2010862851418
-0.0679769661498895,19.2016700748841
-0.0668814972196976,19.2023301151648
-0.0652758933579282,19.2030888198273
-0.0630831676335027,19.2039826530848
-0.0601250262287431,19.2050839341995
-0.0560582077731998,19.2065243688674
-0.0520674948482679,19.2079130921012
-0.0482196023887154,19.2092608656987
-0.044551664580563,19.2105707549221
-0.0410834156197629,19.2118439115167
-0.0378254598361386,19.2130805200701
-0.0347826458120565,19.2142802959993
-0.031955667857637,19.2154427493362
-0.0293419902580454,19.2165673232562
-0.0269364991935229,19.2176534637062
-0.0247320384852538,19.2187006491135
-0.0227198862043552,19.2197083954636
-0.0208901893019072,19.2206762451039
-0.0192323589058478,19.2216037439383
-0.0176871752043429,19.222519874966
-0.0161977448407044,19.2234594346977
-0.0147685259382366,19.2244239109839
-0.0134033151964407,19.2254153813539
-0.0121057172964281,19.2264362817669
-0.0108790884259268,19.2274894972813
-0.00972648038450892,19.2285784782498
-0.00865058083853888,19.2297073965375
-0.00765364902504889,19.2308813603511
-0.00673744541153588,19.2321067176691
-0.00590315246642333,19.2333914986183
-0.00515128123099363,19.2347460855448
-0.00448155359985029,19.2361842768384
-0.00389274009715643,19.2377250793036
-0.00339449769127899,19.2393513661729
-0.00299164820865693,19.2410232822097
-0.00266756809836576,19.2427591050107
-0.00240729348636535,19.2445797416603
-0.00219649115899089,19.2465130600916
-0.00202091515180827,19.2485984253355
-0.00186550805335371,19.2508961233955
-0.00171253591737534,19.2535101751498
-0.00153610424349649,19.2566613081039
-0.00134202870582503,19.2599796634056
-0.00112357185853925,19.2634294433269
-0.000878184274851922,19.2670291239146
-0.000607842386056402,19.2707977778139
-0.000316704167314329,19.2747551726683
-9.26712417528147e-06,19.2789220200102
0.000310860449589957,19.2833204872673
0.000641629779309304,19.2879753516016
0.000947949436127851,19.2924016250358
0.00124094762627435,19.2967414520601
0.00153943862348909,19.3012594306156
0.00187288330537172,19.3064011092489
0.00219085194482711,19.3113590098851
0.00251213633399333,19.3163943868248
0.0027955240297845,19.3208233283998
0.00305537462760711,19.3248564283745
0.00330758201077011,19.3287290536087
0.00356001149977416,19.3325487184938
0.00381786314692103,19.3363787300271
0.00408540110084289,19.3402641934667
0.00436664772892552,19.3442416755495
0.004665722441818,19.3483431828737
0.00498714760887461,19.3525991758356
0.00533611020891549,19.3570401956598
0.00571879655193591,19.3616982061568
0.00614288641670721,19.3666077433804
0.00660527503078202,19.3716669497263
0.00708736219673884,19.3766249155877
0.00759845324388478,19.3815425319243
0.008140103309835,19.3863891687903
0.00871793557264354,19.391167363936
0.00933816162284562,19.3958766932605
0.0100082549013606,19.4005193940708
0.0107447246645437,19.405145691561
0.0115681600977576,19.4098022348253
0.0124961150663222,19.414492067093
0.0135537920053021,19.4192369008822
0.014778093798702,19.4240816463614
0.0162338184896311,19.4291344691487
0.0180762735422452,19.4347133365365
0.0204993979419598,19.4411275419613
0.0220610206381669,19.4449394274228
0.0236560532185541,19.4487513128844
0.0250460503154726,19.4521651418536
0.0262180194203214,19.4552966358244
0.0271842053003064,19.4583153921506
0.0278947131243496,19.4611975343358
0.0283389261412056,19.4640085263609
0.0285044183452551,19.4668789848452
0.0283358404466729,19.4700129247685
0.0275974930023571,19.474066659859
0.0267481263409197,19.4769793711366
0.0256838044269388,19.4798920824142
0.0246072431129652,19.4824616425449
0.0235340084602861,19.4848261627793
0.0224600477425711,19.487082369178
0.0213868001722438,19.489278693152
0.0203176570223697,19.4914434154574
0.0192563476443893,19.493595493615
0.0182064789244922,19.4957488732161
0.0171714126867218,19.4979145211823
0.0161542310574951,19.5001015456945
0.0151577415237611,19.5023178520537
0.0141844830510166,19.5045705806982
0.0132367377114244,19.5068664055186
0.0123165443388329,19.5092117477603
0.011425701203528,19.5116129683431
0.0105657796868181,19.5140765044211
0.00973813468882197,19.5166089954006
0.00894390509828433,19.519217433114
0.00817257587499294,19.5219515052307
0.00741508089543668,19.5248699461794
0.0066752108797606,19.5279941372738
0.00595680310191779,19.5313493773104
0.0052638877175115,19.5349649012913
0.00460064417605611,19.5388746084319
0.0039713141140093,19.5431180917531
0.0033800637659206,19.5477421962635
0.00283088943407049,19.5528036718292
0.00232716664603156,19.5583741255011
0.0018714179890622,19.5645478043072
0.00146685473269621,19.5714237080425
0.00112729009791355,19.578831700014
0.000845926282017061,19.5868794518296
0.000616256583576513,19.5957121458898
0.000435523631586462,19.6055213248736
0.000313545229705251,19.6155213248736
0.00023033264480605,19.6255213248736
0.0001723805162245,19.6355213248736
0.000131983160199961,19.6455213248736
0.000104164257720678,19.6555213248736
8.53391953674248e-05,19.6655213248736
7.28522816073057e-05,19.6755213248736
6.47834579304655e-05,19.6855213248736
5.97914807059989e-05,19.6955213248736
5.69603953961997e-05,19.7055213248736
5.56687928263323e-05,19.7155213248736
5.54936662100965e-05,19.7255213248736
5.61459442526744e-05,19.7355213248736
5.74286431616843e-05,19.7455213248736
5.92092961116177e-05,19.7555213248736
6.14011737033077e-05,19.7655213248736
6.39501901109728e-05,19.7755213248736
6.6825747511562e-05,19.7855213248736
7.0014418233028e-05,19.7955213248736
7.35156829180924e-05,19.8055213248736
7.7339146759977e-05,19.8155213248736
8.15028168299841e-05,19.8255213248736
8.60321535071291e-05,19.8355213248736
9.09597082873597e-05,19.8455213248736
9.63252327695418e-05,19.8555213248736
0.000102176196730708,19.8655213248736
0.000108568694418928,19.8755213248736
0.000115568753585723,19.8855213248736
0.000123254096074012,19.8955213248736
0.000131716436108872,19.9055213248736
0.000141064447216947,19.9155213248736
0.000151427586452134,19.9255213248736
0.000162961042965257,19.9355213248736
0.000175852188103116,19.9455213248736
0.000190329063176215,19.9555213248736
0.000206671675478564,19.9655213248736
0.000225227225982158,19.9755213248736
0.000246430934006977,19.9855213248736
0.000263859970341362,19.9927606624368
0.000283168793893923,20
