ecg,time
0.0197100861435602,15.0003971341289
0.0214002652469827,15.0045651648258
0.0231709467449622,15.0087331955228
0.0246934933592182,15.0123255598111
0.0259713730986383,15.0155193908778
0.0270407872365561,15.0185344445875
0.0278804538938387,15.0214459341215
0.0284518945570755,15.0242364074732
0.0287534284807261,15.0270252187024
0.0287538670995227,15.0299674536888
0.0283401422672121,15.0333994157503
0.0275589949398101,15.0366838557262
0.0264610422085351,15.0399682957022
0.0253711973006868,15.0426716966106
0.0242983923625958,15.0450748083111
0.0232261776505247,15.0473360382403
0.0221530530335975,15.0495209795933
0.0210818675360136,15.051663995884
0.0200163503234055,15.0537868692976
0.0189601880910476,15.0559050657669
0.0179168204432511,15.0580304388334
0.0168894115848734,15.0601726278925
0.0158808448898584,15.0623398630221
0.0148937309167752,15.0645394743564
0.0139304184150212,15.0667782397051
0.0129930089544282,15.0690626298058
0.0120833643740631,15.0713990126937
0.0112031177490122,15.073793816505
0.0103536867231294,15.0762536661274
0.00953627614322548,15.0787855426102
0.00874831106436058,15.0814092970438
0.00797170732075424,15.0842070530027
0.00721027580083616,15.0871985057487
0.0064677898771817,15.0904073818885
0.00574825472785987,15.0938610984328
0.00505587784719943,15.0975914447095
0.0043950100955493,15.1016354613304
0.00377005028794011,15.1060366214788
0.00318527368480583,15.1108468033932
0.00264458404407042,15.1161297862082
0.00215120626048402,15.121967678053
0.00170749707922303,15.1284708155372
0.00132815058918778,15.1355135044162
0.00101110126676902,15.1431226105458
0.000793111760774718,15.1503060025989
0.000614088635622993,15.1583766241305
0.000459991261028946,15.1679244010099
0.000347063891865104,15.1778427249542
0.000267881756567275,15.1878427249542
0.000213594892793636,15.1978427249542
0.00017695450408857,15.2078427249542
0.00015267147535716,15.2178427249542
0.000136992043016331,15.2278427249542
0.000127328983456595,15.2378427249542
0.000121928926920758,15.2478427249542
0.000119609001119142,15.2578427249542
0.000119571381822449,15.2678427249542
0.00012128115937089,15.2778427249542
0.000124387157472932,15.2878427249542
0.000128669665995734,15.2978427249542
0.000134005172275254,15.3078427249542
0.000140342543197615,15.3178427249542
0.000147687476244207,15.3278427249542
0.00015609321126536,15.3378427249542
0.000165656170079153,15.3478427249542
0.000176515708325226,15.3578427249542
0.000188857637670444,15.3678427249542
0.000202921646065977,15.3778427249542
0.000219013253837272,15.3878427249542
0.000237521571263466,15.3978427249542
0.000258944993953869,15.4078427249542
0.000283928287652594,15.4178427249542
0.000313316616990193,15.4278427249542
0.000348235577022639,15.4378427249542
0.000390212340906462,15.4478427249542
0.0004413638805955,15.4578427249542
0.000500594692374021,15.4672501335846
0.000567989475788754,15.4759365257591
0.000644569223269239,15.483951326799
0.000731567306870676,15.491346987142
0.000830397476808957,15.4981724028501
0.000942664650669506,15.5044729539377
0.00107018690057837,15.5102907710401
0.0012150229157234,15.5156649758402
0.00137950473087079,15.5206318902256
0.00156627361192439,15.5252252418329
0.00177832463838552,15.529476365469
0.00201905733946757,15.5334143957903
0.00229233895410988,15.5370664445054
0.00260258052278141,15.5404577800282
0.00295483378234427,15.5436120165686
0.00335491635513675,15.5465513094381
0.00380957516945209,15.5492965647901
0.0043267107504921,15.5518676858403
0.00491569327267394,15.5542838746132
0.00558782608463793,15.5565640279598
0.00633734810405761,15.5586766081087
0.00716595270105362,15.5606321591554
0.00808590933432717,15.5624650471662
0.00911583456279451,15.5642103957596
0.0102865430640439,15.5659092304875
0.0116595131310591,15.5676246201121
0.0134801913327666,15.5695817055847
0.015250136221303,15.5712539613054
0.0171871871121124,15.5729262170262
0.0188879564691717,15.5743272376861
0.0203625881236586,15.5755406781267
0.0216815270000687,15.5766702476884
0.0228598333884282,15.5777687098105
0.0238879677023627,15.5788747442183
0.0247393522396593,15.5800305527873
0.0253627995037105,15.5813019252654
0.0256404212088667,15.5828474650037
0.0253062469306254,15.5846714288539
0.0243574144267937,15.5864953927042
0.0232473788248553,15.5879702121926
0.0220028933345009,15.5893649380373
0.0206175922518262,15.5907798405644
0.0190994806435708,15.5922596663777
0.0174557698874492,15.5938420946396
0.0160514254592316,15.5952274886301
0.0147307641307641,15.5966128826205
0.0122446281569897,15.5995132899288
0.0101701975401323,15.6023324519629
0.00850650301298453,15.6049715594729
0.00715934479423083,15.6074568626506
0.00604182487852598,15.6098459873848
0.00511077016332156,15.6121455379388
0.00432135509309259,15.6143917208911
0.00363546307145093,15.6166384947731
0.00301452143090974,15.6189886274794
0.00238996868294015,15.6217644356869
0.0020069314586776,15.6237416941877
0.00166825666044549,15.6257189526885
0.00140218714907376,15.6274618860638
0.00118157073440705,15.6290632456515
0.000983856984745493,15.6306441588012
0.00079572770132164,15.6323025834236
0.000604211019044196,15.6341783488849
0.000382482398961906,15.6366456194623
7.48893775384553e-05,15.6407836346463
-0.000144530965964906,15.6444858940746
-0.000306070254703342,15.6478297872905
-0.000452290428381364,15.6515660632661
-0.000600360094682766,15.6565803713242
-0.000703061880592867,15.6619701632573
-0.000741255132372568,15.6667416536885
-0.000722525740749035,15.6710615478314
-0.000646970323859872,15.6749546820428
-0.000512615038989758,15.6784654803572
-0.000315904321653937,15.6816455010463
-5.19610270908165e-05,15.6845454632882
0.000285868171195075,15.6872167178453
0.000707857640445461,15.6897159263082
0.00123049396334588,15.6921050912999
0.00188468354647107,15.6944675386755
0.00273028126860954,15.696921629323
0.00391350625373911,15.6997067067192
0.00545276372578484,15.7026848949788
0.00687566883752378,15.7050326278702
0.00850994219938713,15.7073803607616
0.0100746587746826,15.7093374834611
0.0116515498438454,15.7110627444881
0.0133471644363641,15.7126823631173
0.0151582074329361,15.7141862198347
0.0171675833920329,15.7156319931209
0.0193891793212268,15.717012134581
0.0218738915864378,15.7183420039053
0.0246542163668159,15.719621984663
0.0277678392915053,15.7208540751817
0.0312614427400752,15.7220421570135
0.0351810773985968,15.7231878792706
0.0395821343969386,15.7242940737344
0.0445315276096515,15.7253643351116
0.0501048810638235,15.7264017486289
0.0563916704901465,15.7274096146123
0.0634967395760312,15.7283911806309
0.0715508789045626,15.729350517895
0.0807118399866944,15.7302917357565
0.0911749553523072,15.7312193767942
0.103186596381332,15.7321386308956
0.117064197983645,15.7330556300795
0.133227484241902,15.7339779069101
0.152254297871423,15.7349153662147
0.174859522255063,15.735877110197
0.201021651160294,15.7368411680116
0.231407448164654,15.7378170471933
0.266905934777263,15.7388184557882
0.308846708424941,15.7398689622636
0.347176926516707,15.7407457121732
0.38769307510592,15.7416224620828
0.423020060824642,15.7423737398838
0.453623049076045,15.7430405761272
0.480420635904295,15.7436651649373
0.503599946643921,15.744274416914
0.522866473159966,15.7448910357194
0.537418228385135,15.7455414270156
0.545516868092529,15.7462682494891
0.54375633424895,15.7470548669198
0.530274020596506,15.7478663839407
0.503640066734994,15.7487206355761
0.461906589567736,15.7496310475473
0.402859845361703,15.7506060500299
0.355475395125737,15.7512620859807
0.302871142003148,15.7519181219314
0.256480518105929,15.7524607510831
0.217181301963284,15.7529088073108
0.182916421979586,15.7533000278541
0.152362872929123,15.7536564937263
0.124747161599699,15.7539913571962
0.0995542295852016,15.7543138527796
0.076377880529305,15.7546319355013
0.0548129723459483,15.754954585168
0.0342650476393812,15.7552966510231
0.0130036882344718,15.755703879239
0.00100041574317141,15.7559691642395
-0.00647537073428114,15.7561524661137
-0.013312066971344,15.7563357679879
-0.0192635345239532,15.756510559791
-0.0253467375851823,15.7567076889837
-0.0312997712802806,15.7569238234333
-0.036928555040147,15.757156179751
-0.0421233122462206,15.757403574466
-0.0468253044861407,15.757665886075
-0.0510063795404146,15.7579437284151
-0.0546570481933044,15.7582382868891
-0.0577715248692608,15.7585512527084
-0.0603332183623059,15.7588821396041
-0.0623803298021991,15.75923568098
-0.0639308478214133,15.7596156081905
-0.0649992661473679,15.7600260484691
-0.0655984505801344,15.7604721297962
-0.0657380407277701,15.760960314534
-0.0654224920894659,15.7614989041018
-0.064647017180797,15.7620997079398
-0.0633925083137087,15.7627788175673
-0.0616185300090055,15.7635592234482
-0.059242666699324,15.7644784619064
-0.0560748236253216,15.7656116380592
-0.0519248170408198,15.7670368044861
-0.04787854165851,15.7684112032727
-0.0439969795044385,15.7697436773766
-0.0403123663108239,15.7710373541348
-0.0368414786334745,15.7722934664818
-0.0335926404607759,15.7735122906553
-0.0305686951562641,15.7746936354246
-0.0277684918487631,15.7758371000028
-0.0251877918295687,15.7769422087631
-0.0228199334158853,15.7780084779527
-0.0206563854979765,15.7790354428371
-0.0186872369020724,15.780022660363
-0.0169016362137254,15.7809696956093
-0.0152881843325083,15.781876096559
-0.0137328271701665,15.7828043800117
-0.0122388603049094,15.783756678302
-0.0108103181475673,15.7847349152783
-0.0094510559452627,15.7857413443866
-0.00816470837536924,15.7867786222414
-0.00695463840559966,15.7878499101472
-0.00582388375416593,15.7889590091601
-0.00477510089364257,15.7901105436821
-0.00381050624471283,15.7913102172815
-0.00293181363825653,15.7925651797012
-0.00214016611960233,15.7938845720505
-0.0014360583342801,15.7952803717795
-0.000819242124923966,15.796768773358
-0.000288600104904794,15.7983726029204
0.000134594617610594,15.8000203041712
0.000465789377000584,15.8017234169558
0.000720304197185184,15.8035006432008
0.000912354561536412,15.8053761382773
0.00105546630451353,15.8073829918402
0.00116299266031953,15.8095697949182
0.00124897853543274,15.812015209969
0.00133014183975111,15.8148679082449
0.00143322712893133,15.8185100250672
0.00155764086481236,15.822309386967
0.00172302105771834,15.8265684827405
0.00194045393466195,15.8314772078978
0.00215605612838494,15.8359917242232
0.00235555623207363,15.840035426224
0.0025480148891655,15.843887431924
0.00273812812808759,15.8476700986685
0.00292922813953576,15.8514520885249
0.00312424132852369,15.855280687758
0.00332599785777076,15.8591934731732
0.00353733507043093,15.8632229638683
0.00376120374434513,15.8673998410832
0.00400075571480892,15.8717547627669
0.00425946451012083,15.8763197242782
0.00454133662337556,15.8811294366488
0.00485127730246694,15.8862226628057
0.00519570166628699,15.8916433897601
0.00555005888855528,15.8969487119495
0.00592031451370817,15.902196229136
0.00630689505821596,15.9073489759995
0.00671395154696334,15.9124186409707
0.00714552531296699,15.9174092445796
0.00760645054329445,15.9223290369061
0.00810186271783383,15.9271834547835
0.00863731929542953,15.9319758565911
0.00921884775108125,15.9367073115037
0.00985305591860877,15.9413770652248
0.0105472666264806,15.9459832196992
0.0113276163380317,15.9506249578758
0.0122078016113058,15.9552897151996
0.0132098890331623,15.9599938441594
0.0143644773045684,15.9647678699393
0.0157216159487979,15.969685168094
0.0173846377536893,15.974939811191
0.0197101384568747,15.9813034085068
0.0214003094173435,15.9854714113335
0.0231709800484781,15.9896394141602
0.0246935205035613,15.9932317660296
0.0259713959775967,15.996425591799
0.0270408061449155,15.9994406435643
0.0278804675563388,16.0023521295886
0.028451903147253,16.0051426017006
0.0287534317572695,16.0079314141574
0.028753864006991,16.0108736541655
0.0283401287043213,16.0143056325514
0.0275589788710197,16.0175900534242
0.0264610284745091,16.020874474297
0.0253711844807619,16.0235778684485
0.0242983796494782,16.0259809776584
0.0232261649209921,16.0282422063528
0.022153040306558,16.0304271470155
0.021081854854778,16.0325701629331
0.0200163377271855,16.0346930361877
0.0189601756254402,16.0368112326555
0.0179168081505573,16.0389366058442
0.0168893995039173,16.0410787951271
0.0158808330560411,16.0432460305681
0.0148937193623106,16.0454456422914
0.0139304071690501,16.0476844081006
0.0129929980431429,16.0499687987293
0.012083353820964,16.0523051822102
0.0112031075747853,16.0546999866791
0.0103536769460551,16.0571598370239
0.00953626677900369,16.0596917142956
0.00874830181253371,16.0623154706835
0.00797169822667096,16.0651132288116
0.00721026690854724,16.0681046839885
0.00646778123376755,16.0713135628605
0.00574824638303787,16.0747672824859
0.00505586985281805,16.0784976322491
0.0043950025047529,16.0825416528298
0.00377004315370745,16.0869428174963
0.00318526705725704,16.0917530046037
0.00264457796699898,16.0970359934602
0.00215120076778403,16.1028738924692
0.00170749219458202,16.1093770386492
0.00132814650321008,16.1164197337653
0.00101109789917268,16.12402884737
0.000793110010230961,16.131212208115
0.000614086652955277,16.1392828612675
0.000459989720147258,16.1488306438761
0.000347062634919789,16.1587489809084
0.000267880831669919,16.1687489809084
0.000213594200967881,16.1787489809084
0.000176953975529186,16.1887489809084
0.000152671061680282,16.1987489809084
0.000136991711271925,16.2087489809084
0.000127328711474384,16.2187489809084
0.000121928699911106,16.2287489809084
0.000119608809333639,16.2387489809084
0.00011957121899461,16.2487489809084
0.00012128102168118,16.2587489809084
0.000124387042855403,16.2687489809084
0.000128669573671388,16.2787489809084
0.000134005102442651,16.2887489809084
0.000140342496837412,16.2987489809084
0.000147687455009363,16.3087489809084
0.00015609321743867,16.3187489809084
0.000165656206587352,16.3287489809084
0.000176515778805509,16.3387489809084
0.000188857746591411,16.3487489809084
0.000202921798911572,16.3587489809084
0.000219013457370213,16.3687489809084
0.000237521833895429,16.3787489809084
0.000258945326265613,16.3887489809084
0.000283928703132028,16.3987489809084
0.00031331713309679,16.4087489809084
0.000348236216754575,16.4187489809084
0.000390213135165339,16.4287489809084
0.000441364871857618,16.4387489809084
0.000500595863482477,16.4481563808325
0.000567990847487452,16.4568427644768
0.000644570821376388,16.4648575575009
0.000731569161018107,16.4722532103419
0.000830399620660323,16.4790786190455
0.000942667122361308,16.4853791636083
0.00107018974328974,16.4911969746476
0.00121502617835911,16.4965711738276
0.0013795084688629,16.5015380830174
0.00156627788815712,16.5061314298359
0.00177832952432683,16.5103825490729
0.00201906291652835,16.5143205753689
0.00229234531529371,16.5179726204181
0.00260258777479219,16.521363952622
0.00295484204824452,16.5245181861804
0.00335492577787357,16.5274574763976
0.00380958591660351,16.5302027294241
0.00432672302087601,16.5327738484784
0.00491570730597056,16.5351900355955
0.0055878421759838,16.5374701876489
0.00633736593737382,16.5395827653107
0.00716597253405411,16.5415383146114
0.00808593157039676,16.5433712016841
0.00911585984508609,16.5451165502767
0.0102865725527396,16.5468153863271
0.0116595508275137,16.5485307814252
0.013480247996816,16.5504878814151
0.0152501700105814,16.5521601125928
0.0171871915747938,16.5538323437706
0.0188879535272496,16.5552333604816
0.0203625820704707,16.5564468007008
0.0216815184330457,16.5575763706874
0.0228598223941078,16.558674833528
0.0238879542158589,16.559780868931
0.0247393360617753,16.5609366788748
0.0253627801871673,16.5622080534435
0.0256403973980209,16.5637535974537
0.0253062183484686,16.5655775598611
0.0243573841125547,16.5674015222686
0.0232473480971409,16.5688763415701
0.022002862369934,16.5702710679502
0.020617561318602,16.571685971226
0.0190994500346117,16.573165797895
0.0174557398845563,16.5747482271165
0.0157139503677969,16.5764799913582
0.0144149953996881,16.5778654042514
0.01194461413396,16.580801977677
0.0099282887233017,16.5835990345914
0.0083133304661356,16.5862129807924
0.0069917068726531,16.5887006376991
0.00590288781746547,16.5910758250634
0.00499391263297828,16.5933655345335
0.00422100499448849,16.5956079543478
0.00354654408636805,16.5978610610099
0.00293073458990447,16.6002406347419
0.00229141108248985,16.6031565641979
0.00193616828342942,16.6050414304253
0.00162020801328718,16.6069262966528
0.00136439894847873,16.608631345316
0.00114862074933912,16.6102224053992
0.000953240344412719,16.6118089685934
0.000765533460656819,16.6134906141292
0.000571764091351382,16.6154235802433
0.000338347574674263,16.6180877234698
5.62270881760076e-05,16.6219759526669
-0.000139826956051563,16.6253045677046
-0.000292529584899525,16.6284299840879
-0.00043539126508758,16.6319945991048
-0.000580391191568042,16.6366972379342
-0.000693746975128847,16.6422170086239
-0.000739557923609841,16.647045255154
-0.000728250825266311,16.6514255483176
-0.000660269683661499,16.6553704472624
-0.000533775360708159,16.6589299791362
-0.000345572982276228,16.6621495510644
-9.08768114156741e-05,16.6650828758017
0.00023689664254645,16.6677824521889
0.000647424577796602,16.6703028890907
0.00115662146977825,16.6727066109464
0.0017945248077655,16.6750775015571
0.00261200623988855,16.6775134350889
0.00374037795443304,16.680238601223
0.00523441931206199,16.6832001750488
0.00707338751830433,16.6862412668313
0.00841587325010784,16.6881601689667
0.0099344020247673,16.6900790711021
0.0114900064522079,16.6918031905091
0.0131659003240098,16.693426726938
0.0149576826256987,16.6949370342115
0.0169424434474418,16.6963873973246
0.0191393163659337,16.6977739703314
0.0215950649425349,16.6991095162128
0.0243409266732897,16.700394143248
0.0274174761862753,16.7016313893285
0.0308690877380015,16.7028242781995
0.0347393162297253,16.7039739310389
0.0390864416330065,16.7050842838136
0.0439745013326972,16.7061583498956
0.0494777499420877,16.7071991909919
0.0556827186238949,16.7082098884348
0.0626945427814608,16.7091940571193
0.0706405924396051,16.710155597549
0.0796750597520015,16.7110985611614
0.0899887048252379,16.7120274351015
0.101821656299451,16.7129473294708
0.115481694497068,16.7138642039063
0.131376758291216,16.7147854931792
0.150063785546851,16.7157207616591
0.172328287477662,16.7166827234193
0.19808863880924,16.7176461472129
0.227993893827037,16.718620234847
0.262903751116957,16.7196181067368
0.304080975502644,16.7206617555409
0.353254493301567,16.7217862313963
0.395142524377298,16.7226874200909
0.429569723554923,16.7234207202503
0.459362354910196,16.7240764160098
0.485428172011538,16.7246959745972
0.507851253918319,16.7253048731992
0.526245932574071,16.7259259345433
0.539674663393535,16.7265874678487
0.54607353088748,16.7273387297939
0.541944487806685,16.728128957951
0.525840868031518,16.7289480860487
0.496215228724136,16.7298131776421
0.451034748013758,16.7307365687427
0.389682877230663,16.7317033824074
0.343595975720729,16.7323221392837
0.293115565644684,16.73294089616
0.248443360903308,16.7334594492143
0.210270077205041,16.7338939963338
0.176798280291341,16.7342771978714
0.146857234525368,16.7346286685543
0.119741096048903,16.7349605122406
0.0949647441870997,16.7352815486084
0.0721308201309841,16.7355997288013
0.050818789734071,16.7359246121428
0.0303464582802433,16.7362735296265
0.00826109236921297,16.7367115341573
-0.000893900171440217,16.7369206887402
-0.00919086981567153,16.7371298433231
-0.0157084095040866,16.7373108122353
-0.0217477826255578,16.7374951068892
-0.0278086089358729,16.7377004725961
-0.0336469370859458,16.7379234666837
-0.0391081554489073,16.7381620400496
-0.0441065876379615,16.7384154969858
-0.0485978707978395,16.7386840448105
-0.0525625878525556,16.7389685441122
-0.0559955817223417,16.7392703907768
-0.0590882865613453,16.7396167066731
-0.0613975050465757,16.7399584300049
-0.0631999932016314,16.7403244101893
-0.0645130678343361,16.7407186828355
-0.0653506278138754,16.7411458327602
-0.065724178375005,16.7416115904923
-0.0656411029173634,16.7421232396334
-0.0651022626931771,16.7426903627296
-0.0640960968573901,16.7433271203931
-0.0625946411664936,16.7440522137073
-0.060540893892497,16.7448943541649
-0.0578142750442846,16.7459043765409
-0.0540905576361622,16.7472042343102
-0.0499824822468027,16.7486025903127
-0.0460091791791048,16.7499565102845
-0.0422185207610369,16.7512703126462
-0.0386341176406615,16.7525460599405
-0.0352682053379457,16.7537844509296
-0.0321262599954529,16.7549854980711
-0.0292090904450142,16.7561488887804
-0.0265139850134167,16.7572741756624
-0.0240354791520848,16.7583608742595
-0.0217659581133266,16.759408508535
-0.0196961769037642,16.7604166250712
-0.0178157253962278,16.7613847873029
-0.0161134457803942,16.7623125560322
-0.0145285177231241,16.7632288208973
-0.0130023330185304,16.7641685013568
-0.011539515911243,16.7651330860549
-0.010144012330483,16.7661246543221
-0.0088195771400538,16.7671456435804
-0.00756972015348886,16.7681989400727
-0.00639765387692371,16.7692879950897
-0.00530623880026872,16.7704169812048
-0.00429792611596587,16.7715910071025
-0.0033746972715709,16.772816420984
-0.00253799902328427,16.7741012528824
-0.00178867131752213,16.7754558846097
-0.0011268628165733,16.7768941133329
-0.000551923695771057,16.7784349434337
-7.36834412440699e-05,16.7800613869237
0.000303501641851503,16.7817334411314
0.00059619433631773,16.7834693942885
0.000819117153158373,16.7852901570805
0.000986102539187707,16.787223600736
0.00111051587613308,16.7893090934303
0.00120589531074925,16.791606924422
0.00128717905299962,16.7942211178576
0.00137413259667905,16.7973724013076
0.00148586750529428,16.8011070518833
0.00162656061295294,16.8050736310453
0.00181724982846117,16.8096664470352
0.00204833687351947,16.8146716229549
0.00225470674194932,16.81890780586
0.00245003030387425,16.8228366359208
0.00264088847209047,16.8266440340368
0.00283111056895582,16.8304195120389
0.00302377005395803,16.8342190955394
0.00322172612849178,16.8380844704429
0.00342780273600476,16.8420503301698
0.0036448799345257,16.8461479679429
0.00387599528641765,16.850407872172
0.0041244390050728,16.85486119251
0.00439391038288421,16.8595410694594
0.00468879741748836,16.8644840520767
0.00501464500441301,16.8697312834921
0.00536619937388892,16.8751364959419
0.00572727694419237,16.8804043178174
0.00610532814060776,16.8856097941427
0.00650123787381062,16.8907203545354
0.00691963380667194,16.8957511496822
0.00736479379128661,16.9007065016916
0.00784175918882787,16.9055941039007
0.00835584497689813,16.9104182061771
0.00891283059675451,16.9151810828086
0.00951900826257079,16.9198828371934
0.0101813127609997,16.9245220572571
0.0109155951247645,16.9291452557554
0.0117422067674547,16.933797035233
0.0126785890554249,16.938478549279
0.0137502182611912,16.9432110550018
0.0149951547352036,16.9480412220094
0.016481892184408,16.9530840111784
0.0183811169267389,16.9586868354111
0.0208311222100303,16.9650033087453
0.0223930154318632,16.968726327355
0.0239836968542924,16.9724493459648
0.0253697000435036,16.9757932200355
0.0265399525471501,16.9788749670215
0.0275038217366175,16.9818562754671
0.0282054868275658,16.9846916644945
0.0286405937132422,16.987465263522
0.0287950538991496,16.9903080273102
0.0286091071074346,16.9934308165386
0.0278154903890628,16.9975654366551
0.0269612262847273,17.0003862126415
0.0259036783356164,17.0032069886279
0.0248312564126021,17.005716019282
0.023759942313339,17.0080352536342
0.022687078006522,17.0102525693476
0.0216144973063972,17.012413150769
0.0205456939390524,17.0145438007191
0.0194844376985186,17.0166626520388
0.018434295937304,17.0187831256857
0.0173985725097071,17.0209158352918
0.0163802905695186,17.0230696334478
0.0153821944630013,17.0252522482865
0.0144067625128705,17.0274706946472
0.013456217543571,17.0297315695834
0.012532538289232,17.0320412729649
0.0116374732722565,17.0344061767178
0.01077254413079,17.0368327953281
0.00993906037084961,17.0393279153488
0.00913812732040331,17.0418987396221
0.00835543726781193,17.0446078036834
0.00758602125530197,17.0475003673834
0.00683364729040507,17.0505981585773
0.00610220925450852,17.0539266806142
0.00539581952248935,17.0575154565765
0.00471876521274933,17.06139880674
0.00407543843148523,17.0656168245437
0.00347020486226356,17.0702168764413
0.00290718450567678,17.0752562818986
0.00238997698095423,17.0808070188482
0.00192137644340838,17.0869640022423
0.00150847424578289,17.0937606830611
0.00116131325421392,17.1010754279253
0.000879145918855075,17.1090132595528
0.000677506998431063,17.1170350663361
0.00052116947390388,17.1255566956669
0.000392268732940682,17.1352568084245
0.000299131711188223,17.1452568084245
0.000234920095953978,17.1552568084245
0.000191281046682466,17.1652568084245
0.000162110385864813,17.1752568084245
0.000143025042209804,17.1852568084245
0.000130971413398775,17.1952568084245
0.000123868323859231,17.2052568084245
0.000120309752071049,17.2152568084245
0.000119346645223929,17.2252568084245
0.000120340016575105,17.2352568084245
0.000122865427195305,17.2452568084245
0.000126650444755755,17.2552568084245
0.00013153273574873,17.2652568084245
0.000137431668078535,17.2752568084245
0.000144329409795077,17.2852568084245
0.00015225908326774,17.2952568084245
0.000161298368023143,17.3052568084245
0.000171567514313177,17.3152568084245
0.000183231219091909,17.3252568084245
0.000196504284312065,17.3352568084245
0.000211661462364562,17.3452568084245
0.000229052457077387,17.3552568084245
0.000249123793029775,17.3652568084245
0.000272450353753746,17.3752568084245
0.000299781090356687,17.3852568084245
0.000332106188492763,17.3952568084245
0.000370757720985498,17.4052568084246
0.000417564166744517,17.4152568084246
0.000473427759941423,17.4249913721249
0.000537103910414219,17.4339923732346
0.000609478570868767,17.4422976903667
0.00069170369589765,17.4499610435191
0.000785112815913922,17.4570329662268
0.000891223952592344,17.4635603618421
0.00101175780084,17.4695867671921
0.00114866288725344,17.4751526081843
0.0013041460810544,17.4802954200094
0.00148070694080567,17.4850500531461
0.00168117814884518,17.4894488765772
0.00190877317063773,17.4935219757903
0.00216714410208579,17.4972973359518
0.00246045043153384,17.5008010183756
0.00279344716381695,17.5040573452501
0.00317159545977815,17.5070890930003
0.00360120744424435,17.5099176926986
0.00408964090419555,17.5125634578314
0.00464556896292784,17.5150458588932
0.00527936933304951,17.5173838700436
0.00599670093184473,17.519576904484
0.00678913916008422,17.5215977352621
0.00766685598766009,17.5234806318474
0.00864528742474315,17.5252601677848
0.00974870455603158,17.5269737305675
0.0110207439781744,17.5286708500808
0.0126013838471496,17.5304871200753
0.0149830459222061,17.5328256847676
0.0165848338932115,17.5342318600466
0.0182739757112237,17.5356380353255
0.01981369227776,17.5368992769527
0.02118852316951,17.5380530061042
0.0224213094332398,17.5391586224888
0.0235096752505709,17.5402572404508
0.0244337303349442,17.5413879436592
0.0251538109561745,17.5426038030221
0.0255884333777769,17.5440103475235
0.0254547628314242,17.5460263057632
0.0248083210261193,17.5475655975993
0.0237887704408089,17.5491048894355
0.0226172836028098,17.5505102518968
0.0212998302199443,17.5519076175484
0.019844622795117,17.5533514802846
0.0182608574252864,17.5548795658706
0.017256139951219,17.555847867086
0.0162725292030829,17.5568161683013
0.0151175567885661,17.5580095744444
0.0126611629084985,17.5608080537495
0.0105068878505694,17.5636560047785
0.00877401664091228,17.5663311913288
0.00738160965953935,17.5688328012064
0.00622548296966934,17.5712409841659
0.0052648279481716,17.5735541452481
0.00445317536657302,17.5758065482119
0.00375155194273759,17.5780478474987
0.00312237495691937,17.5803674015718
0.00250846115381533,17.5830121729979
0.00208591936782076,17.5851265429984
0.00171555708266398,17.5872409129988
0.0014379321633637,17.589029779327
0.00121234485450059,17.5906435488997
0.00101220045081616,17.592221416282
0.000823395615036221,17.5938615914005
0.000633417448988332,17.5956920780889
0.000419672094092699,17.5980199353003
0.000102417633267113,17.6021840353089
-0.000131901664735863,17.606063727502
-0.000300148941701979,17.6095088478964
-0.000448542955240521,17.6132730575681
-0.000597699406310945,17.6182872217344
-0.0007017040100687,17.6236882386169
-0.000740980871992578,17.628468375045
-0.000723306549176537,17.6327971111198
-0.000648829144436095,17.6366977281275
-0.0005156258566854,17.6402147439764
-0.000320102428932766,17.6434009701255
-5.7539769562556e-05,17.6463050792526
0.000278736772542817,17.6489796569798
0.000699098563468484,17.6514821782354
0.0012199627582546,17.6538742013349
0.00187029204799395,17.6562328120972
0.00271067536168922,17.6586821351403
0.00388452701967299,17.6614568447386
0.00541627806916205,17.6644323719729
0.00684564003205917,17.6667984035044
0.0084889434042258,17.669164435036
0.0100407696613175,17.6711096295972
0.0116244265571643,17.6728468592784
0.0133031232720147,17.6744549329244
0.0151127191468559,17.6759627559331
0.0171207961692219,17.6774124356205
0.0193362905880045,17.6787933623638
0.0218152444146665,17.6801246512833
0.024587713502918,17.6814053912812
0.027693283826259,17.6826385473449
0.0311778405040569,17.6838276523405
0.0350867015429714,17.6849741764457
0.0394760452111391,17.6860812375002
0.0444121584100684,17.6871522991781
0.0499703662030455,17.6881904378633
0.0562397959787917,17.6891989495041
0.0633247236498663,17.6901810590048
0.0713555612294231,17.6911408603416
0.0804892521377531,17.6920824443787
0.0909201369655719,17.6930103413275
0.102893231410286,17.6939297235863
0.116723970593766,17.6948466919932
0.132829370069336,17.6957687474231
0.151782765567022,17.6967057242555
0.17431457063594,17.6976675072791
0.200390093768439,17.6986314197789
0.230672242845199,17.6996069024063
0.266043588233293,17.7006075327885
0.307818818686204,17.7016565263619
0.346303835070559,17.7025383748061
0.387024654807867,17.7034202232504
0.422458943251093,17.7041737368935
0.453133250797034,17.7048416142211
0.479992857787535,17.7054666739923
0.503235370786357,17.7060759958382
0.522573917732549,17.7066922878214
0.537217170387861,17.7073418172874
0.54545102230715,17.7080667633739
0.543883815653694,17.7088531207674
0.530614533295934,17.7096640447149
0.504223056401054,17.7105174289817
0.462769023239661,17.711426786966
0.404040131419502,17.712400611137
0.356538072510382,17.7130601898055
0.303735829577197,17.713719768474
0.257187351304127,17.7142646413169
0.217786328694057,17.7147139374033
0.183450743557601,17.7151058860815
0.152843033535014,17.7154628043042
0.125183323917392,17.715797943503
0.0999537321639115,17.7161205782029
0.0767471245142402,17.7164386675025
0.0551593881929661,17.7167611487948
0.0346024063869187,17.7171026896724
0.0133916155981535,17.7175078083915
0.00102619596427889,17.7177805622868
-0.00645256849336104,17.7179638849239
-0.0132920068449243,17.718147207561
-0.0192459346734323,17.718322021183
-0.0253292147378447,17.7185190918975
-0.0312829620614493,17.7187351761284
-0.0369128787604396,17.7189674876025
-0.0421090005123471,17.7192148391508
-0.0468124759089925,17.7194771067682
-0.0509950841511346,17.7197549024487
-0.0546472940241355,17.7200494100738
-0.0577633308586766,17.7203623194161
-0.0603275247725523,17.7206932878609
-0.0623759086852491,17.7210467691801
-0.0639276512140404,17.7214266254725
-0.0649972589892007,17.7218369833579
-0.0655976038636636,17.722282967967
-0.0657383357569138,17.7227710377911
-0.0654239260753862,17.7233094888085
-0.064649618763651,17.723910118557
-0.0633963465234416,17.7245890076001
-0.0616237450472919,17.7253691218808
-0.059249551542859,17.7262879445608
-0.0560841325412359,17.7274204196142
-0.0519339625960078,17.7288457273618
-0.047887374987437,17.7302202238809
-0.0440054032790764,17.7315527858983
-0.0403203306547013,17.732846546401
-0.0368489575663338,17.7341027411776
-0.0335996224637015,17.7353216478856
-0.030575178831782,17.7365030759585
-0.0277744834758301,17.7376466248764
-0.02519330371946,17.7387518190761
-0.0228249825922596,17.7398181747753
-0.020660992560579,17.7408452271829
-0.0186914250012997,17.7418325332049
-0.0169054301317734,17.7427796579241
-0.015291609664496,17.7436861493951
-0.0137361273915767,17.7446143820908
-0.0122420245878626,17.7455666269863
-0.0108133380468338,17.7465448061062
-0.00945392341914492,17.7475511721329
-0.00816741590812211,17.7485883807186
-0.00695717911941966,17.7496595919563
-0.0058262515267533,17.750768605356
-0.00477729048103126,17.7519200433139
-0.00381251341071169,17.7531196067435
-0.00293363529350859,17.754374441787
-0.00214180047605184,17.7556936845229
-0.00143750508572299,17.7570893051029
-0.000820502675627592,17.7585774868887
-0.000289677894121976,17.7601810379976
0.000133738800647781,17.7618286407795
0.000465118658537039,17.7635316125377
0.00071978627891466,17.765308651772
0.00091195908586503,17.7671838985376
0.00105516393320979,17.7691904173192
0.0011627536812662,17.7713767535654
0.00124877022624728,17.7738214754425
0.00132992135933612,17.7766730094982
0.00143290722309264,17.7803124674868
0.0015572496047068,17.7841113368762
0.00172250248168765,17.788368840827
0.00193985620801562,17.7932770411417
0.00215552253904862,17.7977934736121
0.00235504968172052,17.8018379243649
0.00254751903616811,17.8056902296127
0.0027376331841289,17.8094729731898
0.00292872622098002,17.8132548986323
0.00312372510065199,17.8170833273494
0.0033254601070466,17.8209958540575
0.0035367684232755,17.8250250061484
0.00376060040739632,17.8292014667989
0.00400010722799242,17.8335558922043
0.00425876134664093,17.8381202726061
0.00454056747381692,17.8429293102377
0.00485042787889707,17.8480217563045
0.00519475269967669,17.8534415828026
0.00554909468266502,17.8587474363602
0.00591930125424554,17.8639950762963
0.00630583467766669,17.8691480920259
0.00671283031487036,17.8742179671126
0.00714433216064121,17.8792087733515
0.00760517188784113,17.884128746472
0.0081004843948061,17.8889833342734
0.00863582583985046,17.8937758999602
0.00921722232808731,17.8985075186381
0.00985127996065489,17.9031774400349
0.0105453194174855,17.9077837678998
0.011325420292328,17.9124254086976
0.0122053148326241,17.9170900908426
0.0132070435688682,17.9217940858166
0.0143611732930795,17.9265678568084
0.0157176758290693,17.9314846047897
0.0173796369671776,17.9367378406238
0.019701984166329,17.9430953627268
0.0213934329757823,17.9472677498311
0.0231658100934775,17.9514401369354
0.0246893152445956,17.9550344393201
0.0259678575914572,17.9582290962983
0.0270378881762889,17.9612444532315
0.0278783694311354,17.9641564882033
0.0284505977258144,17.9669471536514
0.0287529567793007,17.9697357731289
0.0287543844575987,17.9726772265531
0.0283422850387608,17.9761066523932
0.0275615189090895,17.9793940896466
0.0264631893213881,17.9826815269
0.0253732001202816,17.9853859728079
0.0243003779506168,17.9877894660258
0.023228165426616,17.9900508835783
0.0221550402972329,17.9922359285712
0.0210838478124402,17.994378999452
0.0200183165614232,17.9965018941864
0.018962133687172,17.9986200872919
0.0179187392775357,18.0007454374419
0.0168912980578484,18.0028875872628
0.0158826939224963,18.0050547688896
0.0148955379174284,18.0072543137783
0.013932179266544,18.0094930005039
0.012994719996508,18.0117773001548
0.0120850223629967,18.0141135808405
0.0112047198793966,18.0165082703851
0.0103552305598955,18.018967993236
0.00953775964859517,18.021499729619
0.0087497764282505,18.024123176118
0.00797314757525456,18.0269205900588
0.00721168412365593,18.0299116594979
0.0064691589810301,18.0331201047703
0.00574957692244284,18.0365733353683
0.00505714511761454,18.0403031316611
0.00439621423149393,18.0443465234811
0.00377118310942202,18.0487469705883
0.0031863274567939,18.0535563328914
0.00264555201239725,18.0588383624253
0.00215208321152192,18.0646751246144
0.00170827939245855,18.0711768927369
0.00132880851376089,18.0782185980207
0.00101164759158878,18.0858265260774
0.000792645593841171,18.0930422088027
0.000614179971386798,18.1010907120769
0.000459980738796893,18.1106439074638
0.000347096460268158,18.1205582597806
0.000267904691176914,18.1305582597806
0.000213610606037142,18.1405582597806
0.000176965031751317,18.1505582597806
0.000152678404838926,18.1605582597806
0.00013699650285404,18.1705582597806
0.000127331730051143,18.1805582597806
0.000121930457567702,18.1905582597806
0.0001196096456176,18.2005582597806
0.000119571361925631,18.2105582597806
0.000121280624075357,18.2205582597806
0.000124386204263472,18.2305582597806
0.000128668354684008,18.2405582597806
0.000134003534583651,18.2505582597806
0.000140340589400414,18.2605582597806
0.000147685199504632,18.2705582597806
0.000156090590113888,18.2805582597806
0.000165653169378098,18.2905582597806
0.000176512278940302,18.3005582597806
0.000188853714920433,18.3105582597806
0.000202917146859553,18.3205582597806
0.000219008072224674,18.3305582597806
0.000237515571901436,18.3405582597806
0.000258938002654997,18.3505582597806
0.000283920077683522,18.3605582597806
0.000313306888957448,18.3705582597806
0.000348223928786295,18.3805582597806
0.000390198221507002,18.3905582597806
0.000441346517708901,18.4005582597806
0.000500574854011942,18.40996589839
0.000567966904897398,18.4186525116951
0.000644543561691299,18.4266675169082
0.000731538137377403,18.43406336536
0.000830364323550324,18.4408889542629
0.000942626973988858,18.4471896647021
0.00107014408933684,18.4530076283024
0.00121497427784963,18.458381967666
0.0013794494825089,18.4633490055346
0.00156621086496379,18.467942470335
0.00177825338542245,18.4721936976009
0.002018976435773,18.4761318226573
0.00229224709639589,18.4797839578258
0.002602476221553,18.4831753720754
0.00295471532786176,18.4863296801096
0.00335478177246556,18.4892690376706
0.00380942215825672,18.4920143512718
0.00432653660236521,18.4945855244029
0.00491549475170851,18.4970017592559
0.00558759924809868,18.4992819527012
0.00633709749844293,18.5013945882322
0.00716567523688103,18.5033501839026
0.00808560026361709,18.50518310559
0.00911548650434338,18.506928476176
0.0102861430212985,18.5086273178098
0.0116590132488594,18.5103426650208
0.0134794734223809,18.5122996145525
0.0152496442330998,18.5139721457924
0.0171869877724567,18.5156446770323
0.0188878183315754,18.5170457515114
0.0203624674433079,18.5182592044142
0.0216814185275053,18.5193887786525
0.0228597370648757,18.5204872417906
0.0238878850757422,18.5215932739449
0.0247392864308013,18.5227490760291
0.025362756643535,18.5240204342229
0.025640418317888,18.525565935525
0.0253062926667337,18.5273899258058
0.0243574811788936,18.5292139160867
0.0232474544640063,18.5306887462067
0.0220029784220179,18.5320834727969
0.0206176864063247,18.5334983723484
0.0190995832779504,18.5349781927169
0.0174558807161929,18.5365606129023
0.0160516840141204,18.5379458508204
0.014731150012284,18.5393310887385
0.0122450422049463,18.542231393255
0.010170528280522,18.5450505900232
0.00850676617473328,18.5476897329854
0.00715957296454541,18.5501750334587
0.00604201183541876,18.5525641816951
0.00511092582190234,18.5548637493518
0.00432148779352262,18.5571099400298
0.00363558036536332,18.5593567065046
0.00301463257760971,18.5617067983252
0.00239010058745804,18.5644824192606
0.00200701989707204,18.5664598319958
0.00166830997780874,18.5684372447309
0.00140222646041536,18.5701802369422
0.00118160411944695,18.5717816132426
0.000983887883571505,18.5733625210312
0.000795758640534005,18.5750209173374
0.000604245414036142,18.576896612091
0.000382531155137228,18.5793636534922
7.49262008497368e-05,18.5835016875534
-0.000144511343803716,18.5872041305988
-0.000306057030071492,18.590548081479
-0.000452278326942207,18.5942842971244
-0.000600347282311424,18.599298394362
-0.000703057733837954,18.6046882878774
-0.000741257623682703,18.6094598289851
-0.00072253479569406,18.6137797758114
-0.000646986082749013,18.6176729574658
-0.000512637835755156,18.6211837970468
-0.000315934565738359,18.6243638539368
-5.19993605705766e-05,18.6272638458221
0.000285820804149806,18.6299351233918
0.000707799864837873,18.6324343484801
0.00123042342061947,18.6348235224391
0.00188459344438656,18.6371859606576
0.00273016180917121,18.6396400267775
0.00391332850079318,18.6424250352813
0.00545254145582404,18.6454032064297
0.00687548155223413,18.6477510408653
0.00850980401262579,18.6500988753009
0.0100745130933772,18.6520560098381
0.0116514104337847,18.6537812969092
0.0133470069527059,18.6554009166841
0.0151580401956823,18.6569047833065
0.0171674039043445,18.6583505653078
0.0193889783976412,18.6597307104835
0.0218736686095712,18.6610605847826
0.0246539650430347,18.6623405688558
0.0277675583651824,18.6635726635704
0.0312611282717254,18.6647607493645
0.0351807225830279,18.6659064746745
0.0395817361305946,18.667012672562
0.04453107994528,18.6680829370971
0.0501043769365808,18.6691203534794
0.0563911015673749,18.6701282220258
0.063496095030749,18.6711097901724
0.0715501473515329,18.6720691293322
0.0807110067063121,18.6730103487366
0.0911740019923747,18.6739379909217
0.103185499665867,18.6748572457167
0.117062927265792,18.6757742450251
0.133225999334977,18.6766965213195
0.152252542492398,18.6776339791871
0.174857493986275,18.6785957235628
0.201019301526195,18.6795597811353
0.231404714941091,18.6805356592148
0.266902732773614,18.6815370653988
0.3088428992492,18.6825875669139
0.347173651732248,18.6834643352872
0.38769050998733,18.6843411036606
0.4230178667884,18.6850923898163
0.453621101176476,18.6857592301407
0.480418901861864,18.6863838209548
0.503598431140878,18.6869930734571
0.522865208370653,18.6876096913164
0.537417285519665,18.6882600796696
0.545516408461922,18.6889868953784
0.543756573402193,18.6897735120633
0.530275033884333,18.6905850270745
0.503641965931986,18.6914392756326
0.461909515989355,18.6923496837586
0.402863948730165,18.6933246818465
0.355479103418117,18.6939807303604
0.302874170619337,18.6946367788744
0.256483002407855,18.6951794160184
0.217183435323412,18.6956274766939
0.182918311783391,18.6960186998715
0.152364576231944,18.6963751673959
0.124748713438777,18.6967100318863
0.0995556553408202,18.6970325279997
0.0763792025521251,18.6973506107735
0.0548142170396003,18.6976732598578
0.0342662649568356,18.6980153238295
0.0130050986461201,18.6984225443125
0.00100056878750521,18.6986878552149
-0.00647523545580153,18.6988711572803
-0.0133119479061531,18.6990544593458
-0.0192634289418789,18.6992292513146
-0.0253466316640839,18.6994263802145
-0.0312996685606533,18.6996425144199
-0.0369284578820689,18.6998748705256
-0.0421232219769946,18.7001222650397
-0.0468252218124784,18.7003845764451
-0.0510063047913394,18.7006624185684
-0.0546569814663843,18.7009569768042
-0.0577714662043423,18.7012699423561
-0.0603331698368131,18.7016008292828
-0.0623802885051519,18.7019543703377
-0.063930813550413,18.70233429717
-0.0649992387338049,18.7027447370032
-0.0655984298882695,18.7031908178007
-0.0657380266815137,18.7036790019011
-0.0654224847075191,18.7042175906904
-0.0646470166713219,18.7048183935371
-0.0633925151338576,18.7054975018923
-0.0616185450596894,18.7062779060684
-0.0592426918392727,18.7071971420594
-0.0560748636095138,18.70833031398
-0.0519248565334643,18.7097554812013
-0.0478785798163511,18.711129880512
-0.0439970157798125,18.7124623550722
-0.0403124004274435,18.7137560322545
-0.0368415104486104,18.7150121450122
-0.0335926699099073,18.7162309695925
-0.0305687222278293,18.7174123147692
-0.0277685165702955,18.718555779758
-0.0251878142587412,18.7196608889329
-0.0228199536336094,18.7207271585413
-0.0206564036026588,18.7217541238486
-0.0186872530045223,18.7227413418018
-0.0169016504326377,18.7236883774797
-0.0152881967904996,18.7245947788656
-0.0137328390375315,18.7255230620756
-0.0122388715299225,18.7264753601104
-0.0108103286899774,18.7274535968097
-0.00945106576677742,18.7284600256158
-0.00816471744024019,18.7294973031386
-0.00695464668115636,18.730568590677
-0.00582389121137197,18.7316776892794
-0.00477510750769004,18.7328292233382
-0.00381051199564017,18.7340288964092
-0.00293181851161816,18.7352838582177
-0.00214017010720878,18.7366032498491
-0.0014360614350696,18.7379990487183
-0.000819244346064137,18.7394874492418
-0.000288601463355887,18.7410912774674
0.000134594310585074,18.7427389782464
0.000465789944799927,18.7444420903546
0.000720305485271456,18.7462193157025
0.000912356424823984,18.7480948095875
0.00105546860301202,18.7501016615437
0.00116299525256711,18.7522884623807
0.00124898126607448,18.7547338741033
0.00133014450592836,18.7575865667877
0.00143322931701221,18.7612286708312
0.00155764271982602,18.7650280303642
0.0017230223249205,18.7692871184897
0.00194045506072896,18.7741958453149
0.00215605677540772,18.7787103530959
0.00235555672325537,18.7827540518032
0.00254801536682371,18.7866060562224
0.00273812866314837,18.7903887226839
0.00292922877227515,18.7941707128941
0.00312424208501963,18.7979993129588
0.00332599875826184,18.801912099605
0.00353733613408284,18.8059415918942
0.00376120499222373,18.8101184710586
0.00400075717158521,18.8144733950559
0.00425946620571237,18.8190383592692
0.00454133859553451,18.8238480747718
0.00485127960120369,18.8289413045456
0.00519570436181371,18.834362035672
0.00555006160916523,18.8396673559099
0.00592031739084564,18.8449148728641
0.00630689807041328,18.8500676188378
0.0067139547404345,18.8551372831577
0.00714552872142302,18.860127886134
0.00760645421000925,18.8650476779141
0.00810186668674098,18.8699020952873
0.00863732361393577,18.8746944966163
0.00921885246999753,18.8794259510539
0.00985306109339853,18.8840957042894
0.0105472723186114,18.8887018582604
0.0113276227763449,18.8933435967284
0.0122078089200045,18.8980083542787
0.0132098974134096,18.9027124836388
0.014364487052274,18.9074865101772
0.0157216275906811,18.9124038099674
0.0173846525506491,18.9176584572464
0.0197101626371991,18.9240220726366
0.0214003298132877,18.9281900624684
0.0231709953884016,18.9323580523001
0.0246935329811858,18.9359503983811
0.0259714064749983,18.9391442216828
0.0270408147993238,18.9421592725431
0.027880473774875,18.945070756938
0.0284519070101061,18.9478612284778
0.0287534331516683,18.9506500415116
0.0287538624413397,18.9535922838639
0.0283401222691868,18.9570242698583
0.0275589712735457,18.9603086818451
0.0264610219678585,18.9635930938319
0.0253711784024015,18.9662964848445
0.0242983736224553,18.9686995929024
0.0232261588871059,18.9709608210303
0.0221530342738845,18.9731457613811
0.0210818488427738,18.9752887771356
0.0200163317579865,18.977411650328
0.0189601697187193,18.979529846809
0.0179168023245428,18.9816552200705
0.0168893937752729,18.9837974094762
0.0158808274398628,18.985964645084
0.0148937138722208,18.9881642570141
0.0139304018172354,18.9904030230678
0.012992992840404,18.9926874139781
0.0120833487768411,18.9950237977776
0.0112031026974897,18.9974186026034
0.0103536722426773,18.999878453345
0.00953626225543329,19.0024103310564
0.00874829734405972,19.0050340883838
0.00797169383441011,19.0078318475556
0.00721026261322093,19.0108233039022
0.00646777705751087,19.0140321840891
0.00574824234920985,19.0174859051975
0.00505586598576466,19.0212162566392
0.00439499882941512,19.0252602791269
0.00377003969493382,19.0296614459698
0.00318526383854711,19.034471635579
0.00264457500887796,19.0397546273451
0.00215119808609659,19.0455925298017
0.00170748980032909,19.0520956801594
0.00132814448705016,19.0591383782757
0.00101109622202675,19.066747495473
0.000793111961371451,19.0739307382467
0.000614086527947187,19.082001471295
0.000459989932202887,19.0915492327546
0.000347062655066126,19.1014675831137
0.000267880850750981,19.1114675831137
0.000213594221022387,19.1214675831137
0.000176953996753617,19.1314675831137
0.000152671083547275,19.1414675831137
0.000136991733239219,19.1514675831137
0.000127328733184721,19.1614675831137
0.000121928721151982,19.1714675831137
0.000119608829956902,19.1814675831137
0.00011957123886827,19.1914675831137
0.000121281040672862,19.2014675831137
0.000124387060830266,19.2114675831137
0.000128669590492542,19.2214675831137
0.000134005117969989,19.2314675831137
0.00014034251092475,19.2414675831137
0.000147687467500674,19.2514675831137
0.000156093228163788,19.2614675831137
0.000165656215357105,19.2714675831137
0.000176515785405944,19.2814675831137
0.000188857750776666,19.2914675831137
0.00020292180039485,19.3014675831137
0.000219013455812119,19.3114675831137
0.000237521828888669,19.3214675831137
0.000258945317314533,19.3314675831137
0.000283928689624768,19.3414675831137
0.000313317114266593,19.3514675831137
0.000348236191624813,19.3614675831138
0.000390213102469432,19.3714675831138
0.000441364829919045,19.3814675831138
0.000500595811040905,19.3908749830767
0.000567990783216363,19.3995613667767
0.00064457074378747,19.4075761598687
0.000731569068429891,19.4149718127858
0.000830399511170917,19.4217972215707
0.000942666993819019,19.4280977662177
0.00107018959325942,19.4339155773419
0.00121502600408272,19.4392897766057
0.00137950826721224,19.444256685877
0.00156627765557912,19.4488500327731
0.00177832925677567,19.453101152083
0.00201906260938371,19.457039178446
0.00229234496325859,19.4606912235555
0.00260258737176516,19.464082555812
0.00295484158715451,19.4672367894145
0.00335492525046021,19.4701760796663
0.00380958531311969,19.4729213327166
0.00432672232967009,19.4754924517825
0.00491570651287252,19.4779086388971
0.00558784126336753,19.4801887909311
0.00633736492274499,19.4823013686476
0.00716597140052791,19.4842569179624
0.00808593029116844,19.4860898050016
0.00911585837661902,19.4878351535012
0.0102865708151487,19.4895339893686
0.0116595485581203,19.4912493840098
0.0134802444448771,19.4932064828871
0.0152501681622715,19.4948787157526
0.0171871918979242,19.4965509486181
0.01888795445221,19.4979519655604
0.0203625832832042,19.4991654057525
0.0216815198863145,19.50029497567
0.022859824078095,19.5013934384227
0.0238879561315493,19.5024994737195
0.0247393382191014,19.5036552835309
0.0253627826121479,19.504926657917
0.0256404001761424,19.5064722015933
0.0253062214752196,19.5082961640566
0.0243573873514954,19.5101201265198
0.0232473513463674,19.511594945798
0.022002865606532,19.5129896721127
0.0206175645129925,19.514404575314
0.0190994531552053,19.5158844019066
0.0174557428997738,19.5174668310508
0.0157139532005351,19.5191985952129
0.0144149994089526,19.5205840065698
0.0119446155667042,19.5235205825105
0.0099282883495825,19.5263176417648
0.00831332998552457,19.5289315881853
0.00699170643029238,19.5314192450895
0.00590288683199961,19.5337944338064
0.00499391143078428,19.536084144148
0.00422100387187851,19.5383265641282
0.00354654337136965,19.5405796697704
0.00293073486301619,19.5429592396874
0.00229141496296649,19.5458751507092
0.00193617013795885,19.5477600257807
0.00162020823943013,19.5496449008523
0.00136439853071086,19.5513499537044
0.00114862021595784,19.5529410147869
0.000953239957237309,19.554527576922
0.000765533446383409,19.556209219005
0.000571764825821913,19.5581421768214
0.000338350590795176,19.5608062898681
5.62249108396557e-05,19.564694588215
-0.000139832693342597,19.5680232748556
-0.00029253631079911,19.5711487321467
-0.000435398270530418,19.5747133868105
-0.000580398558069582,19.5794161023954
-0.000693751166671978,19.5849358375129
-0.000739559897986002,19.5897640679631
-0.000728250684690827,19.5941443440792
-0.000660267416298264,19.5980892281685
-0.000533770878792039,19.6016487465435
-0.000345566146193997,19.6048683067345
-9.08673831511594e-05,19.607801621992
0.000236908940610036,19.6105011905784
0.000647440124492289,19.6130216213716
0.00115664085516786,19.6154253390389
0.0017945494865226,19.6177962292484
0.00261203934003997,19.6202321685155
0.00374042626373918,19.622957350215
0.00523448085603712,19.6259189286431
0.00707346111593397,19.6289600195909
0.00841594278945723,19.6308789033666
0.00993446619858727,19.6327977871423
0.0114900757245662,19.634521902
0.013165977447172,19.6361454359543
0.0149577670478225,19.6376557396104
0.0169425374571476,19.6391061001346
0.0191394211538853,19.6404926706101
0.0215951820290391,19.6418282141048
0.0243410581594663,19.6431128390996
0.0274176234347581,19.6443500830468
0.0308692527774872,19.6455429699144
0.0347395017033374,19.6466926209889
0.0390866498605529,19.6478029720331
0.043974735410133,19.6488770365308
0.0494780135231771,19.6499178761976
0.0556830167630894,19.6509285724851
0.062694880064124,19.651912740076
0.0706409751237577,19.6528742795864
0.0796754955519416,19.6538172424734
0.089989203369692,19.6547461159053
0.101822229830305,19.6556660100178
0.115482359126198,19.6565828845103
0.131377535343044,19.6575041742149
0.15006470494273,19.6584394436359
0.172329349733995,19.6594014053182
0.198089869504843,19.6603648293956
0.227995325944155,19.661338917804
0.262905429736454,19.6623367912001
0.304082972828593,19.663380442881
0.353256729966422,19.6645049199655
0.395144327006586,19.6654060979389
0.4295712528984,19.6661393927895
0.459363689288214,19.6667950860465
0.485429329908638,19.6674146435904
0.507852227370391,19.6680235422542
0.52624669135903,19.6686446048276
0.539675142613475,19.6693061410446
0.546073578425054,19.6700574093784
0.541943949507278,19.6708476385507
0.525839679389059,19.6716667686258
0.496213296853764,19.6725318629526
0.451031961172727,19.6734552572681
0.389679598612771,19.6744220680341
0.34359301952159,19.6750408161483
0.293113121789285,19.6756595642624
0.248441334958056,19.6761781115789
0.210268329007285,19.6766126554389
0.176796730270138,19.676995855026
0.146855838698926,19.6773473244939
0.119739826443922,19.6776791674542
0.0949635799111223,19.6780002034902
0.0721297421101506,19.6783183837547
0.0508177741297007,19.6786432677412
0.0303454550995798,19.6789921871774
0.00825980841084604,19.6794302014679
-0.000894645131630494,19.6796393459436
-0.00919116183608375,19.6798484904193
-0.0157086441711534,19.6800294584173
-0.0217480241692299,19.6802137539992
-0.0278088459198215,19.6804191204788
-0.0336471614476805,19.6806421152219
-0.0391083626310698,19.6808806891925
-0.0441067751941006,19.6811341467261
-0.0485980375441837,19.6814026951709
-0.0525627333754967,19.6816871951385
-0.0559957057895035,19.6819890425347
-0.0590883888958795,19.6823353594835
-0.0613975864723501,19.6826770837603
-0.0632000543320705,19.6830430650236
-0.0645131092678446,19.6834373389163
-0.0653506500839482,19.6838644902956
-0.0657241818845913,19.6843302497446
-0.0656410878600783,19.6848419009388
-0.0651022288706897,19.6854090265871
-0.0640960435185059,19.6860457874333
-0.0625945667113868,19.6867708848525
-0.0605407950824261,19.6876130309055
-0.0578141446023384,19.6886230617769
-0.054090371917236,19.6899229366605
-0.0499823010608914,19.6913212904557
-0.0460090053378091,19.6926752085637
-0.0422183556907406,19.6939890092008
-0.0386339620878282,19.6952647548249
-0.0352680596749764,19.6965031441559
-0.032126124351187,19.6977041896307
-0.0292089647703305,19.6988675786555
-0.0265138691213927,19.6999928638315
-0.0240353727475059,19.7010795607012
-0.021765860817334,19.7021271932284
-0.0196960882756662,19.7031353079968
-0.0178156449531134,19.7041034684413
-0.0161133730146628,19.7050312353633
-0.0145284474676251,19.7059475012488
-0.013002265505165,19.7068871827776
-0.0115394513196476,19.7078517686307
-0.010143950833037,19.7088433381531
-0.00881951889934361,19.7098643287846
-0.00756966532002701,19.7109176267904
-0.00639760258676604,19.7120066834897
-0.00530619117251855,19.7131356714923
-0.00429788225016567,19.7143096995303
-0.0033746572449169,19.7155351158688
-0.00253796288760112,19.7168199506289
-0.00178863909583217,19.7181745857473
-0.00112683449893906,19.719612818576
-0.000551899233760611,19.7211536537865
-7.36638779608191e-05,19.7227800989099
0.0003035171043677,19.7244521555624
0.000596206375842134,19.7261881119778
0.000819126400546768,19.7280088790875
0.000986109593958472,19.7299423285068
0.00111052132890759,19.7320278290772
0.00120589977993406,19.7343256713333
0.00128718326587346,19.7369398823157
0.0013741376645129,19.7400911985579
0.00148587331204434,19.7438258506011
0.00162656813125665,19.7477924490493
0.00181725996109724,19.7523853015143
0.00204834841938048,19.7573904908289
0.00225471753088948,19.7616266512935
0.00245004073550234,19.7655554716565
0.00264089878419827,19.7693628662224
0.00283112093400643,19.7731383441885
0.00302378062378602,19.776937930081
0.00322173705026584,19.7808033093111
0.00342781415783074,19.7847691750458
0.00364489201054323,19.7888668204103
0.00387600818149725,19.7931267338121
0.00412445290103612,19.7975800649722
0.00439392548933438,19.8022599545322
0.00468881399065135,19.8072029517585
0.00501466337854034,19.8124502000513
0.00536621804746975,19.8178554027224
0.00572729653598895,19.8231232227531
0.00610534856791945,19.8283286936698
0.00650125938894374,19.8334392497707
0.00691965661297824,19.8384700407173
0.00736481814537357,19.8434253889985
0.00784178535934574,19.8483129877532
0.00835587325603769,19.8531370867535
0.00891286130137843,19.8578999601635
0.00951904174043635,19.8626017112865
0.0101813493975516,19.8672409279864
0.0109156362950565,19.8718641283663
0.0117422531869342,19.8765159090348
0.0126786418782281,19.8811974251109
0.0137502790761563,19.8859299344113
0.0149952261085503,19.890760108693
0.0164819792595189,19.8958029146686
0.0183812355289649,19.9014057895782
0.02083124124083,19.9077222260747
0.022393124368931,19.9114452101482
0.0239837906426271,19.9151681942217
0.0253697790934991,19.9185120447225
0.0265400187947936,19.9215937809367
0.0275038748621959,19.924575087339
0.028205523004102,19.9274104690011
0.0286406127837029,19.9301840679597
0.0287950539392048,19.9330268412972
0.0286090814791395,19.9361496599475
0.0278153968281772,19.9402844223232
0.0269611221299023,19.9431051450178
0.0259035763782213,19.9459258677124
0.0248311556821557,19.948434871939
0.0237598415510592,19.9507540933558
0.0226869771478236,19.9529714020012
0.0216143966318112,19.9551319795182
0.0205455938016705,19.9572626275895
0.0194843384441615,19.9593814784746
0.0184341978890534,19.961501952796
0.0173984759646758,19.9636346639799
0.0163801957984119,19.9657884644854
0.0153821017108894,19.9679710823614
0.0144066720002863,19.9701895323953
0.0134561294677637,19.9724504116122
0.012532452824985,19.9747601198719
0.0116373905730084,19.977125029106
0.0107724643295229,19.9795516538195
0.00993898358069683,19.9820467805983
0.0091380536359952,19.9846176123294
0.00835536463904699,19.9873266926792
0.00758595004381733,19.9902192744921
0.00683357784913062,19.9933170860184
0.00610214195839968,19.9966456309511
0.00543944820786625,20
