ecg,time
0.0207924274412398,15.0040764085477
0.0223280303079329,15.0078078367228
0.0238855367014485,15.011539264898
0.0252392678651028,15.0148981341733
0.026379842512433,15.018004951763
0.0273141348495104,15.0210196183972
0.0279842351720926,15.0238855211781
0.028387773507073,15.0266974042531
0.0285081506334223,15.0295914152272
0.0282788849351671,15.032796031019
0.0273776979346586,15.0371955108104
0.0265033677064372,15.0399847585391
0.025443660878723,15.0427740062678
0.0243694833809436,15.0452827466602
0.0232958403141387,15.0476179104421
0.0222213994352503,15.049858551959
0.0211483787811437,15.0520468078982
0.0200803177562545,15.0542082981422
0.0190209339743975,15.0563606192072
0.0179737800746728,15.0585169354258
0.0169421527119027,15.0606877368243
0.0159290683577258,15.0628818315114
0.0149372701251483,15.0651069395768
0.0139692360732734,15.067370092526
0.0130271891520405,15.0696779150655
0.012113111116906,15.0720368264438
0.0112287463154459,15.0744532231797
0.0103756127947858,15.0769336191014
0.00955501483018478,15.0794847653744
0.00876804266619972,15.0821138048992
0.00799952677046672,15.0848887536991
0.00724572139089533,15.0878525714533
0.00651039461506056,15.0910275835732
0.00579742963015412,15.0944399120324
0.00511089235226223,15.0981197707918
0.00445501198162851,15.1021022294078
0.00383412051187798,15.1064283356736
0.00325233579704797,15.1111468592956
0.00271343119775381,15.1163172415851
0.00222054793366425,15.1220153260113
0.00177603294990357,15.1283416144648
0.00138649494920877,15.135330200436
0.00106035735139714,15.1428731200218
0.000790907924851173,15.1510854198929
0.000571784359468565,15.1601211525274
0.000411173590941582,15.1698234468776
0.000314527281212921,15.1783408754961
0.000233039393700491,15.1883408754961
0.000176179105943935,15.1983408754961
0.000136721344616558,15.2083408754961
0.00010974357046097,15.2183408754961
9.16342239476725e-05,15.2283408754961
7.97420011069465e-05,15.2383408754961
7.21809303120854e-05,15.2483408754961
6.76492819642534e-05,15.2583408754961
6.52623857911622e-05,15.2683408754961
6.44200692470681e-05,15.2783408754961
6.47136392991234e-05,15.2883408754961
6.58647296651363e-05,15.2983408754961
6.76855001445195e-05,15.3083408754961
7.00520690725407e-05,15.3183408754961
7.28862376429514e-05,15.3283408754961
7.61427521518442e-05,15.3383408754961
7.98004911434534e-05,15.3483408754961
8.38565047034931e-05,15.3583408754961
8.83221282134157e-05,15.3683408754961
9.32206043163731e-05,15.3783408754961
9.85858187596402e-05,15.3883408754961
0.000104461893065649,15.3983408754961
0.000110903482042104,15.4083408754961
0.00011797670438588,15.4183408754961
0.000125760699857574,15.4283408754961
0.000134349866080794,15.4383408754961
0.000143856890335314,15.4483408754961
0.000154416765122692,15.4583408754961
0.000166192070769424,15.4683408754961
0.000179379937619773,15.4783408754961
0.000194221284887672,15.4883408754961
0.000211013204824702,15.4983408754961
0.00023012577077574,15.5083408754961
0.000252025180754293,15.5183408754961
0.000277306148480319,15.5283408754961
0.00030673807292385,15.5383408754961
0.000341332207222998,15.5483408754961
0.000382441646391357,15.5583408754961
0.000431914069485416,15.5683408754961
0.000490250908838916,15.5780236382599
0.000556288528256569,15.5869799984709
0.000630863431068347,15.5952489744654
0.000715060071500399,15.6028831955491
0.000810133088476707,15.609932116279
0.000917509339058786,15.6164416451372
0.00103880552873303,15.6224544255509
0.00117585190884665,15.6280100981247
0.00133072220038754,15.633145480851
0.00150576448317789,15.6378947455319
0.0017036400530189,15.6422896231189
0.00192736743506705,15.6463596226251
0.00218037802107622,15.6501322008521
0.00246657442125477,15.6536329020385
0.00279041166185808,15.6568855370795
0.00315699538147899,15.659912383328
0.00357220576423395,15.6627343443371
0.00404286325837657,15.6653711418734
0.00457695368289208,15.6678415622166
0.00518394215541884,15.6701637213891
0.00587523375437781,15.6723554253539
0.00664130869554052,15.674377869184
0.00748597704381568,15.6762493013931
0.00842110382110008,15.6780018417946
0.00946428439461256,15.6796676222915
0.0106438884021323,15.6812830699192
0.0120221237956777,15.6829100003896
0.0138042492304735,15.684722702113
0.0163875448653266,15.6869779070317
0.0180337691915994,15.6882774699527
0.0197493096322053,15.6895770328738
0.0213105414778442,15.6907540499269
0.0227133163471486,15.6918492309385
0.023971847768531,15.69291200929
0.0250783827175185,15.6939803763908
0.0260077274866847,15.6950950032483
0.0267107873163859,15.6963180453028
0.027076881485805,15.6977950221037
0.0268209040120807,15.6995998949316
0.0258995393735523,15.7014047677594
0.0247930369130682,15.7028538349706
0.0235419871427334,15.7042218700093
0.0221397490554023,15.7056125211577
0.0206060504426799,15.7070604152505
0.0190820016957625,15.7084788393766
0.0180542583152858,15.7094423922203
0.0170592851115444,15.7104059450639
0.0153455618741729,15.7121773526574
0.0133477273324432,15.7144679199918
0.0111770269779999,15.7173344094274
0.00949058430535336,15.7199493180485
0.00811033220478995,15.7224555297358
0.00693950157120102,15.7249521272938
0.00592821320172234,15.7275037815068
0.00505649010267333,15.7301354453146
0.0043100927115485,15.7328700884521
0.00367868006252144,15.7357316404035
0.00315546947690736,15.7387464407543
0.00273756232852884,15.7419446922879
0.00242710574277196,15.7453622015314
0.00223394091114873,15.7490426872441
0.00218046861198531,15.7528841891342
0.00226415456367798,15.7563084337897
0.00245752585370188,15.7593940472246
0.00274550669423266,15.7621837061562
0.00312146501360249,15.7647273174417
0.00358537334762986,15.767073596958
0.00414397977377863,15.769272334952
0.00481336226217194,15.7713787812332
0.0056241515160799,15.7734583309931
0.00663536859057692,15.7756018636704
0.00797675100617183,15.7779705073875
0.00980242396338598,15.7806666996075
0.0114685830192296,15.7827806427963
0.0133700886406763,15.784894585985
0.0152307107006248,15.7867057446261
0.0171004329779628,15.7883037207164
0.0190706098977189,15.7897794630146
0.0212131750721887,15.7911793446563
0.0235625328332845,15.792511770202
0.0261757344519696,15.7937931868618
0.0290872355895272,15.7950238410875
0.0323489237837332,15.7962099802313
0.0360053126204767,15.7973526502086
0.0401140277398051,15.798455577282
0.0447341560869003,15.7995208056154
0.0499378328730042,15.800551568204
0.0558062785773739,15.8015506792129
0.0624353712043523,15.8025212291913
0.0699393210816864,15.803466545145
0.0784540084287269,15.8043900345492
0.0881445829944424,15.8052954231077
0.0992131126423174,15.8061867310361
0.111910246967838,15.807068398337
0.126552229286946,15.8079454827732
0.14354540544505,15.808823906938
0.163425061303711,15.8097109103579
0.186924232416359,15.8106159883244
0.214469050425013,15.8115330586192
0.24635939951732,15.8124550175779
0.283429244085895,15.813392300577
0.326893821565949,15.8143633290399
0.367854276756874,15.8151938256547
0.411421706031364,15.8160243222695
0.44874099661954,15.8167207994469
0.480933967596254,15.8173351142443
0.509237936952595,15.8179117983116
0.533921783202683,15.8184777499188
0.554704601026659,15.819056171245
0.570742790878979,15.819676290554
0.580044857320625,15.8203927925509
0.57853166485189,15.8211470659931
0.564753747436912,15.8219350856352
0.537098616007701,15.8227776443775
0.496261410497155,15.8236364827141
0.44071579885589,15.8245377711042
0.373162333660601,15.8254401150845
0.326957777066387,15.8259894654747
0.277844403142218,15.8265388158649
0.234546944931728,15.8270080365683
0.197248465996242,15.8274107899207
0.164361802197697,15.8277722624811
0.134855049759023,15.8281082076377
0.108075636222777,15.8284290372766
0.0835455592707002,15.8287430584519
0.0608317724434809,15.8290588265263
0.0393815091455365,15.8293889246971
0.01791484644498,15.8297651552515
0.00859289173170512,15.8299487529599
8.83163405971151e-06,15.8301323506683
-0.00909015224437376,15.8303461986126
-0.0159542927905827,15.830524126429
-0.0220416829639982,15.8306970558088
-0.0282510567747704,15.8308919489323
-0.0343028144685306,15.831105033826
-0.0400119178906359,15.8313338349988
-0.0452740342644633,15.8315773574676
-0.0500335442287827,15.831835587219
-0.0542642551668751,15.8321092028845
-0.0579580513050922,15.8323994331136
-0.061117994769926,15.8327080032405
-0.0637508139681419,15.8330371415902
-0.0659566361016122,15.833409159441
-0.0675155096363522,15.8337865881124
-0.0685888984201667,15.8341946538027
-0.0691912767457419,15.834638916517
-0.0693322810858761,15.8351260984644
-0.069015863203274,15.835664890428
-0.0682357665998347,15.8362678261931
-0.0669701292422372,15.8369519860502
-0.0651726068793527,15.8377424395623
-0.0627465779239563,15.8386815309377
-0.0594549289227305,15.8398602851611
-0.0553131280779872,15.8412853496207
-0.0512660192233412,15.8426631636772
-0.0473748528879283,15.8440008199248
-0.0436721054922797,15.8453008615489
-0.0401755005576963,15.8465641793028
-0.0368945797228277,15.8477908340365
-0.0338334739884963,15.8489804898822
-0.030992286105453,15.8501326433178
-0.0283679381602155,15.8512467427851
-0.0259548042210059,15.8523222474878
-0.023745248063662,15.8533586504755
-0.0217301084078712,15.8543554793636
-0.0198991426527951,15.8553122820429
-0.0182414288721538,15.8562286014632
-0.0166676644464339,15.8571510686605
-0.015152342059894,15.8580972714303
-0.0136997455221241,15.8590689272447
-0.0123137475343963,15.8600682037825
-0.0109980079556931,15.861097650302
-0.00975591892264401,15.8621602937332
-0.00859054878025151,15.8632597644273
-0.0075045826206577,15.864400466201
-0.00650025873479972,15.8655878117912
-0.00557929948002913,15.86682855813
-0.0047428336803235,15.8681312999255
-0.00399130509909041,15.8695072262208
-0.00332435645398608,15.8709713394759
-0.00274066743007341,15.8725445491987
-0.00225744427549177,15.8741815236867
-0.00186854539519898,15.8758692113232
-0.0015578674260741,15.877626010771
-0.00131063476099691,15.8794744445575
-0.00111269987410664,15.8814449488528
-0.000949979228335634,15.8835813701392
-0.000807500967739252,15.8859527447603
-0.000667298194762636,15.8886836057193
-0.000501420361989373,15.892062842272
-0.000306911564035798,15.89581886572
-7.46074312419076e-05,15.8999203763197
0.000211445324335867,15.904603993035
0.000527048354768761,15.9095723822026
0.000841688794609096,15.9145003955091
0.00112487767537167,15.9189990308178
0.0013910784064388,15.9233192996213
0.00165626282501668,15.9277187147249
0.00194364152343196,15.9325824197549
0.00223161563754965,15.9375228505592
0.00251741095952773,15.9424556353549
0.0027872223398366,15.9471035117118
0.00302702270407709,15.9512012888668
0.00325655912100367,15.9550787775797
0.0034846278359383,15.9588729545096
0.0037164848163886,15.9626574064493
0.00395617376400176,15.9664815935793
0.00420735692192374,15.9703840610524
0.00447368197995028,15.9743976030782
0.00475906219894669,15.9785526449024
0.00506790356600156,15.9828792207946
0.00540534691592981,15.9874082728108
0.00577762014842876,15.9921728974384
0.00619260378832059,15.9972095841165
0.00663473891114051,16.0022681913879
0.00709949156565354,16.0072576818338
0.00759144875901704,16.0121885238824
0.00811382346271428,16.0170475734848
0.00867205686943726,16.0218367804981
0.00927248724266096,16.0265583154452
0.00992246364493769,16.0312150672217
0.0106343277404443,16.0358344796261
0.0114313042083412,16.0404880372046
0.0123291082517548,16.0451720376852
0.0133512666385981,16.0499056300932
0.0145311572374278,16.0547261297471
0.0159249679495973,16.059722254483
0.017656295549951,16.0651389310552
0.0200710935642012,16.0717038208258
0.0216741728645159,16.0756742832328
0.0233305263272285,16.0796447456397
0.0247740768664419,16.0831586911103
0.0259899717385434,16.0863366966436
0.0270000895389277,16.0893688691406
0.0277686188316717,16.0922834007415
0.0282706671367606,16.0951008679035
0.0284993189790191,16.0979459893517
0.0284125131650848,16.1009956183367
0.0278507746851748,16.1047074552133
0.0270322330994538,16.1078178929731
0.0259520110253704,16.110928330733
0.0248680718677582,16.1135855618328
0.0237937101247184,16.1159900230936
0.0227194571434278,16.1182678419382
0.0216453569571469,16.1204765435743
0.0205745194176359,16.1226479272801
0.0195106471582352,16.1248026860441
0.0184573886245583,16.1269557481901
0.0174181647448557,16.1291186865894
0.0163961211279837,16.1313009993922
0.0153941277078766,16.1335108498092
0.0144147825638465,16.1357555515043
0.0134604259443269,16.1380418874862
0.0125331509014116,16.1403763475244
0.0116348089718761,16.1427653238471
0.0107670233796622,16.1452152553823
0.00993119677112105,16.1477327661162
0.00912851629506827,16.1503248046358
0.00835447374529096,16.1530186361631
0.00759335896505799,16.1558923582401
0.00684899565798933,16.1589663478485
0.00612516687177317,16.1622650656551
0.00542585797628363,16.1658167432828
0.00475521692720181,16.1696540774796
0.00411757034535613,16.1738151736675
0.00351715443670793,16.1783449286275
0.00295792526844672,16.183297347759
0.00244335011723286,16.1887397907226
0.00197615662633652,16.1947600760873
0.00155827592275184,16.2014760885628
0.00120367542660895,16.2087504821223
0.000908845417968053,16.2166365835034
0.000667212624319074,16.2252697604978
0.000476925964504977,16.234828763575
0.000344357793170432,16.244828763575
0.000254708940595165,16.2547226011878
0.000191393451986648,16.2647226011878
0.000147270810933683,16.2747226011878
0.000116915458848261,16.2847226011878
9.64074357361423e-05,16.2947226011878
8.2840715707567e-05,16.3047226011878
7.4116241598702e-05,16.3147226011878
6.87699482918071e-05,16.3247226011878
6.58035377766395e-05,16.3347226011878
6.45407677010382e-05,16.3447226011878
6.45222010491012e-05,16.3547226011878
6.543487322453e-05,16.3647226011878
6.70667349740099e-05,16.3747226011878
6.92766711660019e-05,16.3847226011878
7.19741016780036e-05,16.3947226011878
7.51047942353763e-05,16.4047226011878
7.8640998164603e-05,16.4147226011878
8.25747075578905e-05,16.4247226011878
8.69132080675292e-05,16.4347226011878
9.16762855219845e-05,16.4447226011878
9.68946538651657e-05,16.4547226011878
0.000102609306551164,16.4647226011878
0.00010887160986915,16.4747226011878
0.000115744043783343,16.4847226011878
0.000123301564827994,16.4947226011878
0.000131633626030272,16.5047226011878
0.000140846949445352,16.5147226011878
0.000151069215940162,16.5247226011878
0.000162453923660043,16.5347226011878
0.000175186783474359,16.5447226011878
0.000189494184602958,16.5547226011878
0.000205654504268812,16.5647226011878
0.000224013395783041,16.5747226011878
0.000245004742461444,16.5847226011878
0.000269179832408693,16.5947226011878
0.00029724870302443,16.6047226011878
0.000330139900715718,16.6147226011878
0.000369088792184674,16.6247226011878
0.000415771361806928,16.6347226011878
0.000471949070419831,16.6446309939654
0.000535615923752458,16.653804497734
0.000607525532529129,16.66227418555
0.000688711240568395,16.6700935406864
0.000780378540210839,16.6773131362438
0.000883901751027602,16.6839799186512
0.00100083850621078,16.690137481692
0.00113295221043732,16.6958263425608
0.00128223997293209,16.7010841513419
0.00145096443961509,16.705945853049
0.00164168773452781,16.7104438881631
0.00185731657852552,16.714608410547
0.00210115221687745,16.7184674800887
0.0023769483769246,16.7220471976232
0.00268898557715813,16.725371873018
0.00304216135067545,16.7284642254448
0.00344210912472875,16.7313455531512
0.00389534686237779,16.7340359090051
0.00440948149191599,16.736554333092
0.00499349482558221,16.738919110971
0.00565814929483277,16.7411480946665
0.00640213293050354,16.7432223377878
0.00722202484344501,16.7451359582792
0.00812830320439431,16.7469210605991
0.0091365121604372,16.7486095246314
0.0102709009557219,16.7502357571047
0.0115745539365917,16.7518449653746
0.013203426833616,16.7535789738037
0.0156265478315513,16.7557850386471
0.0173176757710104,16.7571588803754
0.0191083459070189,16.7585327221036
0.0207430734773242,16.7597616917825
0.0222027385589542,16.7608810547804
0.0235154364145874,16.7619512755829
0.0246811629404687,16.7630132130715
0.0256813183541005,16.7641048827557
0.026477603403596,16.7652770631876
0.0269918826861501,16.7666288574877
0.0269665136271237,16.768534281893
0.02637068614338,16.7700578717179
0.0253677550029962,16.7715814615429
0.0242000919111221,16.7729610282264
0.0228757831547902,16.7743318669558
0.02140292536208,16.7757508617035
0.019878272848239,16.7771751376938
0.0183449766838979,16.7786061928759
0.0167718252739692,16.780131641316
0.0150851259062014,16.7818997914774
0.0129481760740971,16.7844008767808
0.0108523277223241,16.7872458877403
0.00924105771604057,16.7898129911639
0.00790983170490065,16.7922939860179
0.00676661776850382,16.7947969753023
0.00577892515846518,16.797359905291
0.00492820306995447,16.8000065545055
0.004200900632547,16.8027599228227
0.00358725322401086,16.805644233179
0.00308106268164161,16.808686343255
0.00268013682613414,16.8119172276831
0.00238762602884418,16.8153737889136
0.00221502965928032,16.8191012899593
0.00218525268243345,16.8228724659604
0.00228715763434536,16.8262419915068
0.00249562209888648,16.8292768410196
0.00279732381725183,16.8320257534699
0.00318657883573388,16.8345360054418
0.00366432061884359,16.8368562921478
0.00423844661380775,16.8390368432516
0.00492609715042246,16.8411321564183
0.00576168835725238,16.8432128220121
0.00681216869891218,16.8453782822467
0.0082222384665987,16.8478008773287
0.0101049384208312,16.8505098188901
0.0117397741260054,16.8525383114037
0.013597348005226,16.8545668039173
0.0154535749282832,16.8563454510389
0.0173271811564594,16.8579219446293
0.0193201445507299,16.8593909016305
0.0214839119066018,16.8607810195966
0.0238626355041407,16.8621069267475
0.0265088563308534,16.8633817268365
0.0294592391540904,16.8646065930764
0.0327653719494218,16.8657872865785
0.0364726438142089,16.8669249530787
0.0406390888827725,16.8680231762727
0.0453253792884097,16.8690841636091
0.0506040066738867,16.8701109485118
0.0565584830320618,16.8711065141026
0.0632859278732493,16.872073851557
0.0709032652969536,16.873016359884
0.0795496950976354,16.873937497914
0.0893938842479318,16.8748409770884
0.100643235120866,16.875730883721
0.113555344359246,16.8766117268934
0.128455566808001,16.8774886389668
0.145763357628285,16.8783676771959
0.166033214537361,16.879256287548
0.190029223158175,16.880164346325
0.218059848364529,16.881081588262
0.250523968704695,16.8820047444851
0.28828733492048,16.8829448646693
0.332638885618107,16.8839220071916
0.372561703500815,16.8847236568771
0.414784946369531,16.8855253065627
0.451522891055507,16.8862110995137
0.48336702899503,16.8868209809621
0.511375843816952,16.8873959073414
0.535759948614636,16.8879619910221
0.556198474029313,16.8885425474185
0.571788471820199,16.8891678483913
0.580375683007362,16.889896680649
0.577825653529547,16.890653046893
0.562898577616562,16.8914450839957
0.533915251478476,16.8922933583378
0.491878331598814,16.8931539115805
0.434921550871622,16.8940596996298
0.381670226223849,16.8947722608505
0.3219601480562,16.8954848220712
0.270518561396305,16.8960569656213
0.228021517404168,16.8965164647672
0.191525599053137,16.896911183922
0.159255594668914,16.8972675476258
0.130239563314701,16.8976003540753
0.103863553265044,16.8979195023228
0.0796651888057561,16.8982331769983
0.0572062810576921,16.8985502467312
0.0358828656645192,16.8988847378392
0.0140810143146555,16.8992770103862
-0.00022442466012399,16.8995756646124
-0.00782432664239961,16.8997531709431
-0.0147825202306162,16.8999306772738
-0.0208525429696174,16.9001000947985
-0.0270624118768417,16.9002910708902
-0.0331620409028397,16.9005009076623
-0.0389470668295291,16.9007268021595
-0.0443005934870262,16.9009675207693
-0.0491594624133676,16.9012228891563
-0.0534928903372992,16.9014934673989
-0.0572899256622847,16.9017803847928
-0.0605518809911563,16.9020852722027
-0.0632864606720802,16.9024102585126
-0.0656352653695271,16.9027843899339
-0.0672803429096989,16.9031569881829
-0.0684368925672876,16.9035593350869
-0.0691203385635194,16.903996866439
-0.069341075940214,16.9044760263546
-0.0691042254489506,16.9050051104042
-0.068405805673681,16.9055957994129
-0.0672269968059326,16.9062643432297
-0.0655268965072983,16.9070339557033
-0.0632209488058132,16.9079428198418
-0.0601109999829118,16.9090684388746
-0.05596036737206,16.9105030886772
-0.0518932256467565,16.9118875789523
-0.0479747842419152,16.91323129119
-0.044240930495726,16.9145371380144
-0.0407110973096506,16.9158061972482
-0.0373958642970681,16.9170386219919
-0.0343000960279069,16.9182341183942
-0.0314244616593072,16.9193921984715
-0.0287663366926555,16.9205123126291
-0.0263204576377564,16.9215939158061
-0.0240794705915712,16.9226364950045
-0.02203442327774,16.9236395728839
-0.020175215184829,16.9246026954708
-0.018491006198347,16.925525408465
-0.0169086415983776,16.9264442696607
-0.0153839228836438,16.927386689029
-0.0139213130889024,16.9283542533792
-0.0125247124653639,16.9293490786335
-0.0111978176451093,16.930373648944
-0.00994406597054479,16.9314309096266
-0.00876657992472886,16.9325243873711
-0.00766810822522497,16.9336583522566
-0.00665096298631983,16.9348380412043
-0.00571695159917934,16.9360699746826
-0.00486730071904819,16.9373624203508
-0.00410256742481095,16.9387260988961
-0.00342252806288619,16.9401753117073
-0.00282602559866972,16.941729856254
-0.00232638776510529,16.943360608617
-0.0019238486605011,16.9450391586374
-0.00160192538445914,16.9467838099653
-0.00134570705325512,16.9486161414487
-0.00114097910491875,16.9505650813503
-0.000973696543456697,16.9526718312985
-0.000829119508600284,16.9550002228512
-0.000689993481383148,16.9576624264206
-0.000530967255463222,16.9609051228257
-0.000339707710456287,16.964645625697
-0.000115224056791331,16.9686659105381
0.000165601341357585,16.9733081822164
0.000477218821247439,16.9782310042123
0.000797824125057882,16.98324873938
0.0010849010196249,16.9877963787758
0.00135262404008507,16.9921271063485
0.00161684898571137,16.9964968750741
0.00189866730515631,17.001253299425
0.0021883285794261,17.0062152007073
0.00247337619515816,17.0111327812677
0.00275143181133123,17.015927023747
0.00299393484507958,17.0200762056811
0.00322426109559824,17.0239741812369
0.00345217592098195,17.027774848064
0.00368323590583869,17.0315573121617
0.003921589242852,17.0353733440909
0.00417092474118151,17.0392626252265
0.00443487556789507,17.0432585528356
0.00471730185673162,17.0473917250746
0.00502252656548889,17.0516921485314
0.00535556850349844,17.0561905618307
0.00572247350253159,17.0609196797341
0.00613084302832201,17.0659154538215
0.00657093970092261,17.0709950304232
0.00703171062772695,17.0759879822009
0.00751978894295629,17.08092975304
0.00803748629836968,17.0857984957659
0.00859026821731203,17.09059762092
0.00918426877992985,17.0953285679266
0.00982672172508835,17.0999944066825
0.0105275388578011,17.1046086142069
0.0113116583641012,17.1092588200232
0.0121937345055531,17.1139373826991
0.01319639140786,17.1186623089906
0.0143510459426868,17.1234666857441
0.0157092089138541,17.1284285339256
0.0173786258681138,17.1337559230127
0.0197492652052096,17.1403151963231
0.0213960108531284,17.1444366189455
0.0231113618653185,17.1485580415678
0.0245933694983056,17.1521466305935
0.0258381316303939,17.1553576946308
0.0268760102626511,17.1584008961731
0.0276809913383221,17.1613377015508
0.0282187598125023,17.1641614868728
0.0284855045056577,17.1669945991045
0.0284458453101306,17.1700015618971
0.0279702182371451,17.1735637673248
0.0271692710299972,17.1768020941517
0.0260755993856834,17.1800404209785
0.0249862183257238,17.1827475227939
0.0239112105327098,17.1851722654971
0.0228370258121543,17.1874604513768
0.021762778291925,17.1896748765871
0.0206914049030894,17.1918491906422
0.0196265885746363,17.1940049593744
0.0185719967096447,17.1961575925205
0.0175310781145806,17.1983189553126
0.0165070092686561,17.2004987293895
0.01550269021808,17.2027051966356
0.0145207478101743,17.2049457466803
0.0135635509013055,17.2072272055566
0.0126332178974471,17.2095560881641
0.0117316264841256,17.2119387891222
0.0108604258307412,17.2143817315347
0.0100210405689361,17.2168915175722
0.00921468198898661,17.2194750512115
0.00843942625643193,17.2221501768929
0.00767668172473573,17.2250031375861
0.00693028481448094,17.2280538680358
0.00620399356435816,17.2313264540124
0.00550177325418922,17.2348486764579
0.00482775695120732,17.238652697917
0.00418625066568347,17.2427759707794
0.00358152016504112,17.247262552713
0.00301755816612766,17.2521652818554
0.00249790085938369,17.2575497408356
0.00202536487789218,17.2635010537109
0.00160196226558329,17.27013328591
0.00124026777500435,17.2773457034075
0.000939082724468557,17.2851573047102
0.000691807206255202,17.2936989023457
0.000495465613278816,17.3031436626399
0.000365382506537985,17.3124461843705
0.000268889395822788,17.3223761364239
0.000201164077929547,17.3323761364239
0.000153982397787148,17.3423761364239
0.000121484410086627,17.3523761364239
9.94738277709648e-05,17.3623761364239
8.48551007053643e-05,17.3723761364239
7.5393708782401e-05,17.3823761364239
6.95286547133784e-05,17.3923761364239
6.61934323066383e-05,17.4023761364239
6.46645487075966e-05,17.4123761364239
6.44500300718321e-05,17.4223761364239
6.52144297591063e-05,17.4323761364239
6.67300302175557e-05,17.4423761364239
6.88446890552781e-05,17.4523761364239
7.14599857005329e-05,17.4623761364239
7.45160413131381e-05,17.4723761364239
7.7980958779243e-05,17.4823761364239
8.18435933505101e-05,17.4923761364239
8.61087461715047e-05,17.5023761364239
9.07941162719315e-05,17.5123761364239
9.59285374695445e-05,17.5223761364239
0.000101551181190817,17.5323761364239
0.000107711526257439,17.542376136424
0.000114469987653992,17.552376136424
0.000121899167461967,17.562376136424
0.00013008575232626,17.572376136424
0.000139133141798341,17.582376136424
0.000149164958844156,17.592376136424
0.000160329676667773,17.602376136424
0.000172806706393406,17.612376136424
0.000186814444800989,17.622376136424
0.000202621005794193,17.632376136424
0.000220558694154715,17.642376136424
0.000241043791652162,17.652376136424
0.000264604024864322,17.662376136424
0.000291917362544177,17.672376136424
0.000323867887107179,17.682376136424
0.000361628018747067,17.692376136424
0.000406782509789787,17.702376136424
0.000461520657915108,17.712376136424
0.000523821848235191,17.7216779274003
0.000594208843027041,17.7302677158198
0.000673676650992341,17.7381979208525
0.000763401418685906,17.7455197230004
0.000864727167379754,17.7522806894019
0.000979177702922118,17.7585249830736
0.0011084783120871,17.7642936451356
0.00125458248868769,17.7696248208227
0.00141970403500947,17.7745539176995
0.00160634888095185,17.7791138023032
0.00181736016714926,17.7833350155963
0.00205596493316581,17.7872459765483
0.00232583284839475,17.7908731200402
0.00263114540926529,17.7942410578119
0.00297668328096071,17.7973727753771
0.00336794111548163,17.8002898102167
0.00381126751353388,17.8030124195335
0.00431405931111356,17.805559803205
0.00488503133890297,17.8079503597799
0.0055345943846161,17.8102019884868
0.00626605057789143,17.8123078879053
0.00707197298074136,17.8142474558951
0.00796210610639922,17.8160528444213
0.00895096279920916,17.8177559450625
0.0100607962324881,17.8193903187589
0.0113300655544836,17.8209982446306
0.0128855822220715,17.8226977103724
0.0150810066652716,17.8247551967771
0.0168395175636445,17.8262177940414
0.0187248290924142,17.8276803913057
0.0204122517898812,17.8289502144813
0.0219060899643881,17.8300871743354
0.0232491935898604,17.8311640288736
0.024447063040726,17.8322246633084
0.0254847226136418,17.8333065088974
0.0263288063553781,17.8344559337129
0.0269133557252322,17.8357557866989
0.0270560455401892,17.8374609526381
0.0265604393555961,17.8391170716808
0.0255529575523239,17.8407731907235
0.0244013149598522,17.8421766899935
0.0231006856230363,17.8435454417187
0.0216509547600617,17.8449540633043
0.0201241094030739,17.8463842546382
0.0185952959911071,17.8478089296965
0.0170303989656865,17.849311745851
0.0157858735552827,17.8505843003568
0.0138133868872813,17.8527855714009
0.0115379977053454,17.8557009017575
0.00973194406731503,17.8584255245455
0.00830001330043218,17.8609633401789
0.00710280852753192,17.8634549290449
0.00606923541926316,17.8659966693485
0.00517775512241985,17.8686149559838
0.00441345721731073,17.871332778772
0.00376545962350542,17.8741738272765
0.00322644503070887,17.8771639937208
0.00279288805662123,17.8803328049155
0.00246606608174989,17.8837151038963
0.00225441363149715,17.8873532523676
0.00217867430291413,17.8912589882341
0.00224550284242328,17.894733502385
0.00242476575837449,17.8978620333966
0.00270020827513262,17.9006894396605
0.00306414492365,17.9032641770549
0.00351564870821907,17.905634815746
0.00406048343437269,17.9078509769076
0.00471264065295936,17.9099651571587
0.00549996618463391,17.9120410422221
0.00647765181248111,17.914168298315
0.00776003314419452,17.9164911508311
0.00953397513484553,17.9191746627266
0.0116829979556759,17.9219100954867
0.0136962475665784,17.9241057660155
0.0155435877103919,17.9258640032221
0.0174396711502836,17.9274482575556
0.0194356329716949,17.9289080747661
0.0216122990088171,17.9302954978829
0.0240074847183718,17.9316196119562
0.0266682007924342,17.932890590775
0.0296394366375859,17.934113576647
0.0329659416359504,17.9352912825197
0.0366988211567114,17.9364268829253
0.040893259748702,17.9375228777604
0.0456115916973075,17.9385818456378
0.0509270296583351,17.939606831662
0.0569225190733068,17.9406005976098
0.0636978800052256,17.9415664478905
0.0713703541016112,17.942507644412
0.0800804679311096,17.9434276468631
0.0899993617104722,17.9443302413172
0.101336679177316,17.9452195050718
0.11435323738106,17.946099969677
0.129379273254388,17.9469768318864
0.146840532747585,17.947856202492
0.167301005703025,17.9487456288576
0.191540539497627,17.9496551880139
0.219807967980627,17.950572549657
0.252552148897199,17.95149633522
0.2906550570831,17.9524379132941
0.335444487827071,17.9534182108708
0.374899989962599,17.9542068637191
0.416516667648684,17.9549955165674
0.452970525526021,17.9556761705707
0.484635247756233,17.956283847442
0.512489588583537,17.9568579170148
0.536715462563938,17.9574241289944
0.556970931653031,17.9580058820099
0.572320471297475,17.9586340428665
0.580516714196494,17.9593697740526
0.577409234988655,17.9601273259959
0.561862353502878,17.9609215771229
0.532161012431178,17.9617729625209
0.489468240256882,17.9626346511094
0.431758980421126,17.9635427100891
0.378879587235448,17.9642450934825
0.319784588427087,17.964947476876
0.268801798904135,17.9655135258357
0.226581290025058,17.9659698392789
0.19026673684192,17.9663627678019
0.15813105117981,17.9667180423436
0.129222027449252,17.9670501865359
0.102934121134885,17.9673689907079
0.0788080204030184,17.9676826201781
0.0564037983115509,17.9680000271357
0.0351040567074876,17.9683356102656
0.0132003810779987,17.9687321422343
-2.43210871632832e-05,17.9690090529503
-0.00765061898664107,17.9691867995884
-0.0146327994995333,17.9693645462264
-0.0207210365100316,17.969534121076
-0.0269308174194511,17.9697246710668
-0.0330353014368702,17.9699341437013
-0.0388284583482161,17.9701597148219
-0.0441919419589491,17.9704001237043
-0.0490617157826527,17.9706551776266
-0.0534064627184335,17.9709254232282
-0.0572149029602015,17.9712119788066
-0.0604881437358478,17.9715164647036
-0.0632339272165214,17.9718409988982
-0.0655941523128572,17.9722144901297
-0.067249944666251,17.9725864836268
-0.0684168852493457,17.9729881288295
-0.0691104549940274,17.9734248352883
-0.0693411387453928,17.9739030134134
-0.0691141970467144,17.9744309112766
-0.068425917998621,17.9750201072515
-0.0672578459499321,17.9756867538066
-0.0655697135560274,17.976453848453
-0.0632783375300592,17.9773591012588
-0.0601897692982245,17.9784785565886
-0.0560382068149137,17.979914418248
-0.051968767806978,17.9812997177869
-0.0480471063690962,17.982644160393
-0.0443095489478853,17.9839507049889
-0.0407757441168752,17.9852204531019
-0.0374564005039033,17.986453569574
-0.0343564728838941,17.9876497659483
-0.0314766998131946,17.9888085562878
-0.0288145121258099,17.9899293913205
-0.0263646908419858,17.9910117255061
-0.024119916715101,17.9920550451179
-0.0220712632347286,17.9930588721946
-0.020208647621901,17.9940227524959
-0.0185212401819045,17.9949462319944
-0.0169378442667903,17.9958646602919
-0.0154119976503947,17.9968066257819
-0.0139481851900434,17.9977736995482
-0.0125503103793093,17.9987679913795
-0.0112220742074658,17.9997919777157
-0.00996691938508239,18.0008485942151
-0.00878797483582693,18.0019413553164
-0.00768799685817845,18.0030745153165
-0.00666930636886086,18.0042532904262
-0.00573372090183332,18.0054841733203
-0.00488247878133702,18.0067753933213
-0.0041161505860298,18.0081376164015
-0.00343452854779399,18.0095850624063
-0.00283647496760105,18.0111374002125
-0.00233483548884362,18.012767430008
-0.00193063184236092,18.0144449103673
-0.00160733340692384,18.0161881382721
-0.0013500124505281,18.0180185834272
-0.0011444454824936,18.0199650010385
-0.000976590742204491,18.0220682916477
-0.000831733379803584,18.0243917016822
-0.000692696296533158,18.0270460414949
-0.000534400626729795,18.0302735600164
-0.000343477103197626,18.0340127637096
-0.000119871781773094,18.0380240605475
0.000160338122973974,18.0426615794947
0.000471480972559793,18.0475791667188
0.000792793222979268,18.0526077009173
0.00108033690657103,18.0571613265244
0.00134825383228993,18.0614935757186
0.00161239708336932,18.0658604236965
0.0018936526940261,18.070605843119
0.00218353591161859,18.0755706546346
0.00246852889718536,18.0804869808142
0.00274758418284761,18.0852989036585
0.00299040238737159,18.0894539998167
0.00322082327706371,18.0933543139732
0.00344872805493845,18.0971557575568
0.00367970817296017,18.1009380699271
0.00391792392957323,18.1047532822565
0.00416706731478652,18.1086412012939
0.00443077037830515,18.1126352938843
0.00471288784598798,18.1167661784922
0.00501773412321299,18.1210638603249
0.00535031544296966,18.1255590579435
0.00571665892067203,18.1302844471789
0.00612433734683643,18.1352759232823
0.00656421865689081,18.1403576936608
0.00702457022838096,18.1453509795979
0.00751224203329299,18.1502938953912
0.00802945004313368,18.1551636588019
0.00858166231306852,18.159963835092
0.00917499107914022,18.1646957819132
0.00981665744872866,18.1693625843055
0.0105163206223191,18.1739762446479
0.011299098225515,18.1786261059992
0.012179534293787,18.183304110322
0.0131801622160509,18.1880281576902
0.0143322030663645,18.1928309163038
0.015686710275229,18.1977893642426
0.0173499368313494,18.203108102151
0.0197010304254252,18.2096281858652
0.02135490587952,18.2137743263171
0.0230797970357515,18.2179204667691
0.0245675418403216,18.2215205562356
0.0258164322003255,18.2247366130084
0.0268582151253057,18.2277815734456
0.0276683377162708,18.2307217069726
0.0282111119223506,18.2335465597262
0.0284831491851354,18.2363782150777
0.0284499388380797,18.2393796751369
0.0279854701307706,18.2429233679067
0.027186932377615,18.2461802314106
0.0260911176458182,18.2494370949144
0.0250008954933229,18.2521510481694
0.0239257829388098,18.2545784453952
0.0228516054287935,18.2568679642342
0.0217773418351553,18.2590831240972
0.0207059047167029,18.2612578176028
0.0196409740284451,18.2634137231086
0.0185862193738539,18.2655663119958
0.01754509297446,18.2677274867771
0.0165207751340777,18.2699069524376
0.0155161696246267,18.2721130059865
0.0145339069001967,18.2743530466617
0.0135763593320281,18.2766339061149
0.0126456485128817,18.2789621024243
0.0117436553714087,18.2813440306433
0.0108720322984006,18.2837861120326
0.0100322066311048,18.28629494624
0.00922539268991298,18.2888774317379
0.00844998861531332,18.2915502509322
0.00768704423780842,18.2944006521275
0.00694039754517901,18.2974485157434
0.00621380344578937,18.3007178815535
0.00551122474190569,18.304236474937
0.00483679256537712,18.3080363930346
0.00419481030117824,18.3121550083064
0.00358954718197808,18.3166362762158
0.00302500029216627,18.3215328931127
0.00250471413172169,18.3269102270456
0.00203151632195092,18.3328530756375
0.00160742912976394,18.3394750390895
0.00124485007270442,18.3466798776657
0.000942872516453535,18.3544823718218
0.000694893168482199,18.3630127829912
0.000497794103711195,18.3724436036388
0.000368364886882053,18.3816352613077
0.000270802985817074,18.3915815728423
0.00020248473251169,18.4015815728423
0.000154890869891401,18.4115815728423
0.000122103548196504,18.4215815728423
9.98898858031631e-05,18.4315815728423
8.5129032392432e-05,18.4415815728423
7.55681947990795e-05,18.4515815728423
6.9633226752239e-05,18.4615815728423
6.62483652421355e-05,18.4715815728423
6.46837197157888e-05,18.4815815728423
6.44429225420798e-05,18.4915815728423
6.51874960391887e-05,18.5015815728423
6.66876113163352e-05,18.5115815728423
6.87896401470584e-05,18.5215815728423
7.13941059889455e-05,18.5315815728423
7.44403705269228e-05,18.5415815728423
7.78959803427529e-05,18.5515815728423
8.17493711850968e-05,18.5615815728423
8.60050138893825e-05,18.5715815728423
9.06803318574181e-05,18.5815815728423
9.58039123727831e-05,18.5915815728423
0.000101414689640192,18.6015815728423
0.000107561898252626,18.6115815728423
0.000114305687290885,18.6215815728423
0.00012171835674291,18.6315815728423
0.000129886239227682,18.6415815728423
0.000138912309921885,18.6515815728423
0.000148919674277046,18.6615815728423
0.000160056165492613,18.6715815728423
0.000172500393298826,18.6815815728423
0.000186469738980752,18.6915815728423
0.000202231014049637,18.7015815728423
0.000220114831653435,18.7115815728423
0.000240535246193565,18.7215815728423
0.000264017007448479,18.7315815728423
0.000291234039761052,18.7415815728423
0.000323064829000737,18.7515815728423
0.000360673890188957,18.7615815728423
0.00040563454727762,18.7715815728423
0.000460119133917563,18.7815815728423
0.00052223250143198,18.7909005178858
0.000592413540580593,18.7995068100068
0.000671649575881536,18.8074522653403
0.000761112464859618,18.8147881298412
0.00086214201101669,18.8215620555853
0.000976257420043391,18.8278182839566
0.00110517883079719,18.8335979281678
0.00125085387756464,18.8389392013181
0.00141548975947193,18.8438775745785
0.00160158487347649,18.8484459731737
0.00181197377634511,18.8526749913855
0.00204987352123447,18.8565930974793
0.00231894248438986,18.8602267723242
0.00262334884129538,18.8636006693392
0.00296785761184237,18.8667378108142
0.00335794483287683,18.8696597672818
0.00379993645250688,18.8723868243704
0.00430120130864256,18.8749382043762
0.00487041869610507,18.8773323219945
0.0055179527883208,18.8795870839683
0.00624772382341257,18.8816973747941
0.00705177133671328,18.8836405506904
0.00793974383319191,18.8854487729778
0.00892602202412927,18.8871539430473
0.0100326070229072,18.888789523032
0.011297386567187,18.8903974384089
0.0128435708664038,18.8920926828634
0.0150131501727281,18.8941337952398
0.0167815450259641,18.8956091772728
0.0186805442832463,18.8970845593058
0.0203746539728605,18.8983597085393
0.0218724613301968,18.899498854449
0.0232189778573463,18.9005765678277
0.0244204017915095,18.9016371582691
0.0254621668251289,18.9027180313695
0.026311422103747,18.9038651317351
0.02690339115506,18.9051597784287
0.0270618198206338,18.9068473778305
0.0265811744847406,18.9085100303342
0.0255810140507969,18.910172682838
0.0244336464110741,18.9115782755887
0.0231371306252763,18.9129466038252
0.0216912486324756,18.9143535945826
0.0201639663913318,18.915784941913
0.0186357528002327,18.9172087858475
0.0170719777128989,18.9187082316215
0.0158670599899773,18.9199364992518
0.0139135198061021,18.9221051519506
0.0116166265817793,18.9250293856444
0.00978667998308716,18.9277737107814
0.00834315930426488,18.9303183105237
0.00713995751649431,18.9328088571445
0.006101328400074,18.9353484514929
0.00520537363871677,18.937963814077
0.00443702863507655,18.9406779444688
0.00378528884453539,18.9435144827972
0.00324271786804086,18.9464992254486
0.00280565262497696,18.9496615529975
0.00247518226884377,18.9530360994612
0.00225944107488876,18.9566649321464
0.00217864948326948,18.9605851330652
0.00224168864031092,18.9640708821155
0.00241783015037768,18.9672094321737
0.00269050328844285,18.9700453081397
0.0030517947523683,18.9726269981686
0.00350059200863192,18.9750031403291
0.00404243428239422,18.9772232529899
0.00469101952608018,18.9793397025165
0.00547360097613218,18.9814155790484
0.00644422790367868,18.9835395066294
0.00771456122303532,18.9858532735718
0.00947749837993,18.9885339968071
0.0116165816520806,18.991269980627
0.0132048818635631,18.9930361592083
0.0149942468800365,18.9948023377895
0.0168600947144292,18.9964235584375
0.0188091172404962,18.9979084716542
0.0209310432251911,18.9993196059446
0.0232521238326633,19.0006600802225
0.0258298594059419,19.0019477903205
0.0287014795839217,19.0031847227838
0.0319160413571152,19.0043762361427
0.0355198175982994,19.0055242793112
0.0395685102621019,19.0066321727346
0.0441204280995207,19.0077020083671
0.049246464248667,19.0087370154148
0.055025694109551,19.0097398927213
0.0615529643182944,19.0107138805129
0.0689396037088867,19.0116622100922
0.0773182249056362,19.0125882485175
0.0868501621444745,19.0134957128783
0.097732155465099,19.0143885678647
0.110207818129266,19.0152711847463
0.124584135804355,19.0161485445115
0.141254261867249,19.0170264362217
0.160734229335254,19.0179118937616
0.183726585267212,19.0188140488066
0.210772129142299,19.019731052902
0.242073831585827,19.0206519180254
0.278434937599034,19.0215865006994
0.321002460736269,19.022551723258
0.371850760612432,19.0235854466524
0.407765328019138,19.0242695499871
0.444421498391911,19.0249536533219
0.477088715681057,19.0255738559247
0.505853843447913,19.026153580779
0.531001540616509,19.0267196250715
0.55231081756129,19.0272950849085
0.56902440728964,19.0279077709176
0.579372471479051,19.028606900283
0.579418438907189,19.0293583192584
0.567359655488742,19.0301405580955
0.541683752202632,19.0309747115539
0.50259885890106,19.0318320595402
0.449179550032191,19.0327261910481
0.382450431612694,19.0336379866842
0.335249818039379,19.0342074357891
0.284738830170518,19.0347768848939
0.240319261772867,19.035259555988
0.202260815045897,19.0356701375611
0.168820288744418,19.0360363567876
0.138878040233637,19.0363752210359
0.111741903321525,19.0366976728539
0.0869176776338164,19.0370121739394
0.0639735102354134,19.0373270841026
0.0423906134398587,19.037653996938
0.02109171108078,19.0380194852954
0.00489010236488273,19.0383397617941
-0.00342001779240894,19.0385240600768
-0.0110212985401188,19.0387083583596
-0.0175700462869181,19.0388822139687
-0.0237278910607942,19.0390616558892
-0.0299192726883619,19.0392618489782
-0.0358922083347584,19.0394793722325
-0.0414877844573388,19.0397122198889
-0.0466174556862475,19.0399597035083
-0.0512350829686615,19.0402220181685
-0.0553202707349902,19.0405000015241
-0.0588684873236663,19.0407950193776
-0.0618849945801973,19.0411089307497
-0.0643743687961851,19.0414441082108
-0.0663586709287656,19.04180717176
-0.0678041694314591,19.0421911008647
-0.068768367551276,19.0426069606871
-0.0692641546487831,19.0430604206254
-0.0693000668791179,19.0435585946692
-0.0688783749783073,19.0441107369154
-0.0679894924204404,19.0447305991442
-0.0666071647334731,19.0454365081664
-0.0646767732109176,19.0462563606851
-0.0620822760242138,19.0472392099363
-0.0585157323432557,19.0485006804464
-0.0543895389503165,19.0499133738922
-0.0503736135929024,19.0512817966676
-0.046522809773319,19.0526108416419
-0.0428653609586404,19.0539025744089
-0.039416778472535,19.0551576466984
-0.0361852171325183,19.0563760025536
-0.0331738080592716,19.0575572539332
-0.0303818746110353,19.0587008791527
-0.0278057142720652,19.0598063257534
-0.0254392035722571,19.0608730596664
-0.0232743217508553,19.0619005823988
-0.0213016265411124,19.0628884278937
-0.0195106887279826,19.0638361455167
-0.0178904843098361,19.064743272727
-0.0163290651719193,19.0656709082534
-0.0148272037684443,19.0666225418885
-0.0133889347882025,19.0676000773804
-0.012018089772864,19.0686057586879
-0.0107182743341867,19.0696422311214
-0.00949281430068215,19.0707126422959
-0.00834469892964094,19.0718207762707
-0.0072765206301195,19.0729712358209
-0.00629041034975902,19.0741696962804
-0.00538796689483428,19.0754232694746
-0.0045701768570608,19.0767410439033
-0.00383731886231055,19.0781349210985
-0.00318883990111389,19.0796209804557
-0.00262317819861886,19.0812218621108
-0.00216268964261237,19.0828683991381
-0.00179264849318404,19.0845699132549
-0.00149744249113161,19.0863450636012
-0.00126247344104569,19.0882178421367
-0.00107366594610076,19.0902210723427
-0.000916842189137281,19.0924028660739
-0.00077661485218722,19.0948408991174
-0.00063374535594064,19.0976812955797
-0.000455174882649686,19.1012956377378
-0.000254525948717548,19.1050895925293
-9.16221943575175e-06,19.1093317683365
0.000284721323266282,19.114081314398
0.000606161954094404,19.1191224871278
0.000911987090581553,19.1239226250569
0.00118964004168309,19.1283546846103
0.00145407528198942,19.1326693488163
0.00172184149648013,19.1371339141592
0.00202120920729212,19.142222940362
0.00230754303012421,19.1471456196276
0.00259575448278189,19.1521218408808
0.00285396526414195,19.1565611550179
0.00308969987748352,19.1605784277214
0.00331818947121113,19.1644237017685
0.00354683817816771,19.1682093590034
0.00378044252990238,19.1720002949435
0.00402288813670713,19.1758421831869
0.00427780470713218,19.1797716395395
0.00454888541200411,19.1838205235934
0.00484015638400449,19.1880190183603
0.00515619562627845,19.192397282527
0.00550239714262805,19.1969867223883
0.00588536869266022,19.2018212372515
0.00631357366395657,19.2069383776671
0.00675968653964497,19.2119553073426
0.0072322500899056,19.2169365521401
0.00773193471588099,19.2218458811939
0.00826365317341162,19.2266860073747
0.00883280704882683,19.2314561601422
0.00944610863995965,19.2361596423328
0.0101111202732078,19.2407988959671
0.0108451143444654,19.2454285598954
0.0116679082216809,19.2500891336777
0.0125973801259125,19.2547845797658
0.0136590657666913,19.2595370183019
0.0148908001504763,19.2643935645496
0.0163600469780467,19.2694688882555
0.018233291499257,19.2751077526889
0.0206524355286769,19.2814815360926
0.0222001272873776,19.285254285699
0.0237756444040757,19.2890270353054
0.0251467517662671,19.2924137759951
0.0263025177346279,19.2955332396386
0.0272524578375705,19.2985500598288
0.0279427225410377,19.3014245612814
0.0283666922762941,19.3042361704968
0.0285099453306772,19.3071180197942
0.0283119924260611,19.310285224385
0.0275004879441183,19.3144902945614
0.0266390519049391,19.3173438029953
0.0255770341683105,19.3201973114292
0.024501475487262,19.322738650957
0.0234278244183581,19.3250900545959
0.0223533985914815,19.3273395931611
0.0212800169511593,19.3295327072013
0.0202111399746651,19.3316964407575
0.0191504898475045,19.3338491280108
0.0181016467411139,19.3360043611116
0.0170679407848703,19.3381728949667
0.0160524225914456,19.3403637072988
0.0150578685767857,19.3425846271485
0.0140867885600533,19.3448427543098
0.0131414361608923,19.3471447513515
0.0122238226040492,19.3494970521776
0.01133572040602,19.3519060492132
0.0104786750775825,19.3543782342925
0.00965401714753881,19.3569203211799
0.00886286209550492,19.3595393993281
0.00809281999242734,19.3622925511664
0.00733701311667557,19.3652321494516
0.00659922475482721,19.3683799905429
0.00588331226599967,19.3717617454594
0.00519332123559661,19.3754070899816
0.00453345620028835,19.3793504466168
0.00390806178029175,19.3836320535667
0.00332128564194134,19.3882995995909
0.002776953822318,19.3934110025896
0.00227829899080503,19.3990396981434
0.00182776854992417,19.4052826252405
0.00143007496041316,19.4122109771208
0.00109662644541315,19.4196816829297
0.000820675523134234,19.4278057272534
0.000595790395128311,19.4367322877954
0.000423180632259665,19.4466648210816
0.000326972276340767,19.4548172617303
0.000241768895323285,19.4648172617303
0.00018233374930944,19.4748172617303
0.000140993564205598,19.4848172617303
0.000112643803726963,19.4948172617303
9.35589580239705e-05,19.5048172617303
8.09868983918791e-05,19.5148172617303
7.29544018469775e-05,19.5248172617303
6.80928520810364e-05,19.5348172617303
6.54710429372378e-05,19.5448172617303
6.44579313893694e-05,19.5548172617303
6.46243620187532e-05,19.5648172617303
6.56780344384727e-05,19.5748172617303
6.74213351269139e-05,19.5848172617303
6.97234024691202e-05,19.5948172617303
7.25010103479888e-05,19.6048172617303
7.57052529071616e-05,19.6148172617303
7.93123069182954e-05,19.6248172617303
8.33171555572672e-05,19.6348172617304
8.77294709982558e-05,19.6448172617304
9.25710677678622e-05,19.6548172617304
9.7874512830991e-05,19.6648172617304
0.000103682619312371,19.6748172617304
0.000110048659672083,19.6848172617304
0.000117037217251627,19.6948172617304
0.000124725661833917,19.7048172617304
0.000133206294714307,19.7148172617304
0.000142589270289328,19.7248172617304
0.0001530064726493,19.7348172617304
0.000164616616791833,19.7448172617304
0.000177611967961184,19.7548172617304
0.000192227248621237,19.7648172617304
0.000208751560714955,19.7748172617304
0.000227544539310494,19.7848172617304
0.000249058551909672,19.7948172617304
0.000273869700086019,19.8048172617304
0.000302721900653469,19.8148172617304
0.000336590840931316,19.8248172617304
0.000376778889967807,19.8348172617304
0.00042505958230524,19.8448172617304
0.000482479410911455,19.8545941752427
0.000547510294298064,19.8636411413702
0.000620953220631873,19.8719938638582
0.00070387105019767,19.8797053286554
0.000797497604033947,19.8868254570035
0.000903237386175407,19.8934005901623
0.0010226820145053,19.8994737679752
0.0011576333365834,19.905084997443
0.0013101325397766,19.9102714441407
0.00148249140295193,19.9150676025659
0.00167732908305372,19.9195054994201
0.0018976164948323,19.923614912563
0.00214672978672061,19.9274235509093
0.00242850807562538,19.9309571906824
0.00274733210171736,19.9342398500498
0.00310821870434907,19.9372939903971
0.00351694263741223,19.9401406790781
0.00398019500073427,19.9427997742859
0.00450579906785402,19.9452901661891
0.005103012197034,19.9476300383628
0.00578296230526337,19.9498372105911
0.00653963346964497,19.9518810993844
0.00737373214075416,19.9537699522126
0.00829651762564321,19.9555358663939
0.00932467324794639,19.9572108227985
0.0104847121711339,19.9588302998558
0.0118264845211732,19.9604445432702
0.0135383869364409,19.9622202716152
0.0160921757434221,19.9644874490015
0.0177559656282827,19.9658146026946
0.0195005012399379,19.9671417563876
0.0210893210476863,19.9683374359536
0.0225141698542569,19.9694412324556
0.0237941686102224,19.9705063090632
0.0249244396464613,19.9715714952674
0.0258824494740858,19.9726761555586
0.026623749566323,19.9738773087885
0.0270527271266849,19.9752985702268
0.0267788666488611,19.9774797794996
0.026046002554108,19.9789313284501
0.0249802484858581,19.9803828774006
0.0237569272246138,19.9817502585396
0.0223792175427283,19.9831332023201
0.0208565385273881,19.984578322392
0.0193332221226519,19.9859965089693
0.0182707837228681,19.9869899998159
0.0172364496986629,19.9879834906625
0.0155839670252784,19.9896736883723
0.0136566621051008,19.9918471601658
0.0114227914877687,19.9947374396112
0.00969065791266068,19.9973687198056
0.00821653384990345,20
