ecg,time
0.146144211019837,15.0004805188805
0.167181438777862,15.0013997349048
0.192037302242754,15.0023378511806
0.220806443997505,15.0032791282815
0.254219258507086,15.0042329828945
0.293271534853844,15.0052140005863
0.339570594139755,15.006250651162
0.376683296662284,15.0070183968233
0.415266294866297,15.0077861424846
0.449470292891425,15.008465514207
0.479388244070796,15.0090836985153
0.505619464995214,15.0096739092428
0.528170408882127,15.0102603783466
0.54656500036389,15.0108669782736
0.559671523077221,15.01152699248
0.564769275681933,15.0122882146238
0.55844600932082,15.0130666738155
0.539559437867272,15.0138831940882
0.506312896362499,15.0147557397368
0.457826989138611,15.0156726144384
0.395216591764166,15.0166061764402
0.347435838640982,15.0172206604564
0.295378972300606,15.0178351444726
0.249622083403634,15.0183487425938
0.210703763284628,15.0187784514787
0.176673544473354,15.0191572447269
0.14628619936824,15.0195047698734
0.118797602192217,15.0198331101727
0.0936981159619106,15.0201510986434
0.0705690442675263,15.0204667963229
0.0489601859620137,15.0207901406014
0.0281100616132698,15.021139982446
0.00491575842391454,15.0215964432001
-0.00340692079424872,15.0217858206791
-0.0110043248493572,15.0219751981581
-0.0174347029424929,15.0221509509957
-0.0235506311584452,15.0223346666968
-0.0296656250265336,15.0225388817541
-0.0355403889682553,15.0227602837612
-0.041026282017983,15.0229970025463
-0.0460410593520476,15.0232484478226
-0.0505423779513447,15.0235148901202
-0.0545120995418757,15.0237972314678
-0.0579469831197661,15.0240968987688
-0.0608484350940195,15.0244158142208
-0.0632879097602135,15.0247682279668
-0.0651081718559326,15.0251312353408
-0.0664348241893732,15.0255223173274
-0.0672829590798699,15.0259462476973
-0.0676642139968776,15.0264088022734
-0.0675859494395534,15.0269173366928
-0.0670487849658697,15.027481540197
-0.0660405159090948,15.028115777504
-0.064531748667418,15.0288391454996
-0.0624623508682798,15.0296811982552
-0.0597036791726487,15.0306950258249
-0.0558988126989673,15.0320124933746
-0.0517468202990752,15.0334141315712
-0.0477272619556385,15.0347722873951
-0.0438883745776171,15.0360910483443
-0.0402543500475943,15.0373722917428
-0.036838025878429,15.0386165952499
-0.0336454770904919,15.0398238863177
-0.0306780805323436,15.0409937889792
-0.0279336395001178,15.042125806673
-0.0254071355249927,15.0432194162356
-0.0230913225096886,15.0442741115922
-0.0209772437329825,15.0452894172436
-0.0190546986884669,15.0462648823934
-0.0173126655580169,15.0472000617273
-0.0157098364977881,15.0481119785567
-0.0141645226764485,15.0490471176613
-0.0126815631016021,15.0500068109199
-0.0112649230177842,15.050993077902
-0.00991838566620578,15.0520082813686
-0.00864549647730536,15.0530552146228
-0.00744951050353852,15.0541372116754
-0.00633333717586689,15.0552582947798
-0.0052994822220097,15.0564233763868
-0.00434998608996881,15.0576385428524
-0.00348635744237096,15.0589114654096
-0.00270949887624816,15.0602520178368
-0.00201961939279542,15.0616732476426
-0.00141612277019806,15.0631929922318
-0.000904133190626392,15.0648127562614
-0.0004964478360582,15.0664747663129
-0.000175879075175295,15.0681973464053
7.25952330012224e-05,15.0700004119765
0.000263073144908417,15.0719102853552
0.000409140875745425,15.0739636871179
0.000524494273078755,15.0762158950024
0.000624085283078749,15.0787597854011
0.000727113061574343,15.081782849817
0.000858166269228749,15.0855167552855
0.00101303472564455,15.089408269869
0.00120768254707044,15.093710750361
0.00142114016813484,15.0980344042441
0.00165943289105448,15.1026530088933
0.00192028803124561,15.1076404859807
0.002175547111918,15.1125314532066
0.0024353557155508,15.1175461881644
0.00265306312871748,15.121754960669
0.00285589481864256,15.1256680492902
0.00305417482928689,15.1294652205213
0.00325337756798299,15.1332332571503
0.00345736175470694,15.1370270443385
0.00366937655110214,15.1408876838291
0.00389247936802196,15.1448493951197
0.00412978202532989,15.1489431229056
0.00438464875477071,15.1531990253194
0.00466086124331854,15.1576478838029
0.00496283682918363,15.1623223764113
0.00529598139744064,15.1672584397073
0.00566726190590765,15.172496380562
0.00605529581076047,15.1776776620199
0.0064623395188966,15.1827991999943
0.00689024989229608,15.1878439770559
0.00734274454273181,15.1928117656974
0.00782451312689427,15.1977066199153
0.00834099289741257,15.2025336778598
0.00889826123684494,15.2072972971966
0.00950294182713907,15.2119996166234
0.0101622688637482,15.2166407933332
0.0108925055511435,15.2212697798176
0.0117137298985507,15.2259296096229
0.0126434623645336,15.2306223049443
0.0137070987899332,15.2353694019803
0.0149424545818403,15.2402176915913
0.0164173191728951,15.2452819679385
0.0182998372424066,15.2509083598944
0.0207299749505421,15.2572597491425
0.0222825365398119,15.2610123552787
0.0238634460830572,15.2647649614149
0.0252400414949565,15.2681343271131
0.026401291136906,15.2712384621857
0.0273566200952419,15.2742407631428
0.0280514792950399,15.2770995829272
0.0284800025378622,15.2798958123493
0.0286279243080853,15.2827616247279
0.0284351505560148,15.2859101426823
0.0276322703617312,15.2900830543211
0.026773788812048,15.2929247628141
0.0257133401390811,15.2957664713071
0.0246388766318548,15.2982954866173
0.0235660501750104,15.3006342759072
0.0224921481239685,15.3028710297945
0.0214189810975597,15.3050511570363
0.020350009864953,15.3072016365281
0.0192889544703783,15.3093407398027
0.0182393900157562,15.3114820029711
0.01720463760072,15.3136361352922
0.016187738077836,15.3158120740724
0.0151914550844932,15.3180176198116
0.01421828641059,15.3202598497647
0.0132704728988465,15.3225454158132
0.0123500120969372,15.3248807573269
0.0114587126409866,15.3272722793994
0.0105981282765648,15.329726512354
0.00976957259869205,15.3322502325143
0.00897414883122179,15.3348506194335
0.00819900696959617,15.3375858833073
0.00743774427897202,15.3405064020041
0.00669413949500344,15.3436339300956
0.00597206315715382,15.346994064902
0.00527558613983154,15.3506164121592
0.00460893576540711,15.3545353348669
0.0039764126585356,15.3587909762017
0.00338225107372988,15.363430832306
0.00283040502550836,15.36851248435
0.00232426554343779,15.3741086058087
0.00186642747761527,15.3803150653767
0.00146242287612955,15.3871897678933
0.00112326677163224,15.394596813692
0.000842177459687299,15.4026446538646
0.000621366976567952,15.4114783293632
0.000479548015870513,15.4196242562549
0.000355614004387038,15.4294929848153
0.000267795553461446,15.4394929848153
0.000206694608734044,15.4494929848153
0.000164712580156876,15.4594929848153
0.000136345429731602,15.4694929848153
0.00011754575812492,15.4794929848153
0.000105417115539237,15.4894929848153
9.79522294669254e-05,15.4994929848153
9.37870620633515e-05,15.5094929848153
9.19997029450055e-05,15.5194929848153
9.19661539448795e-05,15.5294929848153
9.32647268001231e-05,15.5394929848153
9.56140922289114e-05,15.5494929848153
9.88324199029797e-05,15.5594929848153
0.000102809650196476,15.5694929848153
0.000107488433538971,15.5794929848153
0.000112851197021502,15.5894929848153
0.000118911722689616,15.5994929848153
0.00012571010985387,15.6094929848153
0.000133310332976628,15.6194929848153
0.000141799890322681,15.6294929848153
0.000151291284529496,15.6394929848153
0.000161925293289942,15.6494929848153
0.000173876194887866,15.6594929848153
0.000187359337609948,15.6694929848153
0.000202641721229359,15.6794929848153
0.000220056643524102,15.6894929848153
0.00024002403127991,15.6994929848153
0.000263078946927061,15.7094929848153
0.000289912149505661,15.7194929848153
0.000321428864729362,15.7294929848153
0.000358835765326783,15.7394929848153
0.000403772870739709,15.7494929848153
0.000458519183358612,15.7594929848153
0.000520906232725188,15.7687616365956
0.000591647509601778,15.7773142022092
0.000671817532519189,15.7852051411997
0.000762675553870623,15.7924864874598
0.000865659570434219,15.7992065240397
0.000982400481546302,15.8054100369858
0.0011147454809767,15.8111385943137
0.00126478662435479,15.8164307830327
0.00143489450321345,15.8213224112492
0.00162775468782004,15.8258467172415
0.00184641427225246,15.8300345780914
0.0020943341551388,15.8339147042303
0.0023754536044854,15.8375138105511
0.0026942698292142,15.8408567975961
0.00305593779650863,15.8439669464992
0.00346640116826465,15.8468661136548
0.00393256252179388,15.849574941185
0.00446251828368338,15.852113110911
0.00506589248769817,15.8544996541421
0.00575432777928417,15.8567533618354
0.00651773088917968,15.8588324318975
0.00736154794528331,15.8607598634929
0.00829879122927466,15.8625698952398
0.00934922652235273,15.864297714846
0.0105461002105309,15.8659854887574
0.0119674283678451,15.8677119001442
0.0138903794206692,15.8697196744675
0.0155857129594367,15.8712833788847
0.0174244413138167,15.8728470833018
0.0191090159854699,15.8742204225141
0.0205833541735638,15.875423418321
0.0219037953335459,15.8765466870273
0.0230832428617413,15.8776410116247
0.0241113816635836,15.8787448037985
0.0249608019873758,15.8799007484843
0.0255786434351795,15.8811766148089
0.0258407257492645,15.882740578057
0.0254853636129327,15.884544580181
0.0245291337981875,15.8863485823051
0.0234160911576222,15.8878141315576
0.0221670921013772,15.8892058292622
0.0207766213481966,15.8906202693888
0.0192529139218904,15.8921014971976
0.0176030889719097,15.8936873715711
0.0158556057569886,15.8954254328322
0.0145038691198434,15.8968710884614
0.0126841784283059,15.8990004726552
0.0110646979354992,15.9011234658602
0.0095809096323224,15.9033191305945
0.00811254927821013,15.9058101754266
0.00684950876263034,15.9083003453217
0.00611043930377149,15.9099577253769
0.00544443854262821,15.9116151054321
0.00488544930662311,15.913155005857
0.0043897364775747,15.9146607462312
0.00392375495662922,15.9162237869358
0.00345773802328645,15.9179644121457
0.00293961682318467,15.9201664176624
0.00234114071279606,15.9231884528523
0.00187266754396076,15.9260749500928
0.00151078833188347,15.9287760678891
0.00118540649067478,15.9317389649011
0.000866135830990365,15.9354466285158
0.000600936693760005,15.9396589454214
0.000407471732801834,15.9443167744074
0.000301868926770271,15.9493336324832
0.000296549726890536,15.9537727278832
0.000371079667410531,15.9577782085558
0.000516544282082866,15.9613805149697
0.000729134691885892,15.9646286975739
0.00100844991880978,15.9675718672534
0.00135697880563441,15.9702600781942
0.00178048043966744,15.9727443003825
0.00228981520380333,15.9750797687753
0.00290386171590769,15.9773276542755
0.00365485221463022,15.9795598819974
0.00460956232421177,15.9818934928965
0.00592659078255312,15.9845561669085
0.00761631419572206,15.9874073800698
0.009070207428783,15.9895239174217
0.0107234115515365,15.9916404547735
0.0123495150260597,15.9934640269267
0.0140318118791075,15.9951159401337
0.0158089173845355,15.9966380008764
0.0177525151014917,15.9980833586819
0.0198998804607601,15.9994632870739
0.0222925974743269,16.0007873527554
0.0249726112780582,16.0020613771118
0.0279818705384544,16.0032885528205
0.0313607663860549,16.0044699329127
0.0351631544511407,16.0056098243495
0.039443661977506,16.0067104638791
0.0442619641088958,16.0077737763222
0.0496956029413898,16.0088036955459
0.0558311761689456,16.0098033202935
0.0627711413455095,16.0107759161302
0.0706365281263345,16.0117247778017
0.0795777355955285,16.0126539132965
0.0897769602130494,16.0135674126762
0.10146059652378,16.0144698246055
0.114914751867999,16.0153663447915
0.130507693000411,16.0162630646436
0.14872911979753,16.0171676038859
0.170250869532762,16.0180898513939
0.195586072788308,16.0190279446728
0.22492030451931,16.0199702631045
0.259010552594615,16.0209266949384
0.298903650873743,16.0219129147575
0.346349369511194,16.0229607399344
0.382851855821607,16.0237090850671
0.420569305536578,16.0244574301997
0.454062221534863,16.0251247803574
0.483422187932828,16.0257371294603
0.509129985196241,16.0263253895449
0.531118418993642,16.0269132084688
0.548836186530658,16.0275251005247
0.561011494979348,16.0281970721846
0.564598477655277,16.0289593485961
0.556645055786403,16.029741805588
0.535922639029723,16.0305649870559
0.500546027172107,16.0314463127724
0.450048203492376,16.0323665327622
0.386062504467214,16.0332954638463
0.339249617367831,16.0338869243611
0.288647456482701,16.0344783848759
0.244050723045434,16.0349769610793
0.205898723313115,16.0353981363711
0.172414460342337,16.0357718241154
0.142451239090466,16.0361161832566
0.115308860694875,16.03644266467
0.0904967208559183,16.036759870904
0.0675997987310068,16.0370759304757
0.0461501201227739,16.037401363281
0.0252886235535339,16.0377576504608
0.00793264629422541,16.0380983221358
-0.00135376348674549,16.0383041338128
-0.00977481280378709,16.0385099454899
-0.0163966200110025,16.0386881025886
-0.022479842197665,16.0388677922652
-0.0286141180743079,16.0390686955022
-0.0345436920277517,16.0392872890112
-0.0401045256187471,16.0395214177884
-0.0452050988458533,16.0397703049307
-0.0497974993849025,16.0400340922427
-0.0538601830224737,16.0403135822762
-0.0573878067122425,16.0406101146219
-0.0603826153543125,16.0409255250154
-0.0629816070664703,16.0412842392766
-0.0648752874729672,16.0416436049116
-0.0662724022348429,16.0420303351976
-0.0671890651620101,16.042449180411
-0.0676373814855411,16.042905727099
-0.0676254578368428,16.0434070684317
-0.0671551781683278,16.0439624173127
-0.0662164837134118,16.0445854954222
-0.0647829946527678,16.0452944477206
-0.0628004557222775,16.0461168213459
-0.0601546958656561,16.047100722522
-0.0565474476045459,16.0483577652421
-0.0523810017215802,16.0497671767987
-0.0483369180920558,16.0511317392338
-0.0444681810570895,16.0524564233359
-0.0408014810314072,16.0537434040156
-0.0373510101426595,16.0549934083593
-0.034123717747323,16.0562064365726
-0.0311216194734039,16.05738214496
-0.0283430159096364,16.0585200480032
-0.0257832831941786,16.0596196229629
-0.0234354841194204,16.0606803597324
-0.0212908946171989,16.0617017781344
-0.0193394775842822,16.0626834245662
-0.0175703122845587,16.0636248545797
-0.0159588536984948,16.0645332270754
-0.0144040815613009,16.0654646606012
-0.0129110249916969,16.0664203567712
-0.0114836730612288,16.0674022876476
-0.0101258418900209,16.0684127563323
-0.00884111782400789,16.0694544817275
-0.00763280529671905,16.0705307039303
-0.00650387200768927,16.0716453249394
-0.00545689131715005,16.0728031005467
-0.00449398129157757,16.0740099087321
-0.00361673911478474,16.0752731364363
-0.00282616830962876,16.0766022572106
-0.00212259383117864,16.0780097324397
-0.00150555532354086,16.0795124963072
-0.000975806687740047,16.0811271649881
-0.000553262378611036,16.082781313482
-0.000220256280961546,16.0844933751876
3.84050656793626e-05,16.0862824954036
0.000236939963585927,16.088173815716
0.000388979908891393,16.090202064916
0.000508149053224062,16.0924188262905
0.000609086826337574,16.0949090306181
0.000709955474610343,16.0978379936022
0.000839748104898113,16.101580006838
0.000989581278149675,16.1054172529787
0.00118191481074645,16.1097323592304
0.00139293448568872,16.1140432166296
0.00162718745185306,16.1186001559412
0.00188961088458613,16.1236210072138
0.00214510230964021,16.1285124518044
0.00240535449351569,16.1335319422594
0.0026260763375942,16.1377989429947
0.00283006067040461,16.1417366502755
0.00302856530085433,16.1455428973138
0.00322741030344792,16.1493111903902
0.00343058578207524,16.1530991403019
0.0036413889821154,16.156949112733
0.00386288637921175,16.1608959788927
0.00409817015465254,16.1649709348528
0.00435056313167815,16.169204157429
0.0046237825116033,16.1736262760674
0.00492214730133111,16.1782696483159
0.00525090870178332,16.183169714866
0.0056167883555982,16.1883661583642
0.00600359783315216,16.1935702164088
0.0064077144505374,16.1986961630837
0.00683282273313544,16.2037526888139
0.00728181388740143,16.2087300674702
0.00775945756690167,16.2136343112479
0.00827104645526303,16.2184699461633
0.00882259912202107,16.2232417243253
0.00942066158821456,16.2279520391799
0.0100723825637004,16.2326012801909
0.0107916459055696,16.2372253167795
0.0116001414775303,16.2418818870094
0.0125143318444505,16.246569259352
0.0135585952316402,16.2513073682925
0.0147684762806913,16.2561379891979
0.0162059028951329,16.2611624927601
0.0180157951378037,16.2666733792484
0.0204442882790715,16.2731160447349
0.0220203336506227,16.27695346066
0.0236370140569567,16.2807908765851
0.0250496071782323,16.2842206770561
0.0262416222549249,16.2873528193685
0.0272281235418979,16.2903615816822
0.027963402729639,16.2932396143521
0.0284324767118597,16.2960375219864
0.0286251057002232,16.2988825795986
0.0284914616145016,16.3019660802513
0.0278306887258861,16.3058505683754
0.0269956157243824,16.3088219526245
0.0259276834377954,16.3117933368735
0.0248495138496912,16.3143835792869
0.0237765001904745,16.3167513207925
0.0227027411678891,16.3190036886713
0.0216291717137573,16.321192432009
0.020559078448147,16.3233471051973
0.0194961777201559,16.3254872742487
0.0184440860624175,16.3276272142062
0.0174061779531488,16.3297780872256
0.0163855490659119,16.3319491194291
0.01538501684705,16.3341482959952
0.0144071302023229,16.3363828102451
0.0134541791362182,16.3386593791978
0.0125282087209355,16.3409844674589
0.0116310592880454,16.3433644758051
0.0107643419748468,16.3458058998027
0.00992941338267083,16.3483154536622
0.00912741626590071,16.3509002298995
0.00835000189325099,16.3536013977043
0.00758571378251439,16.356484030881
0.00683835158072627,16.3595690650748
0.00611174195728524,16.3628813918024
0.00540991914700128,16.3664497769464
0.00473708511685463,16.3703075796337
0.00409753500938742,16.3744937083475
0.00349553078122304,16.3790540468093
0.00293509995485163,16.3840439117971
0.00241976903944289,16.3895324577563
0.00195229788650926,16.3956102274067
0.0015349493487576,16.4023934523918
0.00118382310397428,16.4096910010722
0.000892076311018144,16.4176053954287
0.000659483437083686,16.4262746503427
0.000477190236309549,16.4362746503427
0.000364803298797185,16.4451785072013
0.000274277234351999,16.4551785072013
0.000211209987345227,16.4651785072013
0.000167794226599411,16.4751785072013
0.000138404946630015,16.4851785072013
0.000118891569029544,16.4951785072013
0.000106267845681416,16.5051785072013
9.8456655695432e-05,16.5151785072013
9.40448495148084e-05,16.5251785072013
9.20777845366859e-05,16.5351785072013
9.19097787093143e-05,16.5451785072013
9.3104407197498e-05,16.5551785072013
9.53699972527416e-05,16.5651785072013
9.85172847393579e-05,16.5751785072013
0.000102430782050329,16.5851785072013
0.000107049102377035,16.5951785072013
0.000112351572010904,16.6051785072013
0.000118349464143225,16.6151785072013
0.000125080698494519,16.6251785072013
0.000132607194166066,16.6351785072013
0.000141014347994551,16.6451785072013
0.000150412358907838,16.6551785072013
0.000160939337814143,16.6651785072013
0.000172766349224221,16.6751785072013
0.000186104752306168,16.6851785072013
0.000201216481668428,16.6951785072013
0.000218428281061528,16.7051785072013
0.000238151449607448,16.7151785072013
0.000260909498190506,16.7251785072013
0.000287377443922092,16.7351785072013
0.000318438647073112,16.7451785072013
0.000355268763180522,16.7551785072013
0.00039946276199452,16.7651785072013
0.000453232442742541,16.7751785072013
0.000514888296477416,16.7845126603648
0.000584824086423619,16.7931281857502
0.000664084124178321,16.8010772420253
0.000753910541255238,16.808412121338
0.000855724287973275,16.8151814375402
0.000971137643751118,16.8214302833143
0.00110197694329836,16.8272005095161
0.0012503105629291,16.8325309666645
0.00141848231033456,16.8374577075774
0.00160914719249533,16.8420141962256
0.00182531741059896,16.8462315165202
0.002070413456851,16.8501385692887
0.00234832813172794,16.8537622440932
0.0026635038889416,16.8571275990367
0.00302103079823533,16.8602580547685
0.00342677440109555,16.8631755894126
0.00388754112555549,16.8659009460706
0.0044113065468748,16.8684538822341
0.00500753813360432,16.8708534736313
0.00568766789297995,16.8731185118707
0.00644411143506373,16.8752132040933
0.00728004287788068,16.8771531802206
0.00820797436224217,16.8789726089731
0.00924686325062565,16.8807064225217
0.0104282068699748,16.882395705483
0.0118192016960159,16.8841088186415
0.0136725162359756,16.8860723688063
0.0154292602365802,16.887710636619
0.0173472523568649,16.8893489044316
0.0190512436061877,16.890739272904
0.0205325625622222,16.8919470574015
0.0218582069722745,16.8930722098643
0.0230428633710235,16.8941668965938
0.0240768799413745,16.8952696653572
0.0249335213508703,16.8964227734409
0.0255612379576879,16.8976924185755
0.0258407160109194,16.8992394222758
0.0255055937733158,16.9010560011058
0.0245569996195618,16.9028725799358
0.0234473231099393,16.9043425901462
0.0222021036956888,16.9057345473596
0.0208152727785634,16.907147742215
0.0192949646037029,16.9086267323568
0.0176484201334459,16.9102093041425
0.0162485790221598,16.9115880292182
0.014932007720142,16.912966754294
0.0130622014811029,16.9151030027708
0.0114036395926076,16.9172229351479
0.00989732384509652,16.9193919404121
0.00844406784323985,16.9217794736339
0.00713994310509901,16.9242581014577
0.00634448104687594,16.9259791507648
0.00563019231941505,16.9277002000718
0.00504282710254762,16.9292710505115
0.00453242189729679,16.9307773259906
0.00406060308096149,16.9323132867875
0.00359822102916125,16.933983770577
0.0031050755726153,16.9359931971661
0.00248492326898376,16.9389700818666
0.00195320171868757,16.942101791844
0.00156771196776695,16.9448813035477
0.00123622466546221,16.9477979767602
0.000916375330211163,16.951354980938
0.000640008541642349,16.9555002899677
0.000434099972500521,16.9600785303462
0.000310480584599797,16.9651902873721
0.000291947766154091,16.9696974824588
0.000355175488555735,16.9737672423087
0.000490298533788283,16.9774271306842
0.000692860841520661,16.980725417114
0.000961954044449594,16.9837106711133
0.00129979312883426,16.9864344586316
0.00171145954122789,16.9889461953212
0.00220692204352041,16.9913005787788
0.00280359282077495,16.9935576307171
0.00353202845463882,16.9957894904871
0.0044506343925072,16.9980998048425
0.00569764401481118,17.000692964012
0.00733387998054867,17.0035294519088
0.00881683734358409,17.0057392478145
0.0105104629470006,17.0079490437203
0.0121469018487735,17.0098152740908
0.013807127839371,17.0114734880227
0.0155718689139586,17.0130123597106
0.0174874729708473,17.0144636364128
0.0196070754978756,17.0158522552328
0.0219634808882192,17.017182178354
0.0246043962002786,17.018462994605
0.0275657269048398,17.0196952372765
0.0308936100759277,17.0208825970405
0.0346381894717136,17.0220280846519
0.03884991334875,17.0231331075184
0.0435932835912179,17.0242011566044
0.0489417043771471,17.0252354118463
0.054979821624304,17.0262389317334
0.0618057914353182,17.0272146912984
0.0695411682301396,17.0281664632025
0.0783311120295714,17.0290979990109
0.0883528256666215,17.0300133339573
0.0998261229775545,17.0309169479441
0.113027015303337,17.0318138658104
0.128312920061899,17.0327101597677
0.146154171937377,17.0336131698003
0.16719328634138,17.0345323994357
0.192051006112694,17.0354705168923
0.220822338161175,17.0364117995533
0.254237781310501,17.0373656660007
0.293293320764332,17.0383467060127
0.339596810058216,17.0393834019808
0.376707001444599,17.0401510702132
0.415286447384665,17.0409187384455
0.44948752559436,17.0415980624799
0.479403217704489,17.0422162243642
0.505632342264155,17.0428064280806
0.528181055607837,17.0433929029074
0.546572995493016,17.04399952339
0.559675934996206,17.04465958251
0.564767848950925,17.045420809128
0.558438320754117,17.0461992840025
0.539544736440496,17.0470158300339
0.506290095287881,17.0478884093532
0.45779635125118,17.0488052995852
0.395180093429896,17.0497388509424
0.347403301072234,17.0503532411099
0.295352404504507,17.0509676312774
0.249600233422461,17.0514811688782
0.210685000449985,17.0519108438122
0.176656964331295,17.0522896169566
0.146271307562567,17.0526371297128
0.118784086062858,17.0529654627448
0.0936857424245749,17.0532834481009
0.070557599646453,17.0535991469867
0.0489493981658771,17.0539224988072
0.0280993302876836,17.0542723634699
0.0049008272937242,17.0547289576336
-0.00341711700554783,17.0549182529763
-0.0110104550862488,17.055107548319
-0.0174398947198618,17.0552832898561
-0.0235559512199981,17.0554670253917
-0.0296708244014609,17.0556712569249
-0.0355452980906546,17.0558926730525
-0.0410308051665167,17.0561294049709
-0.0460451453115263,17.056380863295
-0.0505460022784685,17.0566473191828
-0.0545152541827249,17.0569296751538
-0.0579496701410575,17.0572293585485
-0.060850651266941,17.0575482920007
-0.0632893330326513,17.0579006735728
-0.0651092255442797,17.058263699656
-0.0664355231025432,17.0586548039686
-0.0672833129836484,17.059078760417
-0.0676642302018411,17.059541345795
-0.0675856313800645,17.0600499170889
-0.0670481288765289,17.0606141664739
-0.0660395077545555,17.0612484611201
-0.0645303585002485,17.0619719033083
-0.0624605176398312,17.0628140577538
-0.0597012634575979,17.0638280415357
-0.0558953396148756,17.0651458357262
-0.0517434277686275,17.0665474346138
-0.047724002448726,17.0679055569344
-0.0438852747786021,17.0692242867153
-0.040251424181576,17.0705054998159
-0.0368352813133481,17.0717497731581
-0.0336429167050093,17.0729570338375
-0.0306757038970035,17.0741269057321
-0.0279314435980135,17.0752588922303
-0.0254051152847029,17.076352470171
-0.0230894712534602,17.0774071335025
-0.020975553577616,17.0784224067508
-0.0190531609091607,17.0793978391338
-0.0173112709159831,17.0803329853308
-0.015708487759976,17.0812449209366
-0.014163224207145,17.0821800796832
-0.0126803182707165,17.0831397941379
-0.0112637350666879,17.0841260841248
-0.00991725766003832,17.0851413127247
-0.00864443126249502,17.0861882736397
-0.00744851066310563,17.0872703013851
-0.0063324049825387,17.088391418861
-0.00529861958882684,17.0895565393617
-0.00434919451759707,17.0907717503674
-0.00348563796145211,17.0920447246482
-0.00270885198164331,17.0933853381523
-0.00201904496355207,17.0948066415774
-0.0014156199626731,17.096326477265
-0.000903723576284125,17.0979462691775
-0.000496116247138847,17.0996083218333
-0.000175612782692316,17.1013309588535
7.2808067121496e-05,17.103134099879
0.00026324374538899,17.1050440737293
0.000409280259961195,17.1070976119956
0.000524613896133793,17.1093500130305
0.000624198398754025,17.1118941982115
0.000727238967207272,17.1149177881176
0.000858299888975146,17.1186516713895
0.0010131957861443,17.1225434907857
0.00120785485884165,17.1268458938852
0.00142132652003337,17.1311696497376
0.00165964652606973,17.1357887046435
0.00192049136804124,17.1407759740733
0.00217574977852486,17.1456669536316
0.00243550215836885,17.1506806081904
0.00265319337958575,17.1548890695336
0.00285601958948952,17.1588020393541
0.00305429870252495,17.1625991681896
0.0032535034037518,17.1663672059812
0.00345749178374765,17.170161024879
0.00366951278569303,17.1740217206501
0.00389262376512856,17.1779835092666
0.00412993665684024,17.1820773344066
0.00438481590606455,17.1863333541747
0.00466104352960983,17.1907823508411
0.00496303736906136,17.1954570041449
0.005296204105873,17.2003932532439
0.00566751196748038,17.2056314082759
0.00605555173817463,17.2108125760679
0.00646260998990123,17.2159340936672
0.00689053421362817,17.2209788129666
0.00734304628000106,17.2259465551433
0.00782483529077511,17.2308413628619
0.00834133934947049,17.2356683787126
0.00889863608391267,17.2404319579422
0.00950334956592411,17.2451342380502
0.010162714411177,17.2497753750742
0.0108930057242041,17.2544043860698
0.0117142935065893,17.2590642323845
0.0126441035204638,17.2637569547503
0.0137078368486935,17.2685040978964
0.0149433206898283,17.2733524788427
0.0164183755182117,17.2784169629246
0.0183012741604144,17.2840439750076
0.0207314175906654,17.2903949148498
0.0222838564155161,17.2941470959243
0.0238645818208344,17.2978992769988
0.0252409978634396,17.301268352028
0.0264020917862013,17.3043723542157
0.0273572611641311,17.3073746297369
0.0280519142439662,17.31023335872
0.0284802293714139,17.3130295870941
0.0286279194505349,17.3158955167529
0.0284348327097601,17.3190443966662
0.0276311190759006,17.3232190673013
0.0267725101985094,17.3260601220949
0.025712089671829,17.3289011768885
0.024637641708305,17.3314298684149
0.0235648154022181,17.3337684992165
0.0224909127015192,17.3360051666577
0.0214177484372353,17.3381852463856
0.0203487842139018,17.3403357033309
0.0192877400524851,17.3424748018778
0.0182381907998891,17.3446160740177
0.017203457240185,17.3467702264714
0.0161865799043404,17.3489461949245
0.0151903221157827,17.3511517788401
0.0142171813652209,17.3533940548275
0.0132693982083146,17.355679674412
0.0123489699157162,17.3580150768351
0.0114577049510085,17.3604066672367
0.010597156703461,17.3628609761614
0.00976863852385696,17.3653847803137
0.00897325340521868,17.3679852597763
0.008198125212123,17.3707207253287
0.00743688062282441,17.3736414681731
0.00669329824771018,17.3767692477558
0.00597124888048695,17.380129665595
0.00527480360427266,17.3837523324298
0.00460818988296643,17.3876716172354
0.00397570835648635,17.3919276705924
0.00338159309140351,17.3965679983909
0.00282979764889349,17.4016501955087
0.00232371223241161,17.407246956936
0.00186593072130773,17.4134541837641
0.00146200368448644,17.4203294340528
0.00112291715591935,17.4277371357141
0.000841889777617942,17.4357857758709
0.000621147643669595,17.4446204382515
0.000479513762388429,17.4527582465949
0.000355538509632493,17.462631702649
0.000267743495676922,17.472631702649
0.000206658881883901,17.482631702649
0.000164688335836844,17.492631702649
0.00013632925088518,17.502631702649
0.000117535228064641,17.512631702649
0.000105410545516253,17.522631702649
9.79484555246459e-05,17.532631702649
9.37852889091393e-05,17.542631702649
9.19993895442131e-05,17.552631702649
9.19669338685765e-05,17.562631702649
9.32663544783557e-05,17.572631702649
9.56164069107392e-05,17.582631702649
9.88353213071969e-05,17.592631702649
0.000102813081942838,17.602631702649
0.000107492371931369,17.612631702649
0.000112855643642659,17.622631702649
0.000118916699786022,17.632631702649
0.000125715657822162,17.642631702649
0.000133316509504339,17.652631702649
0.000141806770928407,17.662631702649
0.000151298964409964,17.672631702649
0.000161933890530369,17.682631702649
0.000173885855246021,17.692631702649
0.000187370241266529,17.702631702649
0.000202654092138666,17.712631702649
0.000220070762344663,17.722631702649
0.000240040253386181,17.7326317026491
0.000263097727819734,17.7426317026491
0.000289934081256693,17.7526317026491
0.00032145472929053,17.7626317026491
0.000358866614288498,17.7726317026491
0.00040381014777998,17.7826317026491
0.000458564917832514,17.7926317026491
0.000520958276394627,17.8018997936339
0.000591706502921291,17.8104518202402
0.00067188437796087,17.8183422617036
0.000762751301470973,17.8256231497016
0.000865745417368466,17.8323427644499
0.00098249778583341,17.838545889368
0.00111485578080976,17.844274090048
0.00126491166257618,17.8495659512402
0.00143503625391538,17.8544572789545
0.0016279153893843,17.8589813095368
0.00184659646451994,17.8631689182979
0.00209454072732073,17.8670488140388
0.00237568784775169,17.8706477101572
0.00269453550841832,17.8739905058483
0.00305623923866891,17.8771004810538
0.0034667433771813,17.8799994911292
0.00393295133518715,17.8827081773373
0.00446296058890305,17.8852462208596
0.00506639653357647,17.8876326526373
0.00575490364991046,17.8898862636419
0.00651836694575129,17.8919652005862
0.00736225228900421,17.8938925254747
0.00829957635605683,17.8957024776001
0.00935011210423224,17.8974302470765
0.0105471215829524,17.8991180101775
0.0119687174464813,17.9008445413023
0.0138923024286098,17.9028527240298
0.0155871244408348,17.9044158066005
0.0174251943877599,17.9059788891712
0.0191095955224,17.9073520756184
0.0205838652649035,17.9085550249135
0.0219042541776868,17.9096782749729
0.0230836492033715,17.9107725961383
0.0241117286505423,17.9118763988651
0.0249610759244674,17.9130323725193
0.0255788171882374,17.9143083024364
0.0258407214892885,17.9158724407121
0.0254851739789674,17.917676266243
0.0245289147029628,17.9194800917739
0.0234158569398875,17.9209455933476
0.0221668312650279,17.9223372876363
0.0207763337248452,17.923751736908
0.0192526011531304,17.9252329813499
0.0176027518979249,17.9268188802909
0.0158552555724078,17.928556977415
0.0145030530114847,17.9300031759347
0.0126834532325183,17.9321325531011
0.0110640457956029,17.9342555554602
0.00958030273048869,17.9364512702662
0.00811191916838596,17.9389425099268
0.00684895650070972,17.9414327032876
0.00610998160941198,17.943089987735
0.00544406262885666,17.9447472721824
0.00488512298329006,17.9462871304576
0.00438943798023129,17.9477928776941
0.00392346935380717,17.9493559738186
0.00345744817560725,17.9510967364114
0.00293927884601499,17.9532991397012
0.00234084686949409,17.9563212705298
0.001872465604132,17.9592074942989
0.00151062283635724,17.9619085907097
0.00118525327925827,17.9648716750978
0.000865984879215619,17.9685797934782
0.000600818550502259,17.9727923151877
0.000407390267886071,17.9774503875377
0.000301839193331991,17.9824669679282
0.000296557846175372,17.9869058725746
0.000371120082282144,17.9909111724998
0.000516614164533165,17.9945133173436
0.000729233139067851,17.997761360411
0.00100857737864393,18.0007044121974
0.00135713707994656,18.0033925272449
0.00178067283733602,18.0058766750333
0.00229004766428225,18.0082120927505
0.00290414500572694,18.0104599566198
0.00365520458739891,18.0126921974708
0.00461002432548211,18.0150258854729
0.00592726097234105,18.0176887638777
0.00761713935864821,18.0205400148433
0.00907095809280919,18.0226562969906
0.0107240594959337,18.0247725791379
0.0123501485347457,18.0265960378443
0.0140324827768053,18.0282478990256
0.0158096374260757,18.0297699173167
0.0177533164344213,18.0312152525094
0.0199007703247143,18.0325951560081
0.0222936001395194,18.033919204045
0.0249737356108472,18.0351932081296
0.0279831414560572,18.0364203678981
0.0313621949716492,18.0376017300436
0.0351647615465966,18.038741604689
0.0394454764241528,18.0398422299049
0.0442640090494839,18.0409055281758
0.0496979101633663,18.041935434485
0.0558337833876503,18.042935047665
0.0627740965048818,18.0439076337549
0.0706398832083995,18.0448564868602
0.079581556362271,18.0457856153713
0.0897813279164442,18.0466991095144
0.101465613019186,18.0476015181752
0.114920549396256,18.0484980375182
0.13051444022659,18.0493947591868
0.148737045713625,18.0502993037314
0.17026029671399,18.0512215612825
0.195596975608745,18.0521596550078
0.224932949067911,18.0531019772534
0.259025289511192,18.0540584178013
0.298920996934772,18.055044654835
0.34637031634657,18.0560925169305
0.382870915825348,18.0568408041105
0.420585698898676,18.0575890912905
0.454076417121482,18.0582564058635
0.48343462708392,18.0588687379464
0.509140756505304,18.059456992959
0.531127383393945,18.0600448172275
0.548842960877247,18.0606567273749
0.561015224292373,18.0613287392615
0.564597344312733,18.0620910200094
0.556638663136379,18.0628734906411
0.535910312287014,18.0636966941083
0.500526812544818,18.0645780483615
0.450022435528165,18.0654982806482
0.386032774248929,18.0664271915214
0.339223011904668,18.0670185800549
0.288625477220188,18.0676099685885
0.244032457094346,18.0681084973986
0.205882935121357,18.0685296455481
0.172400452519324,18.0689033169786
0.142438621029597,18.0692476660164
0.115297379687918,18.069574141566
0.0904861836570912,18.0698913454796
0.0675900211199435,18.0702074065715
0.0461408518053903,18.0705328468535
0.0252792510034238,18.0708891572162
0.00792983593559265,18.0712297169662
-0.00135546441492984,18.0714355088474
-0.00977557813675744,18.0716413007286
-0.0163972440872401,18.0718194558039
-0.022480488993882,18.0719991480346
-0.028614754703989,18.0722000533804
-0.0345442955891849,18.0724186486722
-0.0401050831128247,18.0726527790875
-0.0452056032501984,18.0729016678418
-0.0497979472611387,18.0731654568214
-0.0538605731202491,18.0734449486401
-0.0573881391286165,18.0737414829426
-0.0603828895714321,18.0740568955182
-0.0629817736184352,18.0744156048387
-0.0648754097970286,18.0747749726433
-0.066272482263496,18.0751617055345
-0.0671891040982021,18.0755805537838
-0.0676373802610071,18.0760371040479
-0.0676254169519222,18.0765384496485
-0.0671550974673103,18.077093803707
-0.0662163617175558,18.0777168883778
-0.0647828281918776,18.0784258491097
-0.0628002383489636,18.0792482341598
-0.060154413256233,18.080232152468
-0.0565470552283748,18.081489228468
-0.0523806177150159,18.082898635346
-0.048336548326188,18.0842631940212
-0.0444678287742895,18.0855878746482
-0.0408011479564195,18.0868748519604
-0.0373506971841788,18.0881248529559
-0.0341234252898718,18.0893378777973
-0.0311213475197075,18.0905135827705
-0.0283427641646054,18.0916514823508
-0.0257830511257799,18.0927510537989
-0.0234352710094572,18.0938117870109
-0.021290699606512,18.0948332018124
-0.0193392997138086,18.0958148446028
-0.0175701505324342,18.0967562709336
-0.0159586970646324,18.0976646455219
-0.0144039305417273,18.0985960812339
-0.012910879968914,18.0995517797609
-0.0114835344040346,18.1005337131928
-0.0101257099481528,18.1015441846663
-0.00884099292339425,18.102585913127
-0.00763268773450643,18.1036621387267
-0.00650376204700936,18.1047767635339
-0.00545678918162138,18.1059345434314
-0.00449388715947029,18.10714135652
-0.00361665311266688,18.1084045899046
-0.00282609050517768,18.1097337173673
-0.00212252422455758,18.1111412006295
-0.00150549383607839,18.1126439743913
-0.000975755902067049,18.114258645982
-0.000553220564553134,18.1159127990107
-0.000220222002288785,18.1176248667915
3.84331415657431e-05,18.1194139950642
0.000236963094714684,18.1213053260865
0.000388999321586267,18.123333589775
0.000508166007737158,18.1255503714861
0.000609102748694298,18.1280406063845
0.000709972339437635,18.1309696220776
0.000839765376436771,18.1347116282125
0.000989601237062193,18.1385489045773
0.0011819357385722,18.1428639980178
0.00139295679766001,18.1471748642495
0.00162721265995449,18.1517318513857
0.00188963458568834,18.1567526725082
0.00214512575276254,18.1616441148813
0.00240537921017304,18.1666636323587
0.00262609837975159,18.1709305804162
0.00283008167818762,18.1748682651633
0.00302858609027302,18.1786745037395
0.00322743137514124,18.1824427962278
0.00343060751836057,18.1862307509342
0.00364141172201372,18.1900807323913
0.0038629104535082,18.1940276112275
0.00409819590958382,18.1981025832762
0.00435059094746045,18.2023358253275
0.00462381282134979,18.2067579669521
0.00492218061864841,18.2114013659673
0.00525094566718822,18.2163014634887
0.00561682981116312,18.2214979426965
0.00600364023161625,18.2267019817458
0.00640775922074408,18.2318279251231
0.00683286973986488,18.2368844411047
0.0072818637064361,18.2418618118211
0.00775951070821456,18.2467660478314
0.00827110354828866,18.2516016756705
0.00882266084491277,18.2563734471313
0.00942072868153495,18.2610837554439
0.0100724558360732,18.2657329898699
0.0107917280834484,18.2703570305186
0.0116002339786191,18.2750136033739
0.0125144369378176,18.2797009799731
0.0135587159841449,18.2844390960128
0.0147686175261867,18.2892697307454
0.0162060739397083,18.2942942650921
0.0180160222885103,18.2998052385688
0.0204445171564227,18.3062478291145
0.0220205445784938,18.3100851770697
0.0236371970911142,18.3139225250248
0.0250497609116983,18.3173522746437
0.0262417513256133,18.3204843931024
0.0272282279116461,18.3234931491058
0.0279634749499301,18.3263711653819
0.0284325168824902,18.3291690705352
0.0286251108694873,18.3320141429433
0.0284914214186137,18.33509769091
0.0278305494234158,18.338982371552
0.0269954588593624,18.3419536509557
0.0259275340709002,18.3449249303594
0.0248493679399033,18.3475151256331
0.0237763545477823,18.3498828456616
0.0227025954068145,18.3521352021056
0.0216290261832367,18.3543239391176
0.0205589336422937,18.3564786091615
0.0194960341414053,18.3586187772987
0.018443944186023,18.3607587180347
0.0174060382177257,18.3629095931974
0.0163854118721076,18.3650806287005
0.015384882558034,18.3672798095894
0.0144069991458014,18.3695143291009
0.0134540516056722,18.3717909042064
0.0125280849767153,18.3741159994921
0.0116309395683444,18.3764960157357
0.0107642264799411,18.3789374485265
0.00992930228086656,18.3814470121165
0.0091273096980065,18.3840317990809
0.00834989685999974,18.3867329903067
0.00758561080297246,18.3896156495017
0.00683825115990105,18.3927007128696
0.00611164463094374,18.3960130724092
0.00540982547699871,18.3995814945762
0.00473699568344113,18.4034393391826
0.00409745039852185,18.407625515549
0.00349545156262031,18.4121859084811
0.00293502665008348,18.4171758362758
0.00241970208009585,18.4226644557153
0.00195223759047483,18.4287423130733
0.0015348983758543,18.4355256001275
0.00118378049430094,18.4428232230835
0.000892041148550855,18.4507377078841
0.000659456570218736,18.4594070740964
0.000477172162177366,18.4694070740964
0.000364787090578957,18.4783112172341
0.000274265995398972,18.4883112172341
0.000211202242340546,18.4983112172341
0.00016778896182091,18.5083112172341
0.000138401432000849,18.5183112172341
0.000118889279691625,18.5283112172341
0.000106266412862783,18.5383112172341
9.84558258138235e-05,18.5483112172341
9.4044450169371e-05,18.5583112172341
9.20776988586227e-05,18.5683112172341
9.19099275899968e-05,18.5783112172341
9.31047375109639e-05,18.5883112172341
9.53704740884923e-05,18.5983112172341
9.85178861896804e-05,18.6083112172341
0.000102431495654303,18.6183112172341
0.000107049922697003,18.6283112172341
0.000112352499021054,18.6383112172341
0.00011835050221753,18.6483112172341
0.00012508185584707,18.6583112172341
0.000132608482645909,18.6683112172341
0.000141015783177746,18.6783112172341
0.000150413960464306,18.6883112172342
0.000160941130158579,18.6983112172342
0.000172768362492577,18.7083112172342
0.000186107023736775,18.7183112172342
0.000201219057516179,18.7283112172342
0.000218431219243817,18.7383112172342
0.000238154823386293,18.7483112172342
0.000260913401360258,18.7583112172342
0.000287381998237994,18.7683112172342
0.000318444013096852,18.7783112172342
0.000355275156472538,18.7883112172342
0.000399470477912997,18.7983112172342
0.000453241895542167,18.8083112172342
0.000514899052951592,18.817645252314
0.00058483627921435,18.8262606641979
0.000664097939648598,18.8342096157014
0.000753926196397397,18.8415443985063
0.000855742030232831,18.8483136258675
0.000971157753814103,18.854562389914
0.00110199973909381,18.8603325409915
0.00125033640464438,18.865662929144
0.00141851160600112,18.8705896067481
0.00160918040466169,18.8751460373675
0.00182535506410493,18.8793633045404
0.00207045614860599,18.8832703087509
0.00234837654148998,18.8868939392459
0.00266355879407271,18.8902592538441
0.00302109309163104,18.8933896729426
0.00342684511469562,18.8963071744452
0.00388762146223096,18.8990325012703
0.00441139792403773,18.9015854107712
0.00500764224625567,18.9039849785933
0.00568778680884345,18.9062499963395
0.00644424275408307,18.9083446602765
0.00728018823199158,18.9102846136487
0.00820813626075531,18.9121040252862
0.00924704560647693,18.913837827775
0.0104284166062852,18.9155271075643
0.0118194644302294,18.9172402434574
0.0136728970239156,18.9192038674465
0.0154295267643465,18.9208419968789
0.0173473710884708,18.9224801263113
0.0190513290813184,18.9238704657396
0.020532637417705,18.9250782428558
0.0218582741622254,18.9262033924881
0.0230429229182914,18.9272980786442
0.0240769308778707,18.9284008488676
0.0249335617235266,18.9295539610558
0.0255612639189061,18.9308236151959
0.0258407167898516,18.9323706432332
0.0255055634636233,18.9341872072338
0.0245569545983498,18.9360037712344
0.0234472718011233,18.9374737750374
0.0222020460234927,18.9388657318945
0.0208152090557642,18.9402789287947
0.01929489523626,18.941757922615
0.0176483453199008,18.9433404998345
0.0162484082838368,18.9447193262342
0.0149317543228237,18.9460981526339
0.0130619770769608,18.9482343977072
0.0114034387670415,18.9503543311369
0.00989713841858022,18.952523348433
0.00844388122993816,18.9549109266414
0.00713977985460421,18.9573895599939
0.00634434884718008,18.959110576086
0.00563008670378494,18.9608315921781
0.0050427376598002,18.9624024252818
0.00453234128239423,18.9639086988359
0.0040605268545535,18.965444670575
0.00359814490731604,18.967115183802
0.00310499127044719,18.9691246867679
0.00248484992529645,18.9721015930897
0.00195316723927335,18.9752331392293
0.00156769271294746,18.9780125766892
0.00123620971301389,18.9809292413949
0.000916362056653553,18.9844862654886
0.000639997894555888,18.9886315900745
0.000434092132364287,18.9932098495423
0.000310476197525519,18.9983216307952
0.000291947089982693,19.0028288042024
0.000355177878773505,19.0068985479678
0.000490303675819408,19.0105584216023
0.000692868607864417,19.0138566951303
0.000961964443384283,19.0168419381918
0.0012998062107892,19.0195657161475
0.00171147558636211,19.0220774455584
0.0022069415763791,19.0244318241217
0.00280361666948874,19.026688873517
0.00353205731967705,19.0289207315547
0.00445067120522828,19.0312310495416
0.0056976967032562,19.0338242237877
0.0073339454524765,19.0366607150235
0.00881689640443279,19.0388704886083
0.0105105129643718,19.041080262193
0.0121469467633274,19.0429464789182
0.0138071844825075,19.044604697396
0.0155719274355976,19.0461435633846
0.017487539633813,19.0475948391363
0.019607149403762,19.0489834556026
0.0219635643229273,19.0503133771696
0.0246044900423063,19.0515941916962
0.0275658332577149,19.0528264330141
0.0308937299384512,19.0540137912601
0.0346383245913427,19.0551592774429
0.0388500662798043,19.0562642991242
0.043593456173922,19.0573323469972
0.0489418992938835,19.0583666011321
0.0549800420553317,19.0593701200277
0.0618060414371514,19.0603458787611
0.0695414521650786,19.0612976499311
0.0783314354407506,19.0622291851418
0.088353195398467,19.0631445196414
0.0998265475975439,19.0640481333512
0.113027505818223,19.0649450511433
0.128313490705607,19.065841345261
0.146154841879636,19.0667443557529
0.167194082462405,19.0676635862507
0.192051926781467,19.0686017037511
0.220823405705191,19.0695429867429
0.254239024972722,19.0704968539322
0.293294782780995,19.0714778953745
0.33959856796878,19.0725145942936
0.376708593881842,19.073282257334
0.415287805320181,19.0740499203745
0.44948869087545,19.0747292411974
0.479404234088584,19.0753474015524
0.505633220528993,19.0759376047674
0.528181786838489,19.0765240799427
0.546573551705953,19.077130701764
0.559676254203795,19.0777907638503
0.564767780806364,19.0785519907371
0.558437836754076,19.0793304666309
0.539543786240321,19.0801470143585
0.506288606035095,19.0810195959098
0.457794345114409,19.081936487087
0.395177699392987,19.0828700377113
0.347401165403093,19.0834844216983
0.295350659547392,19.0840988056853
0.249598797466181,19.0846123392975
0.210683766665277,19.0850420119911
0.176655873455069,19.0854207838068
0.146270327212333,19.0857682957425
0.118783195759824,19.0860966282918
0.0936849268933054,19.0864146134391
0.0705568448586076,19.0867303124012
0.0489486862054041,19.0870536647164
0.0280986215086186,19.0874035308831
0.00489984015452462,19.0878601338635
-0.00341779163392548,19.0880494237801
-0.0110108613489236,19.0882387136966
-0.0174402390020057,19.0884144544827
-0.0235563040541849,19.0885981913258
-0.0296711693370649,19.0888024239443
-0.0355456239215811,19.0890238410013
-0.0410311055647217,19.0892605737836
-0.0460454168887714,19.0895120329658
-0.0505462434149424,19.0897784897474
-0.0545154643412486,19.0900608466804
-0.0579498494531254,19.090360531134
-0.0608507995294777,19.0906794657708
-0.0632894294014699,19.0910318452846
-0.0651092974445067,19.0913948726049
-0.0664355715060879,19.0917859783935
-0.0672833385342394,19.0922099365666
-0.0676642333806777,19.0926725239824
-0.0675856124113797,19.093181097717
-0.0670480875069218,19.0937453501399
-0.0660394430489806,19.0943796485844
-0.0645302684667934,19.0951030956894
-0.0624603982201729,19.0959452568772
-0.0597011053846651,19.0969592510224
-0.0558951113210977,19.0982770669009
-0.0517432047732911,19.0996786631869
-0.0477237882268962,19.1010367832916
-0.0438850710957463,19.1023555110124
-0.0402512319780583,19.1036367221113
-0.0368351010757818,19.1048809934611
-0.0336427486232087,19.1060882521338
-0.0306755479422549,19.1072581219969
-0.0279312995707627,19.1083901064356
-0.0254049828498133,19.1094836822886
-0.0230893499698235,19.1105383435059
-0.0209754429246201,19.1115536146152
-0.0190530603107063,19.1125290448351
-0.0173111797621063,19.1134641888446
-0.0157083996327268,19.1143761256898
-0.0141631393942946,19.1153112857328
-0.0126802369943976,19.1162710015865
-0.0112636575405451,19.1172572930918
-0.00991718408607172,19.1182725233505
-0.00864436182826485,19.1193194860913
-0.00744844553877226,19.1204015158627
-0.00633234431776373,19.1215226356072
-0.00529856350951901,19.1226877586752
-0.00434914312241926,19.1239029726209
-0.00348559131801487,19.1251759503158
-0.00270881012215247,19.1265165678515
-0.00201900787951333,19.1279378761362
-0.00141558759781576,19.1294577178373
-0.00090369735364751,19.1310775115904
-0.00049609516542006,19.1327395670586
-0.000175596001477166,19.1344622078367
7.28213295015181e-05,19.1362653538432
0.000263254230202154,19.1381753343259
0.000409288694908915,19.1402288816035
0.000524621037994283,19.1424812953894
0.000624205123356395,19.1450255000316
0.000727246550063898,19.1480491246338
0.00085830799677669,19.151783006448
0.00101320571983463,19.1556748459702
0.0012078655673506,19.159977244353
0.00142133814669075,19.164301006524
0.00165965986697597,19.1689200893054
0.00192050407925079,19.1739073458917
0.00217576244591253,19.1787983262177
0.00243551134241158,19.1838119139457
0.00265320155751899,19.1880203560317
0.00285602742574947,19.1919333184974
0.00305430648215296,19.195730444707
0.0032535113049926,19.1994984825684
0.00345749994570993,19.2032923034269
0.00366952133383476,19.2071530026794
0.00389263282142697,19.2111147960799
0.0041299463503892,19.2152086272432
0.00438482637924135,19.2194646542724
0.00466105494534086,19.2239136594888
0.00496304992163182,19.2285883227356
0.00529621803914557,19.233524583331
0.00566752760428981,19.2387627516148
0.00605556774704319,19.2439439123277
0.00646262691025343,19.2490654286352
0.00689055200380622,19.2541101443265
0.00734306516249785,19.2590778835969
0.00782485545382067,19.2639726884081
0.00834136103422798,19.2687997016248
0.00889865954700489,19.2735632783434
0.00950337508844171,19.2782655559889
0.0101627423006023,19.2829066905271
0.0108930370331711,19.287535703056
0.0117143287863745,19.2921955504031
0.0126441436544207,19.2968882744609
0.0137078830483895,19.301635420493
0.0149433749051152,19.3064838071569
0.0164184416426675,19.3115483042448
0.0183013641135502,19.3171753551603
0.0207315079009874,19.323526266873
0.0222839390396508,19.3272784213402
0.0238646529169916,19.3310305758074
0.0252410577315833,19.3343996326451
0.0264021419059169,19.3375036265168
0.0273573012930848,19.3405059004481
0.0280519414687354,19.3433646237489
0.0284802435666236,19.3461608520599
0.0286279191393914,19.3490267890649
0.0284348127997857,19.3521756916495
0.0276310469437383,19.3563504725247
0.0267724300918604,19.3591914863943
0.0257120113239037,19.362032500264
0.0246375643323856,19.3645611715151
0.0235647380355176,19.3668997923904
0.0224908352942763,19.3691364544169
0.0214176712033077,19.3713165311686
0.0203487074194236,19.3734669867018
0.0192876639621187,19.3756060849527
0.018238115662316,19.3777473576548
0.017203383284314,19.37990151137
0.0161865073389318,19.3820774816821
0.0151902511299283,19.3842830679895
0.0142171121292681,19.3865253468609
0.013269330874626,19.3888109697993
0.0123489046192986,19.3911463760381
0.0114576418159254,19.3935379707201
0.0105970958316085,19.3959922844038
0.00976858000182791,19.3985160938175
0.00897319730514015,19.4011165790769
0.00819806996853568,19.4038520572656
0.00743682651348544,19.4067728141541
0.00669324554252121,19.4099006094942
0.00597119786527662,19.4132610450671
0.00527475457794406,19.4168837319253
0.00460814315328465,19.4208030394185
0.00397566423216577,19.4250591185912
0.00338155186937087,19.4296994759446
0.0028297595976604,19.434781707215
0.00232367756871654,19.4403785087414
0.00186589960106502,19.4465857836452
0.00146197742374531,19.4534610682576
0.00112289525419313,19.4608688110157
0.00084187175611957,19.4689175013006
0.000621133901593061,19.4777522255211
0.000479511572668522,19.4858895277513
0.000355533760058761,19.4957632789599
0.000267740219341002,19.5057632789599
0.00020665663200144,19.5157632789599
0.000164686807560273,19.5257632789599
0.00013632822940349,19.5357632789599
0.000117534561480549,19.5457632789599
0.000105410127692073,19.5557632789599
9.79482133012158e-05,19.5657632789599
9.37851722915698e-05,19.5757632789599
9.19993645132948e-05,19.5857632789599
9.19669773760061e-05,19.5957632789599
9.32664510689853e-05,19.6057632789599
9.56165464570075e-05,19.6157632789599
9.88354974780734e-05,19.6257632789599
0.000102813291161702,19.6357632789599
0.000107492612670184,19.6457632789599
0.000112855915955545,19.6557632789599
0.00011891700501796,19.6657632789599
0.000125715998449456,19.6757632789599
0.00013331688907864,19.6857632789599
0.00014180719410814,19.6957632789599
0.000151299437073175,19.7057632789599
0.00016193441997229,19.7157632789599
0.000173886450474226,19.7257632789599
0.000187370913417872,19.7357632789599
0.000202654855057126,19.7457632789599
0.000220071633380637,19.7557632789599
0.000240041254509987,19.7657632789599
0.000263098887192604,19.7757632789599
0.000289935435484039,19.7857632789599
0.000321456326717865,19.7957632789599
0.000358868519932717,19.8057632789599
0.000403812450900085,19.8157632789599
0.000458567743898809,19.8257632789599
0.000520961492602573,19.8350313352809
0.000591710148869503,19.8435833285699
0.00067188850944626,19.85147373928
0.000762755983412582,19.8587545989517
0.000865750723781007,19.8654741876255
0.000982503800674421,19.8716772885585
0.00111486259917433,19.8774054671931
0.00126491939220989,19.8826973081399
0.00143504501685846,19.8875886172793
0.00162792532401409,19.8921126308377
0.00184660772784853,19.8963002240166
0.00209455349795666,19.9001801055159
0.00237570232915116,19.9037789886411
0.00269455193331904,19.9071217725042
0.00305625787456038,19.910231736973
0.0034667645333905,19.9131307373389
0.00393297537259291,19.9158394148116
0.00446298793327261,19.9183774505329
0.00506642769484476,19.9207638754215
0.00575493925147247,19.9230174804497
0.00651840626811998,19.9250964091659
0.00736229583302799,19.927023727459
0.00829962489429609,19.9288336746632
0.00935016685296661,19.9305614410415
0.0105471847270532,19.9322492034755
0.0119687971429641,19.9339757420049
0.0138924213325392,19.9359839499945
0.0155872117323639,19.9375469941348
0.0174252409908139,19.9391100382751
0.0191096313954514,19.940483215276
0.020583896902997,19.9416861616933
0.0219042825825053,19.9428094105989
0.023083674358994,19.943903731552
0.0241117501328126,19.945007534932
0.0249610928856782,19.9461635103794
0.0255788279487846,19.9474394442329
0.0258407212309023,19.9490035933441
0.0254851622469784,19.9508074079489
0.0245289011445513,19.9526112225537
0.023415842443859,19.954076721177
0.0221668151205511,19.9554684152544
0.0207763159217029,19.9568828650925
0.0192525817930474,19.9583641105646
0.0176027310329888,19.9599500110273
0.0158552338959519,19.9616881103727
0.014503002458861,19.9631343425392
0.0126834083638703,19.9652637192079
0.0110640054481016,19.9673867221352
0.00958026508622477,19.9695824401944
0.00811187972366119,19.9720736926069
0.00684892192332099,19.9745638874578
0.00610995308703873,19.976221165609
0.00544403933478315,19.9778784437602
0.00488510282585007,19.9794182992482
0.00438941954339978,19.9809240469133
0.00392345166305946,19.9824871466518
0.0034574301051873,19.9842279182342
0.00293925750302649,19.9864303475975
0.0023408283184657,19.989452484494
0.00187245298435435,19.992338690193
0.00151061252807438,19.9950397850837
0.00123372342907689,19.9975198925419
0.00100241384470773,20
