ecg,time
0.0161639371713999,15.0020935409385
0.0151652722941609,15.0043176781132
0.0141895180448832,15.0065797029979
0.0132389314650772,15.0088866071021
0.0123155258350818,15.0112452024055
0.0114210807445826,15.0136623123207
0.010557147530317,15.0161449506627
0.00972506710054754,15.0187004552446
0.00892597084502581,15.0213366688172
0.00815538791518734,15.0240821445053
0.0073987196862454,15.0270136883493
0.00665984048189137,15.0301526778551
0.00594259302812475,15.0335247424674
0.00525101439934166,15.0371595223155
0.00458929242101676,15.0410914165439
0.00396167924481937,15.0453606362352
0.00337235493954713,15.0500147912257
0.00282522676245398,15.0551115629171
0.0023236354403833,15.0607238874733
0.00187015047561238,15.066947913825
0.00146952776597543,15.0738560808762
0.0012101682955954,15.0794281104266
0.00101050338235234,15.085000139977
0.000796261763941441,15.0929642070382
0.000632231156079029,15.1012772630691
0.000499917492175188,15.1105048901349
0.000400534084632049,15.1205048901349
0.000334765482612999,15.1305048901349
0.000293188513979162,15.1405048901349
0.000268959713405122,15.1505048901349
0.000257273475681084,15.1605048901349
0.000254912059088509,15.1705048901349
0.000259832990258681,15.1805048901349
0.000270841795279343,15.1905048901349
0.000287372312360193,15.2005048901349
0.00030936427192125,15.2105048901349
0.000337219156416062,15.2205048901349
0.000371823891121645,15.2305048901349
0.000414647657861482,15.2405048901349
0.000466080122284994,15.2501843444621
0.000525109010501336,15.2591446332153
0.000592473843288674,15.2674241633253
0.000669210994047191,15.2750745175153
0.00075655866342607,15.2821441067104
0.000855944236873843,15.288677881058
0.000968994256580742,15.2947176122475
0.00109755506434486,15.300302149431
0.00124371955709059,15.30546763777
0.00140985828411298,15.3102477150333
0.00159865610047879,15.3146736962351
0.00181315548092244,15.3187747491361
0.00205680866721748,15.322578059168
0.00233354022356943,15.3261089889238
0.00264782531822294,15.3293912401599
0.00300478756453791,15.3324470213145
0.00341032541738828,15.3352972229397
0.00387127910398097,15.337961612202
0.00439565773312881,15.3404590610486
0.00499295982570227,15.3428078282793
0.00567464424657787,15.3450259365034
0.00643283863894195,15.3470773474873
0.00727063779848219,15.3489772291895
0.00820030215111062,15.3507585733407
0.00924029065899535,15.3524549111686
0.0104209547604032,15.3541052035603
0.0118105011167229,15.3557779801499
0.0136416877471446,15.3576748025121
0.0154843256713006,15.3593490755183
0.0175078827130521,15.3610233485244
0.0192582105392582,15.3624027775206
0.0207719501852616,15.3635935087175
0.0221266861940045,15.3647016724395
0.0233386598735512,15.3657796193465
0.0243984841488902,15.366865560041
0.0252793602744037,15.368001276087
0.0259294540594335,15.3692521595831
0.0262288844947419,15.3707769247541
0.0259030712119641,15.3725772173811
0.0249479617294605,15.3743775100081
0.0238261462784143,15.3758326986669
0.0225640649953604,15.3772119823473
0.021155028541785,15.3786144910362
0.0196068070062112,15.3800848019005
0.017926128040056,15.381661035023
0.0165736192101707,15.3829553119523
0.015294499887202,15.3842495888815
0.0127554746488179,15.3870920009203
0.0105000793564043,15.3900324257571
0.00873820371041077,15.3927229905432
0.00732935998002014,15.3952276605555
0.00611779994209192,15.3977310916227
0.00505606767412322,15.4002920214093
0.00412294830051933,15.4029351013939
0.00330211775359979,15.4056833723294
0.00259818485564476,15.4084822554411
0.00203820280912534,15.4111140618824
0.00158225150449688,15.4136187229265
0.0012010874962583,15.416043916599
0.00087535977129625,15.4184276251396
0.000593211989050921,15.4207886370732
0.000346345753701937,15.4231376382029
0.000125365030125229,15.4255171380079
-8.43020983742555e-05,15.4280690800176
-0.000274451328965947,15.4306804393719
-0.000402613272366327,15.43262564382
-0.000520984140253849,15.4345708482681
-0.000619187454937631,15.4363023576028
-0.00070611258549428,15.4379300301699
-0.000788690050163175,15.4395630522167
-0.00087224360690271,15.4413046922504
-0.000964135031922754,15.4433268966806
-0.00108720873857488,15.4462142628081
-0.00123225023978935,15.4498840119715
-0.00134555996090319,15.4529568187669
-0.00144974878932673,15.4559485161153
-0.00156206483961409,15.4593680260171
-0.00169453100460358,15.4637160804327
-0.00184803118693602,15.4694661676677
-0.00194611495451367,15.4743717770515
-0.00198897019536692,15.4787861395011
-0.00196692059717102,15.4827222260559
-0.00187206934373405,15.4862659383213
-0.00169628114536985,15.4895002832326
-0.00143080859864095,15.4924923153384
-0.00106810058146305,15.4952797631965
-0.000600194107288751,15.4979000064252
-1.18259227132669e-05,15.5004129216466
0.000729793402537726,15.5029085100103
0.0016949647508396,15.5055266554188
0.00302932276757111,15.5084896113705
0.00471110802111042,15.5116130405005
0.00620071696926362,15.514021550747
0.00787763201548055,15.5164300609934
0.00947281969980857,15.5184606610359
0.0110352271819238,15.5202255470266
0.012693661883579,15.521881964117
0.0144643244219862,15.5234355573414
0.0164075479601585,15.5249251034391
0.0185518238646208,15.5263538369826
0.0209359690518091,15.527729642998
0.023590963641195,15.5290531599346
0.0265579559287927,15.5303288417927
0.0298724965304801,15.5315569134701
0.0335843928860651,15.5327416395851
0.0377460696579358,15.5338857645749
0.0424177639356954,15.5349921842081
0.0476682261339292,15.5360637194724
0.0535841264892253,15.5371044663477
0.0602660154857605,15.5381181174223
0.0678353960227469,15.5391086455178
0.0764412325445619,15.5400804124124
0.0862682369384441,15.5410382328141
0.0975531423622713,15.541987879088
0.110604736415577,15.5429362871024
0.125839954753128,15.5438922782169
0.143849185652359,15.5448678923202
0.165130221811471,15.5458638264116
0.189803032124091,15.5468652795688
0.218547205117054,15.5478841091355
0.252297793651085,15.5489376638989
0.292510269500856,15.5500560106879
0.328360371760843,15.5509709793673
0.366057365497798,15.5518859480467
0.399359465629389,15.5526830515486
0.428404621088546,15.5533967437107
0.453794446193025,15.5540650970825
0.47561216307112,15.5547138714635
0.493544655610145,15.5553647071468
0.506840428895898,15.5560411664675
0.5140017720623,15.5567766797407
0.512106314753841,15.5575911256138
0.499034011564023,15.5584221231739
0.473514719346812,15.559285332111
0.433912588169455,15.560192240749
0.378411603745674,15.5611517322159
0.33521225392614,15.561779054717
0.287442392535862,15.5624063772181
0.244727368629966,15.5629338270737
0.207951491271202,15.5633768289986
0.175544937577514,15.5637678194574
0.146460996272652,15.5641263822475
0.120061488147285,15.5644646426147
0.0959050437867575,15.5647913960778
0.0736309043617945,15.5651144334957
0.0528650625619131,15.5654427775921
0.033035588166806,15.5657917112766
0.0124015520185291,15.5662098125439
0.00132562192173369,15.566468319315
-0.00600010371452637,15.5666575664579
-0.0126929854395486,15.5668468136008
-0.0185400851611908,15.5670281496072
-0.0245045894468348,15.5672325870194
-0.0303135986859352,15.567456065193
-0.0357865167355576,15.5676958884259
-0.0408225714894201,15.5679509705345
-0.0453685289749443,15.5682212746339
-0.0493982694537191,15.5685074924913
-0.0531653887013888,15.5688375864689
-0.0560595467807537,15.5691590973739
-0.058436450406624,15.5695014112181
-0.0603129247665738,15.5698677686362
-0.0617031070168113,15.5702616866718
-0.0626207248085905,15.5706874985457
-0.0630776233653803,15.571150593641
-0.0630821576699939,15.5716577685159
-0.0626372154266488,15.5722177678024
-0.0617351058633147,15.5728435241625
-0.0603540110227488,15.5735518366212
-0.0584492086245512,15.574367471259
-0.0559295259086969,15.5753317169409
-0.0525772814092066,15.576531039148
-0.0485273805243837,15.577934702271
-0.0446020073452981,15.579289871496
-0.0408545608417641,15.5806027623455
-0.0373111749481946,15.5818762465522
-0.0339850146890722,15.583111483829
-0.0308818149896427,15.5843087634887
-0.0280023533716209,15.585467947562
-0.0253437697899467,15.5865887038392
-0.0229004182030341,15.5876706265892
-0.0206645122932712,15.5887132946585
-0.0186266664940901,15.5897162927205
-0.0167763703576956,15.5906792094693
-0.0151024081828265,15.5916016203119
-0.0135298677746529,15.5925212456776
-0.0120168405996947,15.5934644256902
-0.0105677985850642,15.5944327666171
-0.00918667202823853,15.5954283949878
-0.00787719188335058,15.5964538066459
-0.00664283698146988,15.5975119602182
-0.00548678184325932,15.5986063981213
-0.004411842075754,15.5997414096663
-0.00342041722910711,15.6009222560865
-0.00251443050219939,15.6021554896222
-0.00169526391722128,15.6034494209444
-0.000963686209657508,15.604814831323
-0.000319768076473552,15.6062661116004
0.000237226012179728,15.6078231993883
0.000694351088088193,15.6094550934594
0.00105296103060761,15.6111351392226
0.00132923535748591,15.6128816699699
0.00153773438689038,15.6147163955385
0.00169217670069072,15.6166684472723
0.00180588381316944,15.6187793754325
0.00189246587975374,15.6211136849615
0.00196719410809165,15.6237851094003
0.00205108582600261,15.6270454484428
0.00216001932702618,15.6307883645758
0.0023025825586902,15.634819734674
0.00247269712996249,15.6389140897872
0.00265162121627889,15.642796302761
0.00283729421916234,15.6465910387611
0.00302886720203663,15.6503738345224
0.00322654654178547,15.6541952114475
0.00343149272638997,15.6580941772798
0.00364565158155457,15.6621042083727
0.00387160491571948,15.6662564101628
0.00411247071655179,15.6705815491061
0.0043718714703226,15.6751114982057
0.0046540252464298,15.6798806451161
0.00496402256031946,15.6849272928945
0.00530836988924321,15.6902948499242
0.0056645191363735,15.6955746476521
0.00603676929248003,15.7007975759289
0.00642590398195186,15.7059326719788
0.00683573002575042,15.7109867416075
0.00727036718791028,15.7159644289082
0.00773466457908015,15.7208734031728
0.00823383841253337,15.7257191211718
0.00877354552528399,15.7305050145456
0.00935993966874486,15.7352323662749
0.00999978087292274,15.7399007284264
0.0107035818987102,15.7445274221301
0.011495121676264,15.7491907556274
0.0123894571688463,15.7538839852685
0.0134098944340971,15.7586261652857
0.0145897389192877,15.7634549175687
0.0159855934161876,15.7684606159593
0.0177232670461477,15.7738941551414
0.020136260288749,15.7804489181098
0.0217328498101448,15.7844024489313
0.023381595449687,15.7883559797528
0.0248204729632885,15.7918611832449
0.0260332549689205,15.7950349703367
0.0270407942197964,15.7980652405635
0.0278064969451249,15.8009777876531
0.0283059189315119,15.8037947364781
0.0285318377722146,15.8066409575358
0.0284416054397784,15.809694406314
0.0278729743591771,15.8134200794381
0.0270533811234386,15.8165211690889
0.0259744573177071,15.8196222587397
0.0248911673225684,15.8222759911545
0.023816963145167,15.8246794706801
0.0227426836837243,15.8269573371718
0.0216684447200611,15.8291667159053
0.0205973624633382,15.8313392955356
0.0195331300211597,15.8334957536848
0.0184793811367238,15.8356510509861
0.0174395191010001,15.8378168274882
0.0164166717459759,15.8400026761518
0.0154136890159117,15.8422168890597
0.014433150923268,15.8444669383698
0.0134773779375698,15.8467598098064
0.0125484450504824,15.8491022412296
0.0116481880968597,15.8515009275206
0.010778214472088,15.8539626856053
0.00993991630578423,15.8564945959187
0.00913447322399562,15.8591041699535
0.0083611045634126,15.8618058934998
0.00760076252124764,15.8646887237999
0.00685732899800732,15.8677730813868
0.0061346001669526,15.8710836813644
0.00543657727175443,15.8746490719896
0.00476742730213079,15.8785023481998
0.00413140752730604,15.8826821196403
0.00353274471479552,15.8872339248914
0.00297544949211391,15.8922125902519
0.00246304677994607,15.8976866636885
0.0019983342933778,15.9037457241874
0.00158333429092631,15.9105104385929
0.00123340618490229,15.9178122100962
0.000953088385045002,15.9257295715656
0.000731687544931173,15.9348215660918
0.000595482266904373,15.9427301282149
0.000476734428077545,15.9522502118661
0.00039228770520975,15.9622502118661
0.000338246261059141,15.9722502118661
0.000306490197831568,15.9822502118661
0.000291165603769845,15.9922502118661
0.000288231611234348,16.0022502118661
0.000295110630826038,16.0122502118661
0.000310366706577628,16.0222502118661
0.000333459750907895,16.0322502118661
0.000364610637115264,16.0422502118662
0.000404786189224581,16.0522502118662
0.000455812036142061,16.0622502118662
0.000515745902402916,16.071561023862
0.000584805177715442,16.0801505398724
0.000663915714577551,16.0880733793308
0.000754298123946614,16.0953829968295
0.000857410164092348,16.1021287276276
0.000974938795886908,16.1083561141722
0.00110881413181884,16.1141072787559
0.00126123411721534,16.1194212348857
0.00143469690009665,16.1243341516099
0.00163203910491668,16.1288795942752
0.00185648389983964,16.1330887485485
0.00211169819857975,16.1369906292703
0.00240186440261415,16.1406122772616
0.00273176998445681,16.1439789574758
0.00310692270752481,16.1471143667247
0.00353370297842739,16.1500408557046
0.00401956921980255,16.1527796808585
0.00457334698866384,16.1553513131284
0.00520565189204129,16.157775842372
0.00592301135605512,16.1600546466258
0.00671759614495257,16.162159552364
0.00760093334431775,16.1641277132891
0.00859102266321162,16.1659978809651
0.0097177218552913,16.1678149099244
0.0110397356247429,16.1696458961502
0.0127673288479647,16.1717023629045
0.0144424961164435,16.173455664898
0.0162747595153305,16.1752089668915
0.0178798443379298,16.1766756599945
0.0192691793800221,16.1779451066511
0.0205088165829792,16.1791255329847
0.0216124669500615,16.1802717780272
0.0225705254131532,16.1814236874507
0.0233571352613664,16.1826241596446
0.0239230163347629,16.1839389458539
0.0241566288651504,16.1855222691475
0.0238057825881732,16.1874125614542
0.0228619377871195,16.1893028537609
0.0217699019894004,16.1908259137547
0.0205571107082855,16.1922561624435
0.0192163573875621,16.1936987449848
0.0177555687564721,16.195199191028
0.0161825787605545,16.1967942067764
0.0145363372208011,16.1985277953692
0.0128311871703561,16.2004858595764
0.0106395306784785,16.2033303847268
0.00884474903591321,16.206039419222
0.00740162228351966,16.2085680989443
0.00616467757699761,16.2110807091743
0.00507868414356385,16.2136480328846
0.00412183687448442,16.2162955639746
0.00329167139749087,16.2189964806229
0.00262487121327188,16.221538345295
0.00208085101936823,16.2239429523686
0.00162814529809684,16.2262412756386
0.00124314720753619,16.2284685543477
0.000907601920391246,16.2306671098786
0.000606069276581134,16.2328963191118
0.00032151629175236,16.2352699506044
1.42271169487259e-05,16.238194456463
-0.000162812050608265,16.2400829631826
-0.000325637132766409,16.2419714699022
-0.000462022495981367,16.2436770147286
-0.000580973805645868,16.2452644273481
-0.000692455798664036,16.2468422226232
-0.000803624674737536,16.2485069244266
-0.000923274980960437,16.2504048653001
-0.00107397222312682,16.2529571535289
-0.00129839763208663,16.2570982897179
-0.00147457186446844,16.2606371117906
-0.00162433638370504,16.2638439987167
-0.00178359885376053,16.2674579580265
-0.00197963288981239,16.2722275632806
-0.00218894435352768,16.2779325169719
-0.00233299281536408,16.2828702129402
-0.00241123562371287,16.2873335264167
-0.00241240324839833,16.2913290591382
-0.00232921352016955,16.294913175515
-0.00215700732109673,16.2981492757514
-0.00189196168726285,16.3011045161862
-0.00152862353444929,16.3038461577019
-0.00105629470005826,16.3064457887961
-0.000453910815414367,16.3089848710307
0.000329344390292613,16.3115991630819
0.00140345887002114,16.3145071755699
0.00279520929811462,16.3176612306003
0.00432556470084512,16.3207003868072
0.00564004305165584,16.3230794549508
0.00707140540519642,16.3254585230944
0.00840517897493565,16.3274712234965
0.00976714438582223,16.3293208443687
0.0111592967737702,16.3310042188568
0.0126779728545535,16.3326245745313
0.0143382989926197,16.3341738869464
0.0161852687085949,16.3356717004141
0.018239646479167,16.3371128524038
0.0205373327821917,16.3385032057593
0.0231014945314311,16.3398393807525
0.0259706639748339,16.3411259986575
0.0291819697815124,16.3423649032023
0.0327772542860346,16.3435583410879
0.0368023785883089,16.3447083694055
0.0413174769242116,16.3458192175515
0.0463894175667374,16.3468942169085
0.0520970364603923,16.3479368408954
0.058534174809621,16.3489507280683
0.0658124964354204,16.3499395726027
0.0740699917494145,16.3509076413
0.0834756578851625,16.3518594451833
0.0942414778097893,16.3528000821263
0.10663919595763,16.3537355318997
0.121026498582109,16.3546731043617
0.137892494555284,16.3556223042253
0.157939318785374,16.3565963223703
0.181330619437325,16.3575793152627
0.208477476376627,16.3585712633307
0.240153018605464,16.3595849550669
0.277450843456936,16.3606401247559
0.322022980939168,16.3617704554163
0.356747805150183,16.3625897465876
0.392600415774291,16.3634090377589
0.424492762048438,16.3641407793315
0.452415388079667,16.3648106887939
0.476734312095365,16.3654497065044
0.497364495019228,16.3660812606307
0.513802859199976,16.3667278821881
0.524968078897285,16.367418329309
0.528543949027233,16.3682026629773
0.52138929598636,16.3690129450271
0.502248431030457,16.3698515681953
0.469566361109014,16.3707331097262
0.4214519121519,16.3716675917241
0.373768326252156,16.3724124966715
0.318729277189778,16.3731574016189
0.270084517495987,16.3737585840675
0.22940347795964,16.3742406591419
0.194245484385901,16.3746532758162
0.163035106301195,16.3750243142224
0.134896138328461,16.3753693697318
0.109275573125389,16.3756986841041
0.0857636676861534,16.3760203760994
0.0639906632502943,16.3763425721298
0.0435033443467971,16.3766765061414
0.0233709303440947,16.377047197934
0.00840719737365427,16.3773628137931
-0.00010054684689327,16.3775637002963
-0.00784922998562949,16.3777645867996
-0.0143122894755484,16.377948672408
-0.0202923519658833,16.3781359146908
-0.0262889337519482,16.3783444501888
-0.0320614640303346,16.3785707893696
-0.0374578301481091,16.3788128591938
-0.0423940586320269,16.3790699618765
-0.0468268601380841,16.3793423137312
-0.0507368708338846,16.379630790429
-0.0543544177347149,16.3799620198351
-0.0571289455597472,16.3802865688757
-0.0593869973469356,16.3806326019832
-0.0611457354107692,16.3810035067767
-0.062419602793283,16.381403018085
-0.0632221828683631,16.3818357508957
-0.0635646939841041,16.3823074719404
-0.0634542753992585,16.3828255020164
-0.0628915009695881,16.3833995619871
-0.0618647334991911,16.384043798707
-0.0603463028911598,16.3847769473348
-0.058280084961221,16.3856277184021
-0.0555478019741339,16.3866468048021
-0.0518331505352205,16.3879551082962
-0.0477883564759478,16.3893466096465
-0.0438836443711124,16.3906932018626
-0.0401645523982273,16.3919991404945
-0.0366531976003271,16.3932665504775
-0.0333607414146393,16.3944961916072
-0.0302917747761254,16.3956881334635
-0.0274463441561104,16.3968421155391
-0.0248210850154011,16.39795773661
-0.0224099893914858,16.3990345516908
-0.0202050103208665,16.4000721166708
-0.018196580439944,16.4010700015952
-0.0163740719576655,16.4020277839191
-0.0147262057110308,16.4029450279575
-0.0131656606799066,16.4038674028355
-0.0116653401400401,16.4048134790607
-0.0102295769594384,16.4057849648947
-0.00886228491749172,16.4067840264046
-0.00756717344413534,16.4078132096401
-0.00634769578567765,16.408875536546
-0.00520699689016471,16.4099746302948
-0.00414785907004373,16.4111148846824
-0.0031726453260756,16.4123016985738
-0.00228323977187409,16.4135418095756
-0.00148098386914404,16.4148437849944
-0.000766605868451767,16.4162187738964
-0.000140138373788361,16.4176817180004
0.000399186263831582,16.4192534291756
0.000835906712414925,16.4208901173582
0.00117618484703064,16.4225772543916
0.00143582565825826,16.4243332430173
0.0016291822975122,16.4261805318452
0.00176978689607384,16.4281494345321
0.00187079716352385,16.430283577325
0.00194569005871942,16.4326515541518
0.00200968871527634,16.4353768209717
0.00208424546801227,16.4387444260887
0.00218236888507343,16.4424994499889
0.00231598933371158,16.4465944908879
0.00247677577255772,16.450739563538
0.00264529778762276,16.4546429940824
0.00281960231247902,16.458444288643
0.00299902204941151,16.4622248609362
0.00318389180622439,16.466037789029
0.00337542059204408,16.4699233403141
0.00357552086510847,16.4739156380566
0.00378666376495834,16.478046085698
0.00401178520186291,16.4823455418975
0.00425425373036063,16.4868458329944
0.00451794552773936,16.4915811630903
0.00480748667577507,16.4965895684438
0.00512873307921601,16.5019141591785
0.00546933014737011,16.5072890105567
0.00582224717768256,16.5125624603672
0.00619167315247488,16.5177601596539
0.00657971350517722,16.522868196058
0.00699053753633816,16.5278969600859
0.00742850183774553,16.5328532871288
0.00789846419465094,16.5377441836866
0.00840562510423059,16.5425740723664
0.00895563737485265,16.5473452712383
0.00955468888896916,16.5520581057599
0.0102096343259459,16.5567115001221
0.0109357957833908,16.5613501929698
0.0117536463192115,16.566021684918
0.0126804550644988,16.5707273496061
0.0137416465557748,16.5754896035326
0.0149752607115152,16.5803566769521
0.016449986529054,16.5854469440478
0.0183384806734132,16.5911203507488
0.0207559954564614,16.5974759583268
0.0222966929911454,16.6012281388909
0.0238628613077688,16.604980319455
0.0252254654195069,16.6083529933771
0.0263742855225933,16.6114657568027
0.0273175080464985,16.6144806998407
0.0279996396319478,16.6173516697299
0.0284155045443924,16.6201635383578
0.0285497708895759,16.6230505671229
0.0283395790886279,16.6262331428097
0.0274938905666693,16.6305134386292
0.0266275241563305,16.6333418149552
0.0255667298281285,16.6361701912812
0.0244918320519637,16.6386995371722
0.0234181078730513,16.6410457902459
0.0223434394828745,16.6432933667142
0.0212698037163134,16.6454864272587
0.0202006820310459,16.6476515152
0.0191397795910787,16.6498067578705
0.0180906494303416,16.6519656805587
0.0170565892242268,16.6541390617123
0.0160406177100894,16.6563359640398
0.0150454773598072,16.6585643630797
0.0140736460592642,16.6608315590475
0.0131273460506953,16.6631444778604
0.0122085571260853,16.6655098917461
0.0113190269084113,16.6679346038078
0.0104602758974289,16.6704256244217
0.00963361511693331,16.6729903031505
0.00884014738237602,16.6756365080455
0.00807163191260792,16.6784071268651
0.00731764048823129,16.6813666320479
0.00658203195007713,16.6845370524424
0.00586868975479048,16.6879445712385
0.00518168777008205,16.6916195023582
0.00452524449824273,16.6955970737229
0.0039036307998542,16.6999185585788
0.00332102534100208,16.7046330206979
0.00278130944368736,16.7098002605461
0.00228776694807315,16.7154966081066
0.00184291696081403,16.721823504502
0.00145433777364184,16.728801468469
0.00113595043037358,16.7363297700037
0.00094511707516024,16.7426089836578
0.000757759673987962,16.7508721302605
0.000614321483388272,16.759660414847
0.000502255535596741,16.7696240203329
0.000430319840143454,16.7796240203329
0.000388334076650816,16.7896240203329
0.000368690602636488,16.7996240203329
0.000366171414897785,16.8096240203329
0.000377527843821156,16.8196240203329
0.000401123855987452,16.8296240203329
0.00043668020765315,16.8396240203329
0.000485186120634461,16.8496240203329
0.000545000112431651,16.8590515629028
0.000615261404633742,16.8677467253854
0.000696515638254256,16.8757614743662
0.000789797840173702,16.8831512038998
0.000896481567455948,16.8899670264958
0.00101822907328661,16.8962559940343
0.00115698447217826,16.9020615289107
0.0013149882498959,16.9074237813529
0.00149480528189693,16.912379924641
0.0016993614930417,16.9169644223214
0.0019319932679767,16.9212092755703
0.0021965074415027,16.9251442532943
0.00249725886941835,16.928797106208
0.00283924795613066,16.9321937842019
0.00322824886439579,16.9353586682233
0.00367098151997166,16.9383148226974
0.00417534732171486,16.9410842884909
0.00475076858456969,16.9436884552889
0.00540869738765413,16.9461485697926
0.00614888583583565,16.9484453470975
0.00697097737322436,16.950578133652
0.00788952510060292,16.9525873850193
0.00892806983775872,16.9545175573464
0.0101295070763757,16.9564274537037
0.0115942351657922,16.9584284344073
0.0137893699445355,16.9609927574648
0.0152331562163784,16.9625050191893
0.016750084845008,16.9640172809138
0.0181283585793094,16.9653745801647
0.0193557440030721,16.9666182074104
0.0204501644641036,16.9678098354856
0.0214075649117854,16.9689924921526
0.0222080535819584,16.9702070700237
0.0228131509954574,16.9715086541008
0.0231446057459616,16.9730052722324
0.0229378674439279,16.9751093731792
0.0222836648759885,16.9767392480227
0.0212838568440799,16.9783691228662
0.0201564116442371,16.9798449191786
0.0189060655609889,16.9812989623674
0.0175403674039245,16.9827882221326
0.0160688674521265,16.9843499188117
0.0155909742899922,16.9848556165113
0.0151162537853806,16.985361314211
0.0144848504331614,16.9860511896578
0.0122839784181823,16.9886507638429
0.0101734719007083,16.9915152577275
0.00848428647276594,16.9941800099632
0.00711562548705753,16.9966806473042
0.0059199527558092,16.9992110384358
0.00486773381606452,17.0018040859201
0.00394571038587138,17.0044641262785
0.00319002575826518,17.0070144040214
0.00255891866676682,17.0094902362416
0.00201762927817931,17.0119478010119
0.00153397250629494,17.0144874893769
0.00106066757065044,17.0173872050644
0.000738588106653589,17.0196641030025
0.000453174799235031,17.0219410009406
0.000232954017801049,17.0238988472999
5.12773400645246e-05,17.0256687731514
-0.000112351873403885,17.0273997638534
-0.000269450957757645,17.0291991022128
-0.000431002515428512,17.0312064360483
-0.000618367699807349,17.0337576723678
-0.000919819742626433,17.0384350817226
-0.00114848227528007,17.0425294499793
-0.00132451125255391,17.0460484339308
-0.00149829778258012,17.0498790291251
-0.00169557275925966,17.0547616610797
-0.00187783914661115,17.0601351708821
-0.00199531680411814,17.064884404758
-0.00204653943665943,17.0692032110809
-0.00202247357268032,17.0731110463908
-0.00191552556512182,17.0766588842245
-0.00171955840515273,17.0798966385881
-0.00142882438626507,17.0828815884127
-0.00103491816957421,17.0856804810212
-0.000522553019051525,17.088369873709
0.000140211167139304,17.0910544698427
0.00103420014948972,17.0939315293677
0.00222697822899734,17.0970620464279
0.00374464239235203,17.1004140731811
0.00509661088629448,17.1030339979082
0.00628760680817684,17.1051228641344
0.00760275832641818,17.1072117303607
0.00896011706583691,17.1091420997679
0.0103712084974293,17.1109245035567
0.011865334317371,17.1125886296351
0.0135085529405828,17.1141914863711
0.0153073810156961,17.1157188952343
0.0173094272539265,17.1171926293777
0.0195346981858275,17.1186081905726
0.0220199468111564,17.1199718345404
0.0247972920434524,17.1212847371122
0.0278988149090295,17.1225472690111
0.0313700906193345,17.1237640090334
0.0352584932678052,17.1249377401391
0.0396189692827827,17.126071534708
0.0445144600165705,17.1271684035033
0.0500232814064777,17.1282324065913
0.056236471390006,17.1292672686362
0.0632635687443481,17.1302769430514
0.0712381249783484,17.1312657080432
0.0803249574828744,17.132238253127
0.0907337134818037,17.1332001177238
0.102735060607119,17.1341578299937
0.116690875439611,17.1351195986156
0.133106422551939,17.1360964196848
0.152713785449313,17.1371034224217
0.175422053138618,17.1381127725552
0.201836915214898,17.1391355216539
0.232779855969117,17.1401874502277
0.269467724467584,17.1412938756735
0.311592681358869,17.1424410179809
0.351438621458825,17.1434558526897
0.385062450629117,17.1442936862196
0.414252217280923,17.1450354215561
0.439790958562541,17.1457252635928
0.461805965482155,17.1463900129242
0.480041109950227,17.1470510786624
0.493851162803973,17.1477303322129
0.501983596190677,17.1484561835029
0.501875356347595,17.1492767253418
0.490982521231639,17.1501105935378
0.46814012035343,17.150970753282
0.431854353462331,17.1518689810177
0.380441609411145,17.1528144696806
0.337775270424024,17.1534651097013
0.290044003347352,17.1541157497219
0.247238203066881,17.1546598476243
0.210445746505447,17.1551135569941
0.178055373144706,17.1555120270469
0.148994224031612,17.1558761652686
0.122617584306056,17.1562186755577
0.0984862292501828,17.156548580978
0.0762483022059084,17.1568736435536
0.0555520014891124,17.1572024592315
0.0358949568126204,17.1575486151665
0.0159551341321631,17.1579496908072
0.00767888368701871,17.1581370826589
4.69779080095142e-05,17.1583244745106
-0.00755041610459902,17.1585284071327
-0.0139900529713083,17.1587183393809
-0.0198679551835531,17.1589089917252
-0.025765699347195,17.1591214146639
-0.0314450212783053,17.159352023987
-0.0367541881728079,17.1595986451269
-0.0416096619564234,17.1598605329028
-0.0459684369314002,17.1601378859214
-0.0498620055031561,17.1604365731411
-0.0531264939279112,17.1607454866166
-0.0558718786397285,17.1610737774846
-0.0581098044323434,17.1614239715897
-0.059853365594697,17.1617990644262
-0.0611165090162205,17.1622027416134
-0.0619124775941727,17.1626395522264
-0.0622523181900619,17.1631151632357
-0.0621432466758065,17.163636740572
-0.061586314786999,17.1642137494563
-0.0605709973991727,17.1648599506192
-0.0590719736145466,17.1655933229717
-0.0570381787723014,17.1664410290164
-0.054364089432451,17.1674498214696
-0.0507820471610315,17.1687248653842
-0.0467882727113006,17.1701124536481
-0.0429354593044557,17.1714535274288
-0.0392695459892906,17.1727527540527
-0.0358122749187841,17.1740125896356
-0.0325742601797824,17.1752340065796
-0.0295594860449236,17.1764172197495
-0.0267674002962674,17.1775620736117
-0.0241940904948564,17.178668245647
-0.0218330780892269,17.1797353506549
-0.0196759370233115,17.180762989152
-0.0177128174306053,17.18175076244
-0.015932904134321,17.182698266509
-0.0143248195982874,17.1836050714162
-0.0127751054241818,17.1845336009805
-0.0112868304162666,17.1854861249635
-0.00986404129820156,17.1864645698221
-0.00851060241998654,17.1874711922177
-0.00723015685062477,17.188508651534
-0.00602607570036097,17.1895801115051
-0.00490140505628521,17.1906893753611
-0.00385881048662129,17.1918410694959
-0.00290051881106522,17.1930408993577
-0.00202825627805856,17.1942960165256
-0.00124318133136904,17.1956155639768
-0.000545808404546868,17.1970115211465
6.40842448195946e-05,17.1985000847146
0.000587577071824558,17.2001040833826
0.00100380764949499,17.201752087023
0.00132817679703856,17.2034554961158
0.00157599888883703,17.2052330286264
0.00176148677580531,17.207108852604
0.00189817098304273,17.209116074351
0.00199942217625797,17.2113033105218
0.00207932589991952,17.2137492709097
0.00215468803823763,17.2166027390302
0.0022524621868238,17.2202462814909
0.00237387899541614,17.2240453837845
0.00251961868550899,17.2278391089854
0.00268837515372477,17.231674051532
0.00287657737081512,17.2355890174972
0.00308087788312773,17.2396175431229
0.00329924752835274,17.2437909581559
0.00353128365582518,17.248140337709
0.00377815843964202,17.2526980660626
0.00404246412377981,17.2574992384242
0.00432813491118908,17.2625830565663
0.00464060274838752,17.2679941324703
0.00497080096128767,17.2735098635236
0.00530780630806428,17.2788952900345
0.00565744476718155,17.284201892651
0.0060213099636877,17.2894072293562
0.00640358785769655,17.2945267845132
0.00680821777319383,17.2995683348863
0.00723955884301832,17.3045408737293
0.00770214358962511,17.309450190114
0.0082008382672572,17.3142999427778
0.00874093208649472,17.3190917229953
0.00932826753144104,17.3238255352127
0.00996936246322775,17.3285001821654
0.0106737291627006,17.3331274634799
0.0114659173342964,17.3377921794556
0.0123606487047586,17.3424861551297
0.0133811316800745,17.3472285769892
0.0145604839501143,17.3520568113807
0.0159549395059759,17.3570605241003
0.0176890682048558,17.3624878062332
0.0201031029318307,17.3690509615522
0.0217029853562311,17.3730135353285
0.0233559495978424,17.3769761091048
0.0247978164898032,17.38048623716
0.0260129539045085,17.3836624227275
0.0270227765107517,17.3866936278401
0.0277914851963841,17.3896083982257
0.0282938136858739,17.3924264060837
0.0285227876036727,17.3952723186119
0.0284363013109677,17.3983231082173
0.0278747166638403,17.4020371777549
0.0270564208559438,17.4051486011202
0.025976502194084,17.4082600244855
0.0248926886425924,17.4109185244878
0.0238182170901196,17.4133246457301
0.0227436472624887,17.4156044783038
0.0216690273480276,17.4178155771179
0.0205974568407054,17.4199898103479
0.0195326221289061,17.4221479639783
0.0184781523331442,17.4243050822392
0.0174374460711137,17.4264728819959
0.0164136265956283,17.4286610338034
0.0154095385054761,17.4308779155725
0.0144277568983107,17.4331310958381
0.0134705967791404,17.4354276742972
0.0125401282660188,17.4377745231622
0.0116381830887129,17.4401784976428
0.010766364879568,17.4426466094984
0.00992606386537931,17.4451861733529
0.0091184594263482,17.4478049855472
0.00834453567786569,17.4505114737862
0.00758424418789668,17.4533974212612
0.00684085961186439,17.4564853605739
0.00611818182654661,17.4598000732572
0.00542020596713612,17.4633702350293
0.00475109188922158,17.4672291071214
0.0041150886678528,17.4714155183587
0.00351641418264301,17.4759752965485
0.00295907010939896,17.480963648515
0.00244656736439953,17.4864496876514
0.00198168518788674,17.4925238506733
0.00156641903958787,17.4993082163848
0.00130154992991672,17.5046691088532
0.00109595545813485,17.5100300013217
0.000880285878453684,17.5174636298318
0.000705659394804582,17.5255802863559
0.000565005843942063,17.5345386478954
0.00045625067200484,17.5445386478954
0.000385291365730593,17.5545386478954
0.000341732605083003,17.5645386478954
0.000318063717726718,17.5745386478954
0.000309056007969104,17.5845386478954
0.000311285490657114,17.5945386478954
0.000322699179047338,17.6045386478954
0.000342278357298655,17.6145386478954
0.000369832040923563,17.6245386478954
0.000405920536421032,17.6345386478955
0.000451904172526253,17.6445386478955
0.000507109258378777,17.6540616201592
0.000570807599172592,17.6628649037129
0.000643685852327475,17.6709937224497
0.000726781989054395,17.6785003935008
0.000821378550636591,17.6854336447541
0.000928977690353831,17.6918385983264
0.00105130605956763,17.6977570998031
0.00119033365706987,17.703228001178
0.00134830102963211,17.7082873975256
0.00152775163154931,17.7129688419637
0.00173157224388071,17.717303546425
0.00196304048511357,17.7213205704748
0.00222588403213969,17.7250469962771
0.00252435195962749,17.7285081006062
0.00286330580586146,17.7317275324417
0.00324833576339459,17.7347274981717
0.00368591269641496,17.7375289600152
0.00418359457435839,17.7401518652852
0.00475031453241735,17.7426154266633
0.00539679987576548,17.7449384869686
0.00612588797159786,17.7471119630943
0.00693189271871282,17.7491189542035
0.00782589058851652,17.750993999837
0.00882478512181965,17.752772347438
0.00995585764414626,17.7544935511126
0.0112703036545335,17.7562133994139
0.0129517756745374,17.7581072647354
0.0148725796451042,17.7599913019829
0.016487176375318,17.7614295182415
0.0181903439524199,17.7628677345002
0.0197133601610418,17.7641344617653
0.0210714338082349,17.7652933445084
0.0222882858245185,17.7664050037059
0.0233609081131634,17.7675105254123
0.0242689189683672,17.7686492824833
0.0249719859995201,17.7698752109015
0.0253868214476371,17.7712967373988
0.0252156800092413,17.7733576039326
0.0245507889010704,17.7748931087745
0.0235244855186677,17.7764286136164
0.022348825781761,17.7778371152206
0.0210292127296972,17.7792397461146
0.0195740708096055,17.7806896218346
0.0179925189391781,17.7822242122822
0.0169970285919333,17.7831898900888
0.0160252976905072,17.7841555678954
0.0144330623292099,17.7858372283946
0.01193550912952,17.7887972544045
0.00987620250247529,17.7916483782532
0.00825610114485542,17.794267616042
0.00693109165990892,17.7967568541905
0.00577489929402468,17.7992826742562
0.00475984542727364,17.8018756149251
0.00386708786806652,17.804559068688
0.0030815266652939,17.8073563687641
0.00244729237262701,17.8100303770142
0.00193033316156201,17.81258823051
0.00149762675445964,17.8150813315419
0.00112351456324616,17.817579419735
0.000785706050455074,17.8201927769809
0.000453794560053821,17.8231942233805
0.000222985249263335,17.8256080828255
1.89393971572622e-05,17.8280219422704
-0.000137303274940931,17.8300834735632
-0.00026480637925711,17.83192537782
-0.000378870372633793,17.8337107909584
-0.000487746458761642,17.8355501607269
-0.000598819605767049,17.8375772051353
-0.000725041014220799,17.840085145922
-0.00094445346811273,17.8450316541341
-0.00111527594026175,17.8494961456151
-0.00124110081138894,17.8532086417917
-0.00136036893504417,17.857157575981
-0.00148910756879565,17.8621472478274
-0.00158898280021822,17.8672964437092
-0.00163495485611381,17.8718891244794
-0.0016213029409462,17.8760468411672
-0.00153978234423344,17.8798022533484
-0.00138292041767688,17.883204582392
-0.00114336513846294,17.8863145796373
-0.000812154697732292,17.889198781715
-0.000377341709180539,17.8919198291221
0.000177684374031416,17.8945364356727
0.000877311566640534,17.8971086855948
0.00177013693272889,17.8997350612273
0.00294367317770818,17.9025466106562
0.0044941485183401,17.9056112428895
0.0062718492066788,17.9085591258513
0.00793275819835198,17.9109251398354
0.00951168372927967,17.9128935494694
0.0111250662324113,17.9146638831431
0.0128575153743253,17.9163339472395
0.0146973731341231,17.9178861456568
0.0167205250900498,17.9193748338556
0.0189609797287351,17.9208068387007
0.0214334742747505,17.9221756233906
0.0241887666157556,17.9234943356028
0.0272637659676676,17.924764747407
0.0306975303041978,17.9259882922665
0.0345425352242253,17.9271694890519
0.0388541167203738,17.9283112122741
0.0436942720597818,17.9294160756116
0.0491419336503915,17.9304882556866
0.0552876552830754,17.9315313871057
0.0622404172559296,17.9325493955682
0.0701327381620497,17.9335465249706
0.07912959944813,17.9345276187315
0.0894411911781904,17.9354983943152
0.101340039098265,17.9364656445318
0.115193168743099,17.9374380244458
0.131518739906281,17.9384273269179
0.150957809677533,17.9394442119271
0.173487976395923,17.9404649065383
0.199728663090801,17.9415014136634
0.230533252214212,17.9425711723837
0.267202755355468,17.9437030040238
0.308451434189087,17.9448573433737
0.346343814949952,17.9458552442878
0.37873549877691,17.9466941550919
0.407033015817782,17.9474445309594
0.431796015584268,17.948145486309
0.453064903544303,17.9488221160324
0.470541381437587,17.9494950763825
0.483555993384605,17.9501855840601
0.490851830239909,17.9509207724056
0.489943344644395,17.9517447185267
0.478400895419577,17.9525862701653
0.455052834856744,17.9534518333341
0.418468365262976,17.9543526175823
0.36705196577569,17.9552982987767
0.326048026100194,17.9559275737218
0.280480399004259,17.9565568486668
0.239442209268636,17.9570877743865
0.203896915374014,17.9575351342054
0.17244003627859,17.957930786319
0.144125555731748,17.958294004684
0.118371720112941,17.9586367849544
0.0947727069209198,17.9589678491599
0.0729948800543482,17.9592948920537
0.0526929988676258,17.9596267017786
0.0333494605772624,17.959977736428
0.0134895915407982,17.9603908677945
0.000912237193804196,17.9606935159907
-0.00630886845924106,17.9608875713895
-0.0129011709014697,17.9610816267883
-0.0186751586372263,17.9612682300315
-0.0245410300184358,17.9614779871934
-0.0302375309582616,17.9617068760602
-0.0355927609835955,17.9619522524184
-0.0405113570222997,17.9622130809342
-0.0449433332073253,17.9624893728781
-0.0489110031223351,17.9627863238799
-0.052256770853563,17.9630936841292
-0.0550849279384905,17.9634200700572
-0.057406007341215,17.9637678909129
-0.059232461162649,17.9641400114945
-0.0605779596346148,17.9645399562027
-0.0614558044542471,17.9649720662355
-0.0618774565250148,17.9654417304962
-0.0618509780606182,17.9659557292261
-0.0613791301964981,17.9665227617753
-0.060454147109097,17.9671557912002
-0.0590549002426298,17.9678713557011
-0.0571383938273142,17.9686937962484
-0.0546178102001275,17.9696633151805
-0.0512895074078288,17.9708625125806
-0.0472952493944761,17.9722587259344
-0.0434313119458766,17.973605616228
-0.0397491105586873,17.9749093187184
-0.0362731459645707,17.9761728776313
-0.0330153857299933,17.977397584115
-0.0299805619235813,17.9785838318977
-0.027168578844391,17.9797315684419
-0.0245758237734944,17.9808405319545
-0.0221960227807285,17.9819103739565
-0.0200208904769984,17.9829407180074
-0.0180406706894855,17.9839311808509
-0.0162446055068776,17.9848813700494
-0.0146213455463566,17.9857908657701
-0.0130633379046009,17.986718051308
-0.0115663809872081,17.9876691501105
-0.0101345874367757,17.9886460380575
-0.00877182872728401,17.9896509515334
-0.00748175660537067,17.9906865239091
-0.00626775186106365,17.9917558858142
-0.00513287104157209,17.9928627979196
-0.00407979056085606,17.9940118311358
-0.00311074785663799,17.9952086172512
-0.0022274786529349,17.9964602077793
-0.00143114836292264,17.9977756057644
-0.000722273812332948,17.9991665876462
-0.000100627805638721,18.000649041351
0.000434888876241808,18.0022452955051
0.000864320738595883,18.0038906585701
0.00120092491481141,18.0055902293454
0.00146021379161312,18.0073626406339
0.00165653641467162,18.009231638967
0.00180355895065643,18.0112296381602
0.00191479378611895,18.0134040030244
0.00200448332906854,18.0158308639862
0.00208960085416931,18.018652364702
0.00219702280502613,18.0222238606659
0.002329033623486,18.0260112762099
0.00248552756586676,18.0298089217605
0.00266500889555601,18.0336429820251
0.00286410596244219,18.037552981548
0.00307954162568291,18.0415728944078
0.00330931426271325,18.0457341874686
0.00355305421389585,18.0500678443097
0.00381199425911436,18.0546059641354
0.00408882307370513,18.0593831518536
0.00438760851569384,18.0644379006097
0.00471394712467518,18.069813833415
0.00505716867593886,18.0752718602315
0.00540793489485934,18.0806131336486
0.00577165281264978,18.0858777641651
0.00615021209271244,18.09104642931
0.00654788101413022,18.096132184572
0.00696883023688385,18.1011423755227
0.00741766104184157,18.1060851769121
0.00789919658610237,18.1109658615149
0.0084186241955885,18.1157875892706
0.0089815843623624,18.1205514764095
0.00959429922255246,18.1252570720324
0.0102637062586134,18.1299028707503
0.0110078329237546,18.1345476977577
0.0118455543920151,18.1392237394621
0.0127954088724574,18.1439365981306
0.0138842158026291,18.1487110962619
0.0151531706915076,18.1536025029088
0.0166795163718932,18.1587488502374
0.0186738008367917,18.164598315043
0.0205278799071199,18.1694414367001
0.0221048721810739,18.1732981195415
0.0237156218855401,18.1771548023829
0.0250994491720073,18.1805627482315
0.0262653324656557,18.1836899888524
0.027225946499736,18.1867077753399
0.0279304027255927,18.1895886105439
0.0283687673443534,18.1924007745524
0.0285279980333476,18.1952755159031
0.028351331721934,18.1984198912048
0.0275936760456122,18.2025151785863
0.0267409182109858,18.2054134252359
0.0256771872837195,18.2083116718856
0.0246007426500849,18.2108754610429
0.0235270776681314,18.2132385678177
0.0224525198458667,18.2154953658338
0.0213786029836318,18.21769353204
0.0203087221464467,18.219861090216
0.0192465854736234,18.2220169264178
0.0181957734904743,18.224175002665
0.0171596165268639,18.2263463686219
0.0161411673830247,18.2285402592184
0.0151432009446141,18.230764761906
0.0141682254528795,18.2330272484653
0.0132184937916523,18.2353346819557
0.0122960126556302,18.2376938538005
0.0114025572802536,18.2401115617663
0.0105396747964664,18.2425947919353
0.00970870002604692,18.2451508568771
0.00891075970947596,18.2477875656452
0.0081404543695293,18.250536899947
0.00738416206213546,18.2534727084558
0.00664575053653352,18.2566164765359
0.00592906758791316,18.2599939147081
0.00523815803363446,18.2636347414952
0.00457721315538214,18.2675734645853
0.00395048705131998,18.2718504244977
0.00336215788330064,18.2765134029366
0.00281612578692794,18.2816203294953
0.00231571798289609,18.2872445360631
0.00186348901082231,18.2934827718814
0.00146452127500407,18.3004013811008
0.0012151434226916,18.3057732347635
0.00101924238279767,18.3111450884263
0.000816999378706315,18.3184856347781
0.00064741646246521,18.3267943373795
0.000511811976515081,18.3359391111648
0.000408687674863763,18.3459391111648
0.000340265885634403,18.3559391111648
0.000296862468096515,18.3659391111648
0.000271446424419258,18.3759391111648
0.000259056482124536,18.3859391111648
0.00025635533007018,18.3959391111648
0.000261220825839505,18.4059391111648
0.000272414696684604,18.4159391111648
0.000289356165728062,18.4259391111648
0.000311995033118136,18.4359391111648
0.00034076724726138,18.4459391111648
0.000376623203095124,18.4559391111648
0.000421135225537257,18.4659391111648
0.000474154889306757,18.4755166018276
0.000535004921789156,18.484376036768
0.000604478747943706,18.4925599415802
0.000683655496133791,18.5001200518347
0.000773817616130225,18.507104731647
0.000876441476131187,18.5135588432671
0.000993209248451262,18.5195240435295
0.00112603067554063,18.5250390468695
0.00127707096033391,18.5301398495742
0.00144878298868496,18.5348599328586
0.00164394594500105,18.5392304532463
0.00186571064102802,18.5432804228608
0.00211765483044557,18.5470368783909
0.00240384959659756,18.5505250457457
0.00272894308231717,18.5537685081724
0.00309826604118333,18.5567893805204
0.00351796886165215,18.559608493599
0.00399520473172363,18.5622456019618
0.00453838143147839,18.5647196316368
0.00515752116358191,18.5670489930508
0.00586335950513779,18.5692479242651
0.00664290939136747,18.5712706450062
0.0075054218109993,18.5731506497172
0.00846500492748469,18.574921695506
0.00954330779613748,18.5766190917339
0.0107777441506886,18.5782869987306
0.0122761261497316,18.5800309009535
0.0143859705638572,18.5821366282516
0.0160292897504068,18.5835933822576
0.0177902645211185,18.5850501362636
0.0194328524367095,18.5863653193088
0.0208868347876887,18.5875393169161
0.0221915191842164,18.5886460227407
0.0233538370952452,18.5897315705207
0.0243601779297284,18.5908338799352
0.0251792676527168,18.5919980572818
0.0257502037442473,18.5933010344472
0.0259160026022339,18.5949588647474
0.0254587879297358,18.5966760506917
0.0244673434105576,18.5983932366361
0.0233295865947714,18.5998292114715
0.0220500731843558,18.6012143751694
0.020627042603056,18.6026306708702
0.0190690229395027,18.6041196888572
0.0173820995658877,18.6057199380743
0.0155999312252661,18.607481822812
0.0136779231933604,18.6095610471217
0.0112754616435443,18.6125172885718
0.00934619433532212,18.6152950041506
0.00781750665756269,18.6178619114062
0.00654026091376554,18.6203541227008
0.00542340122359652,18.6228920002958
0.00444218098552133,18.6255032879229
0.00357883999425799,18.6282111087355
0.00282188474363947,18.6310270741821
0.00222142453615309,18.6336694071785
0.00173545846387954,18.6361697887601
0.0013321339191313,18.6385723089871
0.000989472504323706,18.6409171292527
0.000692946099868754,18.6432337161776
0.000432662064568345,18.6455430118988
0.000199366587849833,18.6478835430564
-2.03282886546411e-05,18.6503727042607
-0.000265240907115322,18.653543826588
-0.000394219639542928,18.6554117197455
-0.000513674054219853,18.6572796129031
-0.000615135542163472,18.6589791670174
-0.000705576187640678,18.6605874033635
-0.00079185236633995,18.6622076282754
-0.000879526523801229,18.6639434661032
-0.000976652163256911,18.6659746490735
-0.00111028872853699,18.6689590160362
-0.00125707193532514,18.6724929703638
-0.00137309225750773,18.6754784966887
-0.00148205386884185,18.6784408234617
-0.00160070233820597,18.6818522601475
-0.00174216539068489,18.686216447381
-0.00190871777343961,18.6920121972292
-0.00201833453024442,18.6969510361994
-0.00207212034709763,18.7014014202165
-0.00205991173975362,18.7053688708109
-0.00197386706519061,18.708932761464
-0.00180652588049436,18.7121719941399
-0.00154973050599503,18.7151598371664
-0.00119570063015764,18.7179431732183
-0.00073603867749433,18.7205633353411
-0.000155233091509026,18.7230811561766
0.00058486291845896,18.7256038790821
0.00155956689438962,18.7282775222842
0.00288623340840204,18.7312628910186
0.00457029989589878,18.7344519898238
0.00603650679972173,18.7368863004033
0.00767679884171009,18.7393206109827
0.00922428327732836,18.7413650817759
0.010734564547923,18.7431405719826
0.0123265278117458,18.7447983591894
0.0140373126996492,18.7463650294061
0.0159102575420452,18.7478638808333
0.0179847425736615,18.7493069334659
0.0202886723992888,18.7506945580063
0.0228594604190698,18.7520316854211
0.0257325460160042,18.753320021143
0.0289420392635853,18.7545597418332
0.0325360795451902,18.7557552416545
0.036564210705203,18.7569090452351
0.0410816620476517,18.758023522667
0.0461576521958949,18.7591024447319
0.0518726460510741,18.7601494051324
0.0583215416118385,18.7611680117307
0.0656185806499079,18.7621621268213
0.0739029839966858,18.7631359354994
0.0833459995264228,18.7640939816004
0.0941660640074004,18.7650417182674
0.106643864461154,18.7659854764938
0.121152767765892,18.7669331424415
0.138209859125442,18.767895143812
0.158573067805623,18.7688863820747
0.18215833218192,18.7698798929898
0.209570143436187,18.7708854239251
0.241631279655008,18.7719174826036
0.279542843587182,18.7729992490492
0.323756391302011,18.7741364992606
0.365106540331269,18.7751302174046
0.399505305659093,18.7759397628724
0.42922101086116,18.7766543014632
0.45520065692218,18.777320065867
0.477608420902269,18.7779642957556
0.496177727024745,18.7786089638739
0.510207708933632,18.7792774911969
0.51828318649727,18.7800026618534
0.517527858279895,18.7808124493399
0.505625794326778,18.7816381077342
0.481331491985078,18.7824959417165
0.443001384757067,18.7833980970462
0.388781825054781,18.7843533577476
0.344437167876723,18.7850042344416
0.294993473605794,18.7856551111356
0.250909217220997,18.7861975951029
0.213199945246184,18.7866486476485
0.180113492015825,18.7870440656113
0.150493832541658,18.7874050775741
0.123651507229117,18.7877445157965
0.0991201515468795,18.7880714673619
0.0765280602118139,18.7883937607965
0.0555036698694223,18.7887201360513
0.0355104999304467,18.7890646587138
0.0150811021215547,18.7894678745511
0.00125542375175311,18.789784602517
-0.00606167413179557,18.7899725807775
-0.012748149854789,18.7901605590381
-0.0186165954536585,18.7903415023898
-0.0245993764034385,18.790545409709
-0.030423941469545,18.7907682520346
-0.0359103885803491,18.7910073712075
-0.0409583028054395,18.7912617012916
-0.0455146477493495,18.7915312159869
-0.0495542861051063,18.7918166125512
-0.0533217021585145,18.7921447876019
-0.0562257544874833,18.7924653493437
-0.0586115490858017,18.792806692893
-0.0604958785447232,18.7931720444696
-0.0618929663879531,18.7935649214641
-0.0628166218934513,18.7939896591698
-0.0632787587876465,18.7944516518115
-0.0632877770625693,18.7949577055552
-0.062846569596631,18.7955165829509
-0.0619474137516864,18.7961412321228
-0.0605683047606541,18.7968485213739
-0.0586640763115445,18.7976633439155
-0.0561424453909726,18.798627302758
-0.0527820433513007,18.7998279697524
-0.0487227394214267,18.8012328284313
-0.0447870199177581,18.8025894094618
-0.0410285626066242,18.8039039064217
-0.0374737497257121,18.8051791474676
-0.0341359425973249,18.8064162619585
-0.03102104936438,18.8076155166176
-0.0281300036060332,18.8087767558276
-0.0254600827722729,18.8098996332483
-0.0230057576506035,18.8109837318277
-0.0207593363045011,18.8120286215851
-0.0187115047066204,18.8130338807672
-0.0168518016274863,18.8139990940781
-0.0151690397645612,18.8149238354944
-0.0135943486796765,18.8158420927432
-0.0120788916446908,18.8167838418688
-0.0106272076343482,18.8177506401123
-0.00924323755628092,18.818744594654
-0.00793072678971812,18.8197681771444
-0.00669317211734507,18.820824316027
-0.0055337697519831,18.8219165155261
-0.00445536099990317,18.8230490158408
-0.00346037545490168,18.8242270138354
-0.00255077118219996,18.8254569754402
-0.00172797061276549,18.826747092347
-0.000992789588142723,18.8281079760903
-0.000345354562803025,18.829553764628
0.000215002051634384,18.8311039968726
0.000676704895740393,18.8327336189893
0.00103884414158857,18.8344103178485
0.00131772904336515,18.836152404409
0.00152795882711577,18.8379812489308
0.0016832636397947,18.8399254446738
0.00179693537568311,18.8420256060438
0.00188248335054292,18.8443444194042
0.00195491752261222,18.8469913906434
0.00203445159159046,18.8502045348841
0.00213868600666224,18.853943322568
0.00227504626011502,18.8579466774642
0.00244405270932228,18.8621343962107
0.00262078086794733,18.8660579599805
0.00280335882169151,18.8698662727363
0.00299111200370679,18.8736460406366
0.0031843192143148,18.8774525697081
0.0033841520863463,18.8813271483042
0.00359252065458318,18.8853043438846
0.00381193085582405,18.8894156661203
0.0040453881060699,18.8936918338326
0.00429636052881936,18.8981643289248
0.0045688448193176,18.902866780387
0.004867597461186,18.9078364060558
0.00519859924486115,18.9131152267316
0.00555013450097414,18.9184557135193
0.00591423384504459,18.9236956282327
0.00629551456690817,18.928864703891
0.00669598279196004,18.9339462838592
0.00711997367009024,18.9389503929358
0.00757201676356938,18.9438832010563
0.0080572001234634,18.9487512940826
0.0085809843130487,18.9535587071786
0.00914931127897853,18.9583074140398
0.00976868578222097,18.9629974572712
0.0104463136436017,18.96762761105
0.0112045979780713,18.9722798047613
0.012059421525153,18.9769607677659
0.0130312466461993,18.9816827313893
0.0141488444457568,18.98647395405
0.0154579798430146,18.9914000377033
0.0170490994477558,18.9966296872881
0.019201499694158,19.0027718342543
0.0209422474462321,19.0072281141874
0.0227838390854608,19.0116843941205
0.0243337266086635,19.0154150330001
0.0256246159268108,19.018685040372
0.0267055670778263,19.0217495716312
0.0275681148835286,19.02472594239
0.0281616546465528,19.0275639873981
0.0284868714343206,19.0303839366835
0.0285172631573811,19.0333358380021
0.0281563547823827,19.0367189175461
0.0271260413754718,19.0410554854415
0.0262242917475456,19.0437282917327
0.0251653366915832,19.0464010980238
0.0240927524264191,19.0488461385555
0.0230188634370893,19.0511486389874
0.0219443558182022,19.0533718533253
0.0208720932117883,19.0555516000357
0.0198057241807472,19.0577106544817
0.0187489236661589,19.0598651393579
0.0177051600411421,19.0620273949321
0.0166776321812938,19.0642074549461
0.0156692603160401,19.0664138946026
0.01468269108422,19.0686543679595
0.0137203104067663,19.0709359658734
0.012784253928817,19.0732654814266
0.011876415948188,19.0756496203859
0.0109984637902969,19.078095162479
0.0101518404796855,19.0806091351821
0.00933778087677984,19.0831989447448
0.00855731498760159,19.0858725475195
0.00779336242163592,19.0887079161978
0.00704533690611446,19.091739355638
0.00631704091365628,19.0949905011879
0.00561242903474829,19.0984888774784
0.0049356324082854,19.102266371884
0.0042908953837013,19.1063601215249
0.00368246929271093,19.1108137792091
0.00311443993404793,19.1156796123678
0.00259049821869308,19.1210221082329
0.00211363910187397,19.1269248659123
0.00168607594683828,19.1334999111253
0.0013200588367524,19.1406612808235
0.00102214136314612,19.148409931737
0.000831784333033178,19.1553837429765
0.000664433095871305,19.1636905565796
0.000531868351020296,19.1728395717162
0.000432372406949769,19.1828395717162
0.000367963185721655,19.1928395717162
0.000329206245425339,19.2028395717162
0.000309327413764793,19.2128395717162
0.000303613789527065,19.2228395717162
0.000309013868190636,19.2328395717162
0.000323781815009505,19.2428395717162
0.000347198843625853,19.2528395717162
0.000379412769104726,19.2628395717162
0.000421411252017894,19.2728395717162
0.000474636558334711,19.2827539849088
0.000536882700681917,19.2919206073818
0.000608638096840621,19.3003734570616
0.000690868829716078,19.3081692239742
0.000784835121050438,19.3153609199141
0.000892043448995464,19.3219973733089
0.00101423993037492,19.328123649709
0.00115342485762906,19.333781424701
0.00131187830749672,19.3390092920387
0.00149219357897934,19.3438430283056
0.00169731761846012,19.348315835212
0.00193060164391195,19.3524585655838
0.00219586252334615,19.3562999333311
0.00249745925302696,19.3598667136059
0.0028403904622687,19.3631839473385
0.00323042000812753,19.3662751576276
0.00367424496244219,19.3691625839196
0.00417972518393539,19.37186745453
0.00475621043377006,19.3744103289393
0.0054150273954456,19.3768115583783
0.00615516605045992,19.3790503618386
0.00697595680848388,19.3811263240434
0.00789091960458084,19.3830775829425
0.00892143309050989,19.3849449070457
0.0101049470647571,19.38677945442
0.0115226843751518,19.3886690942579
0.0135483011371665,19.3909823099107
0.0150688323397129,19.3925274707461
0.0166908343758254,19.3940726315816
0.0181840917491732,19.3954566072796
0.0195056877071154,19.3966984671554
0.020687544385349,19.3978723311265
0.0217330293010813,19.3990250417277
0.0226272768769609,19.4001959882418
0.0233385547380676,19.4014326687278
0.0238054234682426,19.4028169755158
0.0238664035771926,19.4045833041672
0.0233537958673771,19.4063593323771
0.022360290790596,19.408135360587
0.0212462717425209,19.4096256902601
0.0200091675608965,19.4110593212334
0.0186476801540903,19.4125175003913
0.0171706692612109,19.4140412394328
0.016143039963144,19.4150931352634
0.0151337991140951,19.4161450310939
0.0141678808020531,19.4171994099425
0.0118703564641031,19.4199505416632
0.00982414855700837,19.4227850848959
0.00819339359592986,19.4254134353298
0.00685626820569999,19.4279115729877
0.00568711629651705,19.4304455738811
0.00465826772691117,19.4330462807313
0.00375083459048867,19.4357372754376
0.00300231580306674,19.4383423451541
0.00239455452741498,19.4408054130997
0.00189195800625876,19.4431549166779
0.00146743643108714,19.4454255308233
0.00109981093409397,19.4476611929459
0.000771103050781701,19.4499254507716
0.000461542214361844,19.4523418571067
0.000124596617104229,19.4553617185266
-6.39360793921526e-05,19.457266316862
-0.000236796537572312,19.4591709151975
-0.000381390273171962,19.4608939761152
-0.000507796986709534,19.4625064833242
-0.000626368454571975,19.4641158996406
-0.00074470931407955,19.4658215213517
-0.000872459933673386,19.4677800561223
-0.00103593853064401,19.4704720006648
-0.00125352583750523,19.4743891857313
-0.00142028005019165,19.4776565122156
-0.00156659231298844,19.4807152204074
-0.00172272247175692,19.484182469027
-0.00190936966813207,19.4886318124799
-0.00212521674214591,19.4943779874173
-0.00227627218230513,19.4993718842467
-0.00236267371892769,19.5038968179996
-0.00237302403023652,19.5079553431205
-0.00229953043339068,19.5116023114808
-0.00213713647354772,19.5148949579956
-0.00188198576012206,19.517898695622
-0.00152905419785092,19.5206794946155
-0.00106827702123103,19.5233100097513
-0.000479598648949884,19.525872489688
0.00028560614017709,19.5285018080111
0.00133885549918008,19.5314274521992
0.00269784339445879,19.5345742762674
0.00431057699657523,19.5378183747939
0.00562973690405335,19.5402178479693
0.00707157375638492,19.5426173211447
0.00840252711245659,19.5446229382786
0.00976568620504445,19.5464689942539
0.0111670054382915,19.5481571908377
0.0126914538148481,19.5497767505938
0.0143629865505159,19.5513295411797
0.0162177796136128,19.5528268938423
0.0182834073396299,19.554269600122
0.0205921397560154,19.5556606924153
0.0231678215719371,19.5569973823803
0.0260496126932354,19.5582846108767
0.0292743596781035,19.5595240491737
0.0328812700492463,19.5607170986283
0.0369226553752355,19.5618678790735
0.0414564485774238,19.5629796774546
0.0465500250748419,19.5640558237547
0.0522830103093618,19.5650998227171
0.0587491383730506,19.5661151769508
0.0660633850028452,19.5671059383273
0.0743650019992746,19.5680763170638
0.0838258408340453,19.5690309185983
0.0946622024097948,19.5699749838949
0.107152311319767,19.5709146889432
0.121665388133259,19.5718577174237
0.138709871590726,19.5728141305573
0.159025255579215,19.5737981597257
0.182614564556228,19.5747867947977
0.210014932163772,19.5757862997319
0.242031908612578,19.5768104855876
0.279827256936281,19.5778811481287
0.324329123050745,19.5790152387044
0.366668944492893,19.5800200704562
0.401638198486864,19.580830567003
0.431748212574199,19.5815421391842
0.458072234939551,19.5822036855286
0.48081735546307,19.5828431713363
0.499738695185773,19.5834828023424
0.514153031372617,19.5841461274443
0.522664019356289,19.584866195325
0.52238751384568,19.5856719772222
0.51093658695821,19.5864939178616
0.487066842662066,19.5873487321691
0.449112759885882,19.5882489769263
0.395178121698287,19.5892034395517
0.350042603706706,19.5898665051961
0.299527093082828,19.5905295708405
0.254592167933972,19.5910794888014
0.21630656746564,19.591534234363
0.182802164792547,19.5919314624994
0.152854384233136,19.5922932988078
0.125741431781547,19.5926329538764
0.100980652852406,19.5929596731803
0.0781920210072595,19.5932813218628
0.0570018404744313,19.5936065440562
0.0368835484384725,19.593948964135
0.0164551429913121,19.5943464442887
0.00826444252063328,19.5945257531251
0.000693603757945278,19.5947050619616
-0.00714840929591714,19.5949079208369
-0.0136967671372309,19.5950940678724
-0.0196395232336848,19.5952796657073
-0.0256277861050977,19.5954870680404
-0.0314120659915932,19.5957126335589
-0.0368319766964143,19.5959541072475
-0.0417986551662352,19.5962106771813
-0.0462659077906589,19.5964824846691
-0.0502121495739614,19.596770350248
-0.0538762534343463,19.5971014819288
-0.0566867107991366,19.5974251980559
-0.0589805525328141,19.5977701880205
-0.0607748627804179,19.5981397956337
-0.0620840008691649,19.5985376877066
-0.0629216056784925,19.5989683906401
-0.0632991037660683,19.5994375517807
-0.0632240326771943,19.5999523249557
-0.0626977815287649,19.6005220767369
-0.0617099254282971,19.6011606425496
-0.0602347635445206,19.601886081242
-0.0582200430700687,19.6027257824638
-0.0555569558305911,19.6037271891941
-0.0519658895073571,19.6049984783316
-0.0479217783652831,19.6063935048722
-0.0440127490629788,19.6077426633752
-0.0402869926201891,19.6090506707346
-0.0367678187872448,19.6103198770375
-0.0334669850723431,19.6115511640635
-0.0303894227687429,19.6127446688715
-0.0275353951355243,19.6139001689044
-0.0249016866066495,19.6150172845497
-0.0224823957153599,19.6160955832954
-0.0202695520282738,19.617134628454
-0.0182536415838607,19.6181339948675
-0.0164240711920215,19.6190932636646
-0.0147695806466916,19.6200120026956
-0.0132064406679306,19.6209335890984
-0.0117033314771317,19.6218788340043
-0.0102646263151113,19.6228494163741
-0.00889424472162804,19.6238474908552
-0.00759590348259234,19.6248755889763
-0.00637306457450859,19.6259367143446
-0.00522888308505712,19.6270344667183
-0.00416615287839505,19.6281732095655
-0.00318724988669014,19.6293583017565
-0.00229407247228832,19.6305964269639
-0.00148797756670829,19.6318960777142
-0.000769709981328808,19.6332682957125
-0.000139319810222429,19.6347278615155
0.000403942346893073,19.6362953304702
0.00084534795616522,19.6379306189478
0.00118972296040574,19.6396156916986
0.00145297014277899,19.6413689271908
0.00164949384823099,19.6432125574069
0.001792869732159,19.6451765479659
0.00189628959542698,19.6473039115065
0.00197324992809219,19.649662025818
0.00203895531709771,19.6523714242395
0.00211465294614417,19.6557069297259
0.00221430204167683,19.6594579384079
0.00234905647793898,19.663533895969
0.00250366566841306,19.6674796495483
0.00267012232037278,19.6712986149554
0.00284562550396628,19.6750804508498
0.00302869427912807,19.6788832035418
0.00321912577896797,19.6827494798554
0.00341781486108569,19.686714534972
0.00362654262122683,19.6908102451598
0.0038477967573964,19.6950674821174
0.00408464724097127,19.6995177444208
0.00434071791158284,19.7041945480679
0.00462031957283662,19.7091349087125
0.00492880831419212,19.7143806297163
0.00526456536246407,19.719839662616
0.00560820869257237,19.725146450799
0.00596809478312389,19.7303979772636
0.00634430478504927,19.7355506921114
0.00674129052002087,19.7406222106005
0.00716301853804069,19.7456173559073
0.00761417153574373,19.7505447157716
0.0080996670642963,19.7554095006532
0.00862484585114963,19.7602150200258
0.00919551998808196,19.7649623799707
0.00981810421986245,19.7696510635093
0.0104997547553488,19.7742795352822
0.0112639502922015,19.7789352982714
0.0121259036697965,19.7836193002744
0.0131066421470865,19.7883455893556
0.014235684969865,19.7931439846102
0.0155606171355494,19.7980843488058
0.0171774780605096,19.8033484928093
0.0193991849788489,19.80962342346
0.021104682101549,19.8139552336579
0.0228995694293692,19.8182870438557
0.0244266737660282,19.8219686212781
0.0257030791587761,19.8252189961004
0.0267708963399284,19.8282761338086
0.0276160880208758,19.8312401663412
0.0281929442579471,19.8340736525045
0.028500813736388,19.8368972287126
0.0285106863197384,19.8398647763056
0.0281174592830496,19.8432966997016
0.0273335181114221,19.8466908699084
0.0262188613812277,19.8500850401153
0.0251223812875657,19.8528445170351
0.0240464688311046,19.8552891043895
0.0229721497632023,19.8575879507691
0.0218974722929103,19.8598092195053
0.0208251821873272,19.8619883200003
0.0197589262171822,19.8641476672039
0.0187023684669567,19.8663031891421
0.0176589620500689,19.868467122028
0.0166318890654362,19.8706494497833
0.0156240531322542,19.8728587332705
0.0146380849078167,19.8751026388656
0.0136763543349856,19.8773882942145
0.0127409829079238,19.8797225483777
0.0118338507503878,19.8821121874879
0.010956611614724,19.8845640972719
0.0101106972223265,19.8870854361885
0.00929733158305804,19.8896837769305
0.00851753610344059,19.8923672799534
0.00775446452828859,19.8952135986473
0.00700752522622277,19.8982573435609
0.00628053287956342,19.9015223741383
0.00557745212866279,19.905036494398
0.00490242270600278,19.9088319339183
0.00425969402718888,19.9129462622159
0.00365351686628006,19.9174236990126
0.00308797362603801,19.9223172469552
0.0025667221554309,19.9276926835767
0.00209273624441108,19.9336353967707
0.00166820719895554,19.9402602778353
0.00130658197707121,19.9474543076444
0.00102075754482327,19.9552897942561
0.000844505679094537,19.9620610143039
0.000677938876150993,19.9706341871433
0.000554572278653996,19.9795090759157
0.000459931612375485,19.9895090759157
0.000425303848058509,19.9947545379578
0.000398898144452296,20
