ecg,time
0.00424747948602978,15.0003553181638
0.0033962290327672,15.003086257261
0.00264565627736085,15.0059415892887
0.00203598032624079,15.0086895343077
0.00154285447209937,15.0112962926412
0.00113312654718519,15.0138100021423
0.000783959442513828,15.0162755150275
0.000480709195203684,15.0187232520765
0.000213434329592929,15.0211742053899
-2.82041571638838e-05,15.0236783905374
-0.000261505008524902,15.0264066074906
-0.000453046892711533,15.0289117165243
-0.000626782221368819,15.031416825558
-0.00075540758646257,15.0334259034071
-0.000861115877004844,15.0351798840746
-0.000957813336583191,15.0368671715149
-0.00105249529151229,15.038596039579
-0.00115172072395073,15.0404881053323
-0.00126740213018078,15.0427939763615
-0.00146951699048803,15.047060387013
-0.00164522188731952,15.0509897815951
-0.00178667911349008,15.054287698357
-0.00193056731748718,15.0577633005371
-0.00209934730812924,15.0620244385006
-0.00230517917056474,15.0676940565902
-0.00245155797513854,15.0726877864104
-0.00253008356011043,15.0771684033016
-0.00252872631752726,15.0811743241538
-0.00243924982822555,15.0847857513377
-0.00225473142213358,15.0880916793116
-0.00196847268203652,15.0911603441953
-0.00157520800930301,15.0940328966043
-0.00106783454008387,15.0967556640028
-0.000428307308590408,15.0994038910544
0.000388302137429233,15.1021015758954
0.00150823773051541,15.1051151303494
0.00293774536518611,15.1083278508316
0.00471865896627771,15.1117716506996
0.005993377500434,15.113975057407
0.0073938223824994,15.1161784641144
0.00880475433387598,15.1181780315284
0.0102148261350016,15.119964734413
0.0117098705999068,15.1216460047793
0.0133303771579124,15.1232499187724
0.0151036683228669,15.1247838387318
0.0170680534276379,15.1262609512271
0.0192497181599429,15.1276813580695
0.0216839205724942,15.1290500144631
0.0243971533324835,15.1303653970566
0.0274305236820438,15.1316324102221
0.0308238691328223,15.1328531132634
0.0346202960846464,15.1340293217929
0.0388756261789476,15.1351650128145
0.0436526064713996,15.1362635548354
0.0490244011139209,15.1373283417111
0.0550778418529888,15.1383629609644
0.0619158994186478,15.1393710590591
0.0696653978731731,15.1403568509034
0.0784816458632639,15.1413248394774
0.0885585437786933,15.1422800578765
0.100143868220184,15.143228392801
0.113562763655566,15.1441770212011
0.12925834437486,15.1451352413335
0.14786473943955,15.1461159247559
0.169721562136853,15.147111692577
0.195079606746646,15.1481149286147
0.224655737524499,15.1491382461565
0.259450562413926,15.1502004760471
0.301078376567122,15.1513357483568
0.336073339858965,15.1522167467484
0.372586407106875,15.1530977451401
0.405070942086333,15.1538762171073
0.433479827847823,15.1545799299758
0.458279304104921,15.1552432960936
0.479478917208507,15.1558908485058
0.496700319643136,15.1565441590261
0.509097857338492,15.1572277745958
0.514978695360581,15.1579782280278
0.51130866651999,15.1587941381573
0.496280669731079,15.1596294390167
0.468555009085785,15.1604991963244
0.42645044567189,15.1614142353766
0.368131197972217,15.1623836910717
0.325825880963681,15.1629815883815
0.279582997698046,15.1635794856912
0.238166548264295,15.1640872746004
0.20227862412724,15.1645188821047
0.170520622956041,15.1649029364654
0.141949389097325,15.1652571289407
0.115974202006997,15.1655927563173
0.0921747571598552,15.1659182901044
0.0701951123179754,15.166241555331
0.0496450306727954,15.1665721603848
0.0298691625747406,15.1669278409059
0.00842908034161213,15.167376745406
-0.000257581276573751,15.1675861825683
-0.00814501293609141,15.1677956197307
-0.0145311924558406,15.167982286035
-0.0204690894448654,15.1681732517736
-0.0264012302753819,15.1683853903145
-0.0320966324016754,15.1686152912453
-0.0374104049664276,15.1688609690639
-0.0422629456074072,15.1691217912416
-0.0466135611183454,15.1693980260053
-0.0504432388593316,15.1696905947798
-0.0539835468233303,15.1700272382369
-0.056684073106368,15.1703564408069
-0.0588726053382791,15.1707074739667
-0.0605661619912873,15.1710837944273
-0.0617789408709745,15.1714892072745
-0.0625241679347064,15.1719284125651
-0.0628126098065684,15.1724072827595
-0.0626508666777077,15.1729332740741
-0.0620386383042139,15.173516455822
-0.0609633681229136,15.1741711491735
-0.0593962805058519,15.1749165366449
-0.0572794023397879,15.1757821505449
-0.0544901183460307,15.1768206238785
-0.0506938278610443,15.1781604285811
-0.0466944049134589,15.1795433602477
-0.0428433366151048,15.1808813926614
-0.0391822004259162,15.1821785758316
-0.0357310616624372,15.1834369582192
-0.0324997547624486,15.1846572831024
-0.0294918687128044,15.1858396327718
-0.0267066377388996,15.1869837723155
-0.024140028692672,15.1880893301147
-0.021785492796199,15.189155889653
-0.0196345629375176,15.1901830308634
-0.017677365885456,15.1911703410799
-0.0159030742974103,15.1921174064622
-0.0143003057731545,15.1930237898298
-0.0127551137771398,15.193952406547
-0.0112714681413924,15.1949050327079
-0.00985341053626095,15.195883599871
-0.00850480904038271,15.1968903661624
-0.00722931194816774,15.1979279932182
-0.00603029738553108,15.1989996479418
-0.00491082062972,15.2001091379013
-0.00387355917740163,15.2012610953815
-0.00292075533808401,15.2024612338683
-0.0020541556270699,15.2037167160673
-0.00127494536552033,15.2050367007258
-0.000583675336729852,15.2064331903893
1.98256786777744e-05,15.2079224171765
0.00053656521006412,15.2095272676111
0.000945818304202193,15.211175496185
0.00126319661156992,15.2128792704763
0.00150392709397579,15.214657314604
0.00168212583806509,15.2165338424731
0.00181119860339497,15.2185420371066
0.00190434098373197,15.2207306556005
0.00197536458166593,15.2231787003447
0.00204057297357473,15.2260357188125
0.00212568735586618,15.229687498408
0.00223387697565336,15.2334890691312
0.00236590024058395,15.2372722815525
0.00251857557232082,15.2410495177714
0.00268819452610498,15.2448689551894
0.00287149558044042,15.2487688518563
0.00306651365418468,15.2527823231699
0.00327275289189927,15.2569403341593
0.0034910739147393,15.2612737134195
0.00372348969129831,15.2658145720349
0.00397300286991182,15.2705977006095
0.00424359346142121,15.2756619840415
0.00454047009659359,15.2810517402598
0.00486164455206311,15.2866614539541
0.00518773973819539,15.2920942589817
0.00552729517097687,15.2974552636643
0.00588069859960918,15.3027031285691
0.00625237631522127,15.3078598178218
0.00664607533627351,15.3129324511667
0.00706607149112826,15.3179311339016
0.00751675208171291,15.3228619769469
0.00800282163944645,15.3277288902648
0.00852937472492109,15.3325335027659
0.00910202520483379,15.3372757071472
0.00972700928361215,15.3419539532722
0.0104112962295652,15.3465657092649
0.0111761407015786,15.3511851427816
0.0120385719259128,15.3558263349416
0.0130184861032152,15.3604978217736
0.0141440492206867,15.3652247284412
0.0154594528800969,15.3700659813812
0.0170500359361627,15.3751718066301
0.0191636792661252,15.3810555036801
0.020992067701312,15.3855967275227
0.0229428196954275,15.3901379513652
0.0245604007129032,15.3938575861702
0.0259029196218508,15.3970850231917
0.027031286779333,15.4000950777342
0.0279423995895208,15.403014936039
0.0285822804400451,15.4057892867611
0.0289541333787654,15.4085346874092
0.029035642988613,15.4113912871311
0.028743622335736,15.4146206641106
0.027764888179077,15.4189271332043
0.0268822204588297,15.4215659578697
0.0258315510468981,15.424204782535
0.0247645712876062,15.4266047848123
0.0236951741077045,15.4288548921931
0.0226237266903707,15.4310214634451
0.0215530030277958,15.43314132627
0.0204866665156449,15.4352374918701
0.0194284196334424,15.4373260403494
0.0183817512407141,15.4394191450058
0.0173498702084213,15.4415266066388
0.0163356976157125,15.4436567251741
0.0153418763256096,15.4458168419366
0.0143707828661991,15.4480137080542
0.0134245437412321,15.4502537415947
0.0125050442954857,15.4525432396411
0.0116139410677914,15.4548885464601
0.010752674866533,15.457296198896
0.00992247555695821,15.4597730869227
0.00912240013894012,15.4623331510319
0.00833221041610592,15.4650617348166
0.00755569192018023,15.4679778861905
0.00679659252414514,15.471104628184
0.00605891508048269,15.4744685973733
0.00534689582612229,15.4781007259692
0.00466495888583473,15.4820370976138
0.00401763989885524,15.4863200509177
0.00340945294297529,15.4909998127974
0.00284463877509832,15.4961376493161
0.0023268669821464,15.501811364092
0.001858931228159,15.5081251197904
0.0014561241841372,15.5149652534
0.00112667265731681,15.5223332669151
0.00086871143436337,15.530407229369
0.000686056000113894,15.5381763648225
0.000524952330485235,15.5474225723556
0.000401988233041199,15.5574225723556
0.00031770323196183,15.5674225723556
0.000260926943845755,15.5774225723556
0.000223515005028547,15.5874225723556
0.000199634403674136,15.5974225723556
0.000185234893330001,15.6074225723556
0.000177570128851065,15.6174225723556
0.00017480082784249,15.6274225723556
0.000175704793514614,15.6374225723556
0.00017948297349239,15.6474225723556
0.000185634939643877,15.6574225723556
0.000193879366743995,15.6674225723556
0.000204103349456089,15.6774225723556
0.00021633156008862,15.6874225723556
0.000230710663879969,15.6974225723556
0.000247506909366405,15.7074225723556
0.000267116547842096,15.7174225723556
0.000290090494478098,15.7274225723556
0.000317176943445115,15.7374225723556
0.000349389060451968,15.7474225723556
0.000388110374742517,15.7574225723556
0.000435259961793066,15.7674225723556
0.000491185302433799,15.7770506014665
0.000555106928440178,15.7859482477893
0.000627983313854067,15.7941572857246
0.000711028069034758,15.8017312140536
0.000805639868116226,15.8087201933648
0.000913407605963199,15.8151707717853
0.00103613022819176,15.8211261548793
0.00117584342194773,15.8266264602775
0.00133485149314622,15.8317089426964
0.00151576344557786,15.8364082040363
0.00172153584730371,15.8407563948061
0.00195552319113886,15.8447834081765
0.00222153958817417,15.8485170646158
0.00252393350678942,15.8519832948094
0.00286768301667233,15.8552063287547
0.00325851757754723,15.8582088945199
0.00370307866873913,15.8610124331508
0.00420913876234413,15.8636373471932
0.00478590937478563,15.8661033062326
0.00544449356011619,15.8684296488253
0.00618266662118504,15.8705934032613
0.00699946259062365,15.8725951620417
0.00790696353214529,15.8744702281529
0.00892366443426252,15.8762549108666
0.0100802534876441,15.8779915981825
0.0114371008341017,15.879744249571
0.0132328994066392,15.8817390098459
0.0149612881009721,15.8834273580276
0.0168509502566517,15.8851157062093
0.0185159073088696,15.8865360931248
0.0199599423190144,15.887767316787
0.0212505306539421,15.8889133023326
0.0224020293878877,15.8900273345708
0.0234047658867423,15.891148461696
0.0242322809866002,15.8923191562257
0.0248338043698654,15.8936053447985
0.0250929048597377,15.8951648330674
0.0247491578047765,15.8970081345068
0.0237997264893502,15.8988514359462
0.0226937201343429,15.9003414536949
0.0214577017213815,15.9017477280136
0.0200850932287245,15.9031717042882
0.0185838543516727,15.9046583107836
0.0169613564900447,15.9062448854774
0.0152489129436812,15.9079772480281
0.0138732277417781,15.9094751534621
0.0114828649319524,15.9123823618274
0.00950663447040723,15.9151847074455
0.00793925779040095,15.9177745925276
0.00663869630651606,15.9202691922338
0.00550120287823123,15.9228058958809
0.00450094659766637,15.9254135499399
0.00361971450009938,15.9281154348027
0.00284273290357191,15.9309350785718
0.00219556946861296,15.9337186664534
0.00167488457308856,15.9363521851833
0.00124512402537175,15.9388803807434
0.000880895133085255,15.9413507648469
0.000565359469819827,15.9438010914707
0.000287213324038052,15.9462596765473
3.59779744815987e-05,15.9487752562789
-0.000205335605350512,15.9515088568598
-0.000406768874589444,15.9540703201942
-0.000552523781653681,15.9561031642801
-0.000687772851848087,15.9581360083659
-0.000800449545379704,15.9599431378236
-0.000901151995953395,15.9616483010226
-0.00099773572674922,15.9633645558668
-0.00109655880401653,15.9652021608751
-0.00120698290627678,15.9673509193453
-0.00136097558598772,15.9705072170694
-0.00153214864398665,15.9742160331229
-0.00166938634937169,15.9773284962422
-0.00180085546888868,15.9804188873844
-0.00194625577303849,15.9839644360565
-0.00212092223652991,15.9884469896075
-0.00231726636007596,15.9940476708953
-0.00244953630358143,15.9989260709445
-0.00251159384252809,16.0033100269423
-0.00249188696915375,16.0072337330407
-0.00238268774334495,16.0107786333048
-0.00217727548669906,16.0140303603048
-0.00186934052073477,16.0170518769991
-0.00145293134533831,16.0198894923627
-0.000919037890382294,16.0225941701024
-0.000246799633082556,16.0252430805127
0.000618894923009192,16.0279792972919
0.0018079161068878,16.0310545572534
0.00330868962667643,16.0343137563685
0.00514915177555182,16.0377641683971
0.00642434248484325,16.039899173323
0.00782789160311525,16.042034178249
0.00921417603259229,16.0439295944132
0.0106625714460215,16.0456964748506
0.012189495714673,16.0473446143081
0.013859465160249,16.0489277325879
0.0156909264719704,16.0504424343554
0.017725207905818,16.0519031301705
0.01998410959888,16.0533063559252
0.0225052465757058,16.0546583104466
0.025318135093789,16.0559586559983
0.028461537203671,16.0572105532859
0.0319788911145601,16.0584170924971
0.0359182675080307,16.0595810013101
0.0403331219432845,16.0607047565228
0.0452916998778589,16.0617924721164
0.0508713811932084,16.0628476169214
0.0571641699942552,16.0638738380328
0.0642807233153962,16.0648750177896
0.0723547763315561,16.0658552339819
0.0815536853179672,16.0668192497078
0.0920872422595934,16.0677723668507
0.104225814887202,16.0687208681902
0.118328591385148,16.0696725730329
0.134891960579095,16.0706377876936
0.154643386668434,16.0716312778898
0.177581940329088,16.0726295376953
0.204237573049206,16.0736392133055
0.235407380052821,16.0746746945276
0.272245695603779,16.075758585326
0.315364792933048,16.076900230574
0.357067514454985,16.0779276287793
0.391763245658688,16.0787606614465
0.421691124168833,16.0794915237467
0.447862325789083,16.0801691623024
0.470480546157653,16.0808217473286
0.489320438804275,16.0814712790499
0.503747700567719,16.0821402761273
0.512493001036182,16.0828586470065
0.512903317851565,16.083672696168
0.502373645272644,16.0844992514797
0.479730583947188,16.0853546577973
0.443412159090051,16.0862512932333
0.391636131232712,16.0871981610874
0.347422065924492,16.0878660035163
0.297732879980437,16.0885338459451
0.253374463051905,16.0890880563801
0.215505083408882,16.0895463084297
0.1823196046868,16.0899465258431
0.152628330632398,16.0903109733512
0.12572923886678,16.0906529315613
0.101152669473227,16.0909816711423
0.07852937419003,16.0913050300119
0.057498675337715,16.0916315177512
0.0375613682659591,16.0919742627581
0.0174630958490676,16.092368198346
0.00898853894754873,16.0925549002908
0.00117239706605893,16.0927416022355
-0.00691061954893033,16.0929530547537
-0.0134692673444571,16.0931419545247
-0.0193680451090872,16.093328646675
-0.0253156154766848,16.093537357736
-0.031063183446372,16.0937644113143
-0.036449872935576,16.094007498022
-0.0413865780659109,16.0942657771857
-0.0458269546747921,16.0945393759785
-0.04974966971932,16.0948291085924
-0.05339364373408,16.0951625298041
-0.0561858004851664,16.0954882089319
-0.0584637675962315,16.0958352270634
-0.0602444446258141,16.0962069311434
-0.06154201959654,16.0966069846255
-0.0623699822613385,16.0970399062861
-0.0627396494882041,16.0975113285437
-0.0626585145796789,16.0980283778627
-0.0621280037547035,16.0986003929207
-0.0611379159767074,16.0992411180176
-0.0596631334667586,16.0999684476452
-0.057652712259472,16.1008094227928
-0.0550011271186302,16.1018105846571
-0.0514406674789728,16.103076555156
-0.0474221176594834,16.1044691107753
-0.0435400492563899,16.1058153146971
-0.0398422096148573,16.1071199628551
-0.0363514798768389,16.1083854978897
-0.033079250086732,16.109612865855
-0.0300301150637144,16.1108022512894
-0.0272040317341911,16.1119534684169
-0.0245975144074581,16.1130661668183
-0.0222044339194479,16.1141399371409
-0.0200166380987263,16.1151743605238
-0.0180244781244597,16.1161690245233
-0.0162172713357085,16.1171235178072
-0.0145837101579096,16.1180374103364
-0.0130279509909914,16.1189618344882
-0.0115328263143817,16.1199100514271
-0.0101025772170493,16.120883841307
-0.00874110437739656,16.1218853999424
-0.00745209864853687,16.1229173103883
-0.00623898974216537,16.12398264068
-0.0051048939348721,16.1250850723078
-0.00405255951464611,16.1262290741641
-0.00308430981014603,16.1274201438019
-0.0022019831755581,16.1286651516769
-0.00140686852152714,16.1299728492147
-0.000699633574819571,16.1313546500151
-8.02403541149365e-05,16.132825893638
0.00045216334238564,16.134408027216
0.000880365932800339,16.1360483465538
0.00121363140484052,16.1377407189078
0.00146758473116587,16.1395036306868
0.00165651673016422,16.1413600732648
0.0017939375136518,16.1433412343554
0.00189304366251056,16.1454922874422
0.00196745958040142,16.147884917603
0.00203281408998186,16.1506501226396
0.0021119452602324,16.1541002689534
0.00221511515741381,16.1578672972445
0.00234291681017033,16.161649724831
0.00249251658449779,16.1654279898722
0.00266035685858238,16.1692494836242
0.00284294464379623,16.1731522900985
0.00303796251098457,16.1771694597356
0.00324457791175189,16.181331949147
0.00346338384256812,16.1856706061274
0.00369620864047159,16.1902176040683
0.00394594579113525,16.195007838216
0.00421652304573989,16.2000803305421
0.00451313259149296,16.2054795731812
0.00483372210618672,16.2110985537051
0.00515897221674399,16.2165395316895
0.00549742594492108,16.2219076669935
0.00584950127093134,16.2271618980484
0.00621962484843983,16.2323244868302
0.00661152247422945,16.2374026269774
0.00702944468243075,16.2424065795124
0.00747774060452257,16.2473425196869
0.00796107131142755,16.2522144355167
0.00848448258588598,16.2570240382798
0.00905353533793695,16.2617713122949
0.00967440729136203,16.2664547854846
0.0103540014997791,16.2710719656286
0.0111119696180489,16.2756888395185
0.0119663881588366,16.2803283931765
0.0129364503836817,16.2849968553748
0.0140495556992894,16.2897179874071
0.0153481153340675,16.2945468144782
0.0169123788854907,16.2996222167205
0.0189647687386399,16.305400557538
0.0208390063345285,16.3100947839816
0.0228497078905766,16.3147890104252
0.0244891839301248,16.3185561080039
0.0258432069318331,16.3218000892585
0.0269814434308358,16.3248165989256
0.027905673099534,16.3277465678651
0.0285579672247196,16.330525276275
0.028942490593238,16.333269287248
0.0290385680763951,16.3361166969586
0.0287678620341352,16.3393178692004
0.0278091344202629,16.3436389705026
0.0269309954299186,16.3462952371182
0.0258805286021508,16.3489515037338
0.0248134386063863,16.3513613530154
0.0237441476317071,16.353616683356
0.0226727387647158,16.355786203281
0.0216018916299903,16.3579077035856
0.0205352537990181,16.3600046387539
0.0194765338355633,16.3620933268229
0.0184292325363316,16.3641860824079
0.0173965718052115,16.3662927957854
0.0163814857503721,16.3684218250537
0.0153866293577648,16.3705805506028
0.0144143908627754,16.3727757486784
0.0134669079653965,16.3750138525096
0.0125460761486793,16.3773011681411
0.0116535627041592,16.3796440400208
0.0107908173106625,16.3820490036762
0.00995907961483547,16.3845229394288
0.00915862929432405,16.387075737401
0.00836789398464267,16.3897962539348
0.00759066278326676,16.3927033644224
0.0068306711432923,16.3958199429651
0.00609191040134124,16.3991724483386
0.00537860650277851,16.4027916019739
0.00469517607730707,16.4067132333871
0.00404615127769335,16.4109793727357
0.00343605163583758,16.4156398389007
0.00286913628353628,16.4207553076508
0.00234910902267358,16.4264026515482
0.00187880596079465,16.4326845781356
0.00147281029442316,16.4395024958725
0.00114015644338477,16.4468439653565
0.000889078504765493,16.4545563845577
0.000700002734082073,16.4623945511343
0.000536174775817875,16.4715675628017
0.000409888062765238,16.4815675628017
0.000323268638233449,16.4915675628017
0.00026485656242889,16.5015675628017
0.000226301471321683,16.5115675628017
0.000201618678792844,16.5215675628017
0.000186648305167979,16.5315675628017
0.00017856702419141,16.5415675628017
0.000175482337650592,16.5515675628017
0.000176135071507262,16.5615675628017
0.00017969987517342,16.5715675628017
0.000185656925797781,16.5815675628017
0.000193709889720011,16.5915675628017
0.000203733485083113,16.6015675628017
0.000215741306699534,16.6115675628017
0.000229869114141141,16.6215675628017
0.000246371346059747,16.6315675628017
0.000265630368543037,16.6415675628017
0.000288179692560914,16.6515675628017
0.000314744621595626,16.6615675628017
0.000346307060923846,16.6715675628017
0.000384206455082439,16.6815675628017
0.000430297787432196,16.6915675628017
0.000485272068270064,16.7012570354236
0.000548129296033384,16.7102144761005
0.000619799020380348,16.7184793412218
0.000701473718876445,16.7261052248916
0.000794530159095015,16.7331424750371
0.000900533034695813,16.7396378256894
0.0010212538987365,16.7456346623812
0.00115869725980157,16.7511732760882
0.00131513181222987,16.7562910879003
0.0014931259160892,16.7610228577722
0.00169558937033201,16.7654008845742
0.00192582270076651,16.7694551990345
0.00218757710942553,16.7732137474884
0.00248512709281951,16.7767025730045
0.00282336264363211,16.7799460018973
0.00320790661770604,16.7829668393602
0.00364526916985984,16.7857865796582
0.0041430570313441,16.7884256470125
0.0047102663509571,16.7909036891132
0.0053577101045844,16.7932399588544
0.00608643642927574,16.7954204676603
0.00689245543768666,16.7974346858023
0.00778710599051094,16.7993176322378
0.00878768743154357,16.8011050541821
0.00992234283777696,16.8028374885945
0.0112445955863286,16.8045731768281
0.012950008048166,16.8064994998735
0.0148006133098853,16.8083254469612
0.0164006323454541,16.8097644151299
0.0180855568757771,16.8112033832986
0.0195896291470358,16.8124707884594
0.0209313186940784,16.8136327888688
0.0221327198780654,16.8147490444254
0.0231899528622375,16.8158604327723
0.024082000558858,16.8170066570138
0.02476761024793,16.818242779806
0.0251609281747818,16.8196812321507
0.0249413331239939,16.8218038642617
0.0242524505364597,16.8233317683957
0.0232164232749265,16.8248596725296
0.0220338715478202,16.8262700281994
0.0207092368032999,16.8276780640467
0.0192511361802121,16.829135106547
0.0176685009032266,16.8306784009686
0.0166792473058838,16.831644085213
0.0157172263915752,16.8326097694574
0.0133372773910759,16.8352074794486
0.0109558117858753,16.8382039775378
0.0090850578290487,16.8409584964093
0.00759873058749103,16.8435063360936
0.0063417307097733,16.8460075529144
0.00524039025846796,16.8485589513692
0.00427140416145602,16.851187132586
0.00341755322922058,16.8539152487491
0.00266469585329438,16.8567671479455
0.00204677152654672,16.8595425497786
0.00154795257264015,16.862174470582
0.00113419427305361,16.8647118279941
0.000782035216417431,16.867200663464
0.000476699930333351,16.869670249188
0.00020848837682133,16.8721368449163
-3.25074058771848e-05,16.8746420267749
-0.00026201606714477,16.8773311528892
-0.000468013415510507,16.8800382707866
-0.000609461813010018,16.8820773500663
-0.000741058599304168,16.884116429346
-0.000850999929422098,16.885929455584
-0.000949135455491415,16.8876336949533
-0.00104322818386077,16.8893438985076
-0.00113945690717606,16.8911688539903
-0.00124671631849631,16.893290405919
-0.00139372951493607,16.8963384110502
-0.0015671855769089,16.9001220307117
-0.00170579559537628,16.9032760553126
-0.00183713804101954,16.9063638060346
-0.00198215542597489,16.90988883135
-0.00215646600196682,16.9143324344947
-0.0023541349149778,16.9199101316494
-0.00248896200448635,16.9248058892923
-0.00255256849795945,16.9291950248898
-0.00253358264716793,16.933122505116
-0.00242420647609393,16.9366766365972
-0.00221742695571732,16.9399446188037
-0.001907219597323,16.9429829229681
-0.00148874066724325,16.9458314759624
-0.000954081349951526,16.9485399085867
-0.000283496622136668,16.9511851594794
0.000575190003737206,16.9539052947634
0.00175822136230407,16.9569730730743
0.00325008590307929,16.9602202552156
0.00506676350803596,16.9636360579421
0.00635110872221091,16.9657951646544
0.00776405232938059,16.9679542713668
0.00915236576083891,16.9698624658936
0.0106003479986063,16.97163961717
0.0121213721222571,16.9732926624556
0.013783484243385,16.9748802649927
0.0156045467843393,16.9763985806845
0.0176266094873559,16.9778628514994
0.0198713523332284,16.979269508721
0.0223764491729386,16.9806248640331
0.0251709837500223,16.9819283934441
0.0282939618270228,16.9831834538861
0.0317883199222657,16.9843930094048
0.0357017201730187,16.9855597545684
0.0400871759100856,16.9866861547032
0.0450123828924777,16.9877763282583
0.050554019720385,16.9888337374266
0.0568032245398958,16.989862024148
0.0638695696559502,16.9908650645216
0.0718853102984968,16.9918469153122
0.0810161057130493,16.9928123423757
0.0914692647522418,16.9937666193203
0.103511774826189,16.9947159931083
0.117497961213803,16.9956682265944
0.133916774731913,16.9966335297125
0.153483498708877,16.9976264999448
0.176237993831618,16.9986254600571
0.202675961155257,16.9996354364829
0.233584328653778,17.0006706725797
0.270098266695622,17.0017534018158
0.312939904961176,17.0028956173217
0.35489807294405,17.0039347770043
0.38976587002175,17.004774836039
0.419813210534174,17.0055099783946
0.446090037804769,17.006190416287
0.468817651538919,17.0068447219127
0.48778505526882,17.0074949590039
0.50237802605344,17.0081634454744
0.511367094364116,17.0088794146758
0.512169239064401,17.0096938462185
0.502085529245698,17.0105201973949
0.479960080837181,17.0113745623789
0.444250434812016,17.0122694427072
0.393188587820591,17.0132139068788
0.348910207398648,17.0138883048328
0.299007196451196,17.0145627027869
0.254453754671195,17.015121297175
0.216460083222687,17.0155820932359
0.183189791530034,17.015983902006
0.153433863135103,17.0163494170801
0.126482154409812,17.0166921020404
0.101861766247629,17.0170213035276
0.0792028738854758,17.017344870577
0.058147219629356,17.0176712437089
0.0382060256390671,17.0180132633152
0.0181840283110756,17.0184042459717
0.00966988162759246,17.0185908867725
0.00181368936812498,17.0187775275733
-0.00653793841197098,17.0189950272897
-0.0131552304474246,17.0191850272394
-0.0190386766187618,17.019370611587
-0.0249863866775144,17.0195784655018
-0.0307448448352748,17.0198048425594
-0.0361485905213053,17.0200473379193
-0.0411057950722345,17.0203050502245
-0.045568500840768,17.0205780663703
-0.0495145639618283,17.0208671706827
-0.0531841236905702,17.0211998153338
-0.0559996843827453,17.0215246914173
-0.0583006548591969,17.0218707833328
-0.06010387184171,17.0222414084681
-0.0614235009216878,17.0226401930935
-0.0622730845852338,17.023071608395
-0.0626640708541569,17.0235412237237
-0.0626041777458187,17.0240560788675
-0.0620952678983334,17.0246253222062
-0.0611277654023857,17.0252625479835
-0.059677506833024,17.0259853175855
-0.0576953584734936,17.0268200387439
-0.0550800455701451,17.02781175577
-0.0515791480291536,17.0290596811396
-0.0475578565761716,17.0304546679235
-0.043670094082225,17.03180277873
-0.0399650562448442,17.0331091095884
-0.0364663657503952,17.0343762186345
-0.0331858068614822,17.0356051118664
-0.0301282184298863,17.0367960051347
-0.0272937266046377,17.037948728752
-0.0246789708374821,17.0390629402352
-0.0222779165632632,17.0401382338872
-0.0200824822546363,17.0411741924462
-0.0180830695642072,17.0421704043551
-0.016269028839462,17.0431264593192
-0.0146290703353877,17.0440419290866
-0.0130712013247446,17.0449654797435
-0.0115737735567463,17.0459127782548
-0.0101410709403853,17.046885573011
-0.00877700105973969,17.0478860470473
-0.00748526376912183,17.0489167672879
-0.00626929968316576,17.0499807814799
-0.0051322379791224,17.051081745266
-0.004076841937281,17.0522240940903
-0.00310545207706064,17.0534132813903
-0.00221992628508101,17.0546561180714
-0.00142157556549842,17.0559612728407
-0.000711092666191792,17.057340040214
-8.84682129109946e-05,17.0588075803016
0.000447116536242437,17.0603850530668
0.000879232974816026,17.0620237861186
0.00121576041287598,17.0637138496679
0.00147241086599836,17.0654736930764
0.00166351185760338,17.0673260641727
0.00180259557745326,17.0693017569196
0.001902859409542,17.0714452454056
0.00197789102026808,17.0738268115435
0.00204318989252375,17.0765740069226
0.00212108297651561,17.0799865382974
0.00222312588155433,17.0837479970979
0.00235003938487721,17.0875342302253
0.00249875165606349,17.0913099990061
0.00266574069711617,17.0951241245645
0.00284750147764155,17.0990155319208
0.00304168393940561,17.1030176578607
0.00324741594756561,17.1071615755538
0.00346524893887371,17.1114780566755
0.00369696887392786,17.1159990425659
0.00394542034441707,17.1207590259123
0.00421446287215684,17.1257964705431
0.00450917572762562,17.131155135973
0.00483051593891257,17.1367827593372
0.00515571033562035,17.1422193804046
0.00549445642567335,17.1475909954396
0.00584660470037008,17.1528471216833
0.00621669462820999,17.1580117934005
0.00660840002984998,17.1630913243863
0.00702600132712057,17.1680962901154
0.00747386124690563,17.173032958951
0.0079566579034382,17.1779054716107
0.0084794463506863,17.1827156237769
0.00904779127225099,17.1874634518388
0.00966787000444554,17.1921475176273
0.0103465816881639,17.1967653481311
0.0111033638609748,17.2013818389796
0.011956422956671,17.2060211296925
0.0129248530049489,17.2106891311928
0.0140359368169746,17.2154093895847
0.015331818469975,17.2202363425635
0.0168919937220377,17.2253071881986
0.0189352640082028,17.2310701956837
0.0208169653272546,17.2357893188131
0.0224260581392293,17.2395635094654
0.0240718129867547,17.2433377001177
0.0254879396313149,17.2466726191725
0.0266839281167091,17.2497332291288
0.027672965567684,17.2526866942562
0.0284008673698797,17.2554955909994
0.0288619664673691,17.2582368692191
0.0290440985404348,17.2610376596762
0.0288923146653061,17.2640963403906
0.0281732903453534,17.2680512334417
0.027335466948242,17.2708928095403
0.0262801086283238,17.2737343856389
0.0252097214946323,17.2762394116398
0.024140984838254,17.2785423992342
0.0230701212063771,17.2807381787593
0.0219986575252339,17.2828741706159
0.0209300260857452,17.2849779781477
0.0198679622759327,17.2870680657614
0.018816057726083,17.2891579911261
0.0177776406350871,17.2912584104979
0.0167557511650176,17.2933781691749
0.0157531467495828,17.2955249548938
0.0147723128372807,17.2977057284592
0.0138154786967581,17.2999270184277
0.0128846286358247,17.3021951497001
0.0119815126568903,17.3045164283877
0.0111076615112373,17.3068972890259
0.010264390015193,17.3093444602244
0.00945281514112345,17.3118650893539
0.00865810796706264,17.3145216107793
0.00787548612158666,17.3173574342786
0.00710869933833417,17.3203939008744
0.00636164627973085,17.3236560740693
0.00563847049019839,17.3271730117283
0.0049435243702647,17.3309785498207
0.00428131029336971,17.3351122708946
0.00365637301829838,17.3396208705997
0.00307310120887476,17.3445605377138
0.00253544620945636,17.3500012589494
0.00204658496066847,17.3560348276624
0.00161481934473966,17.3626819590262
0.00134604369142479,17.3677736980904
0.00112978144004062,17.3728654371546
0.000904711174786845,17.3797601284344
0.000702046120163387,17.3880241817107
0.000540021808599669,17.3970207861735
0.000412170292245711,17.4070207861735
0.000324456935983993,17.4170207861735
0.000265266766235227,17.4270207861735
0.000226149845901224,17.4370207861735
0.000201054875033629,17.4470207861735
0.000185775663066423,17.4570207861735
0.000177456094019058,17.4670207861735
0.000174180385298415,17.4770207861735
0.000174672796183097,17.4870207861735
0.000178096032073967,17.4970207861735
0.000183921366136391,17.5070207861735
0.000191845432706378,17.5170207861735
0.00020173691891547,17.5270207861735
0.000213603698836101,17.5370207861735
0.000227575506662535,17.5470207861735
0.000243899817885914,17.5570207861735
0.000262950348187904,17.5670207861735
0.000285249280296171,17.5770207861735
0.000311506495419651,17.5870207861735
0.000342682242562788,17.5970207861735
0.000380084702078396,17.6070207861735
0.000425522464435917,17.6170207861735
0.000480055705323532,17.6267771452547
0.000542435783883425,17.6357983711836
0.000613568788137318,17.6441216546658
0.000694634804536836,17.6518009649463
0.000786999420274189,17.658887080205
0.000892215725354347,17.6654271244947
0.00101204246091446,17.6714648361108
0.00114846978095766,17.6770408269821
0.00130375021291519,17.6821928115423
0.0014804339970987,17.686955817967
0.00168141037166653,17.6913623904677
0.00190995657739919,17.6954427844067
0.00216979710535291,17.6992251519622
0.00246517561134461,17.7027357242304
0.00280094605379739,17.7059989984395
0.00318268851479408,17.7090379343596
0.00361686166163654,17.7118741646634
0.00411100881435632,17.7145282351566
0.0046740459676772,17.7170198968501
0.00531668153685275,17.7193684845002
0.00604138342313531,17.721563964933
0.0068429660794513,17.7235910573806
0.00773256936127097,17.7254849194441
0.00872721170374398,17.7272814335833
0.00985446859491789,17.72902102126
0.011166431401292,17.7307611428087
0.0128481938675011,17.7326806221993
0.0147222866104882,17.7345461482887
0.0163194429890416,17.7359925356208
0.018002831298785,17.7374389229529
0.0195065465133216,17.738712609819
0.0208473062887038,17.7398788627732
0.022047874519714,17.7409981546829
0.0231047922036512,17.742111633999
0.0239974339135044,17.7432589188411
0.0246852039635702,17.7444944870284
0.025084105196847,17.7459283472823
0.0248899167745529,17.7480165792322
0.0242156275653863,17.7495555976936
0.0231869697433188,17.751094616155
0.022011697313394,17.7525087183223
0.0206948027395104,17.7539172614818
0.0192447316777123,17.7553728709245
0.0176705569570297,17.7569128904317
0.0166863791000635,17.7578758572581
0.0157272746765366,17.7588388240845
0.0132780367535973,17.7615172717087
0.010902662058603,17.7645183919705
0.00904299480192722,17.7672680913972
0.00756476517556089,17.7698121726206
0.00631200996158764,17.7723147224271
0.00521413864380187,17.7748682734573
0.00424810300559732,17.7774992204521
0.00339678890631578,17.7802307181677
0.00264612226474379,17.7830866618454
0.00203851752846761,17.7858245511654
0.00154659137319253,17.7884226478177
0.00113752724972524,17.7909287193682
0.000788608063714412,17.7933879258319
0.000484997798246459,17.795833428666
0.000216331371117295,17.798292325216
-2.84660408979685e-05,17.8008265863794
-0.000269667397365078,17.8036519707758
-0.000449198306923775,17.8060010871962
-0.000613002659008654,17.8083502036165
-0.000740044936612349,17.8103180178345
-0.000846289931821645,17.8120661792997
-0.000944036494164958,17.8137587825254
-0.00104014655756657,17.8155021373043
-0.00114142176146475,17.8174230245154
-0.00126098044248006,17.8197979070152
-0.00148004279114191,17.8244264193691
-0.00167022783345392,17.8287070606527
-0.00182336076024002,17.8323162778513
-0.0019793990531783,17.8361479015211
-0.00216720964071563,17.8410355585913
-0.0023530371812441,17.8465166259445
-0.00247298278378564,17.851291925327
-0.00252038329568518,17.855579420808
-0.00248445269310209,17.8594200155137
-0.0023578211317953,17.8628999760683
-0.00213373999601536,17.866102042953
-0.00180607220251977,17.8690833917899
-0.00136885852518574,17.8718884908037
-0.000811766569183374,17.8745720178671
-0.000109622682891822,17.8772206393203
0.000804500920087328,17.879998716042
0.00204394581909608,17.8830972400537
0.00360874118117774,17.8864028067942
0.00545645607696222,17.889790899028
0.00669784030342566,17.8918295878561
0.00806285217647205,17.8938682766842
0.00948572783837271,17.8957771528123
0.0109226972098086,17.8974939369852
0.0124758042217719,17.899134588303
0.014176864805205,17.900710279409
0.0160394520223011,17.9022137241044
0.0181108457423157,17.9036643054809
0.0204109603852808,17.9050571259307
0.022979337935358,17.9063992942826
0.0258484766251044,17.9076915211042
0.0290527856679158,17.9089346534462
0.0326391854583128,17.9101329986418
0.0366570189184724,17.9112893298239
0.0411633504137668,17.9124066547108
0.0462241044706241,17.9134880395451
0.0519207355622592,17.914537460113
0.0583481848588883,17.9155586061963
0.065620767630993,17.9165553984683
0.0738779910462587,17.917532088312
0.0832919834405472,17.9184933235796
0.0940818847529031,17.9194446101637
0.106530538280403,17.9203924264044
0.121015730022597,17.9213448990744
0.138063821555596,17.9223128736719
0.158384459922741,17.9233088991197
0.181917119780928,17.9243075355125
0.209284634350638,17.9253195080405
0.241326997205526,17.9263600761512
0.279286298264917,17.9274539312993
0.323169668313437,17.9285961940404
0.363571111213953,17.9295817660378
0.397407702268164,17.9303921768893
0.426723895058955,17.9311109892287
0.452350663793479,17.931782024109
0.474412068858983,17.9324318450117
0.492621998404836,17.933082178403
0.506265782535718,17.9337562395114
0.513919082326394,17.9344863132211
0.512728712777762,17.9353005214352
0.500435964807281,17.9361300794842
0.475799816300887,17.9369908650947
0.437205628066869,17.9378946372318
0.38284671845181,17.9388502719089
0.339317438562098,17.9394898538784
0.290949755141745,17.9401294358479
0.247724483205522,17.9406650340322
0.210605418652432,17.941112729475
0.177951840517961,17.9415065843952
0.148674082628197,17.9418669826772
0.12211457808064,17.9422063975248
0.0978233332790147,17.942533766416
0.0754371605289258,17.9428568873742
0.0545868468768105,17.943184603809
0.0347260306768671,17.9435314449089
0.0142965037074502,17.9439408715399
0.00179070233689964,17.9442305598968
-0.00554569232729372,17.9444199462722
-0.0122484413080764,17.9446093326476
-0.0180865225898896,17.9447902270001
-0.0240482163641351,17.9449943249572
-0.0298587525489123,17.9452175341943
-0.0353358702106899,17.9454571245838
-0.0403777750229559,17.9457119875516
-0.0449306076985723,17.945982071049
-0.0489691113835283,17.9462680554572
-0.0525746432868794,17.9465807331901
-0.0555077593189377,17.9469005550014
-0.0579253021700534,17.9472412191306
-0.0598416337264401,17.9476056919746
-0.0612708495797992,17.9479974320934
-0.0622267819981109,17.9484207023926
-0.0627215051084353,17.9488808002872
-0.0627637456310413,17.9493843976434
-0.0623569511162391,17.9499400629028
-0.0614945462411312,17.9505603389351
-0.0601560853595044,17.9512616607598
-0.0582993405013622,17.9520679691869
-0.0558385734507292,17.9530187106213
-0.052573203727547,17.9541944438902
-0.0485267207936097,17.9556022979813
-0.0445997888685124,17.9569606019392
-0.0408477684570171,17.9582763018639
-0.0372981072163328,17.9595524493442
-0.0339646638775617,17.960790294757
-0.0308536043618955,17.9619901732895
-0.027966009359661,17.9631519692841
-0.0252992475879022,17.9642753604233
-0.0228478502464649,17.9653599445126
-0.0206041672626779,17.9664053010451
-0.0185589142882642,17.9674110145445
-0.0167016511173933,17.9683766741074
-0.0150212048977224,17.9693018570348
-0.0134498709028293,17.9702199257938
-0.011937763105219,17.9711614731753
-0.0104894358325444,17.9721280486991
-0.0091088370671214,17.973121756871
-0.0077997204924586,17.9741450658076
-0.00656559262608646,17.9752008993901
-0.00540966117746251,17.9762927559382
-0.00433478112858532,17.9774248679414
-0.00334339848016381,17.9786024220576
-0.0024374911972399,17.9798318704423
-0.00161850620601754,17.9811213857203
-0.000887290111313489,17.9824815521618
-0.00024400906997372,17.9839264670658
0.000311951304594087,17.9854756052564
0.000769346707366336,17.9871049030155
0.00112700514139273,17.9887811000938
0.001401218717672,17.9905225072612
0.00160655308422906,17.9923504415744
0.00175669070566051,17.9942934116651
0.00186485262023947,17.9963918845781
0.00194443466769582,17.9987082609606
0.00201023986590261,18.0013513866843
0.00208199814395353,18.0045571575616
0.00217791677568455,18.0082954803777
0.00229895347658339,18.0120956600868
0.00244227218571638,18.0158691736976
0.00260466743337881,18.0196686663353
0.00278247970320823,18.0235354380405
0.00297302417532777,18.0275040596772
0.00317506030115547,18.031606028228
0.00338879538046769,18.0358720377101
0.00361571192486593,18.0403335846197
0.00385837380162741,18.0450243225519
0.00412033650120227,18.0499815052649
0.00440627013273574,18.0552472980059
0.00472242581066698,18.0608702210397
0.00504428730094751,18.0663476568899
0.00537838732219451,18.0717524625965
0.00572508769649814,18.077043289155
0.0060884613319554,18.0822382373852
0.00647216951297215,18.0873449048432
0.0068803935502367,18.0923742902736
0.00731741372468093,18.097333601193
0.00778778541297621,18.1022277289885
0.008296406907855,18.1070591265217
0.00884864936480354,18.1118283739624
0.00945046391899439,18.1165344810999
0.0101084859249104,18.1211752512036
0.0108356117419349,18.1257807297704
0.0116543775882764,18.1304135691886
0.012581021371861,18.1350698669809
0.0136399502260366,18.1397684463224
0.0148668316498201,18.1445496955721
0.0163239020870567,18.1495124133876
0.0181565002110124,18.1549407326963
0.0206332695755981,18.1613180409016
0.0222373420362259,18.165100067408
0.0238859998941628,18.1688820939144
0.025329826139043,18.1722619030401
0.026550736692113,18.1753451886985
0.0275649427486919,18.178304327536
0.0283255758071882,18.1811289688563
0.0288193603178591,18.1838722098059
0.0290372683154819,18.1866576471543
0.0289320677128347,18.1896678172308
0.0283173697543818,18.1934204799044
0.0274984614222255,18.1963660018887
0.0264366414826525,18.1993115238729
0.0253631376699096,18.2018643960071
0.0242943476172553,18.2041895128115
0.0232237684949237,18.2063971963467
0.0221521974880088,18.2085398608914
0.021082925566759,18.2106470803731
0.0200196848795108,18.2127382946319
0.0189660987270335,18.2148276145006
0.0179255353630065,18.2169260351225
0.0169010767136376,18.2190426162081
0.0158955193365979,18.2211851857902
0.0149113869872458,18.2233607911376
0.0139509449398729,18.2255760109995
0.0130162103511671,18.2278371953811
0.0121089686235955,18.2301506418676
0.0112307792350417,18.2325227685556
0.0103829869038256,18.2349602617388
0.00956673743812108,18.2374702057169
0.00877063208174291,18.2401026566933
0.00798606494595585,18.2429117082791
0.00721679626735201,18.2459181166522
0.0064666875764734,18.2491464319909
0.00573984970930149,18.2526250958499
0.00504060586580559,18.2563872209972
0.00437344291587576,18.2604714983645
0.00374290771568587,18.2649235107925
0.00315342790303232,18.2697978876433
0.00260903671042823,18.2751622831005
0.00211303909251528,18.2811047380568
0.0016711231439005,18.2876897994435
0.00129793152994013,18.2947534626421
0.00106372679649385,18.3006653654539
0.000830097491347856,18.3084974995243
0.000642530731163485,18.3169989486271
0.000493952211334526,18.3262332110596
0.000380690552256308,18.3362332110596
0.000303394017490601,18.3462332110596
0.000251589889815582,18.3562332110596
0.000217663626584516,18.3662332110596
0.000196215859900172,18.3762332110596
0.000183529686928822,18.3862332110596
0.000177095887139634,18.3962332110596
0.000175236142467171,18.4062332110596
0.0001768367788485,18.4162332110596
0.000181173744764118,18.4262332110596
0.000187800556763149,18.4362332110596
0.000196476466510049,18.4462332110596
0.000207120741506649,18.4562332110596
0.000219785434592432,18.4662332110596
0.000234642789201937,18.4762332110597
0.000251985611120214,18.4862332110597
0.000272240611069173,18.4962332110597
0.000295996562596668,18.5062332110597
0.000324051611049904,18.5162332110597
0.000357487834191617,18.5262332110597
0.000397787316678832,18.5362332110597
0.000447014748043556,18.5462332110597
0.000504494238484037,18.5556923976803
0.000570129277218501,18.5644281056455
0.000644947153993775,18.5724880079148
0.000730200949781518,18.5799248532798
0.00082732737970707,18.5867878806091
0.000937956215875113,18.593122788928
0.00106393210347485,18.598972005413
0.00120734236196311,18.6043749309124
0.00137054982555253,18.6093681585224
0.00155622979847667,18.6139856802932
0.00176741461572655,18.6182590858364
0.00200754561490478,18.6222177531272
0.00228053732590744,18.6258890308242
0.0025908556730164,18.6292984210886
0.00294361751411331,18.6324697694914
0.00334471921413897,18.6354254649222
0.0038010065079028,18.6381866585052
0.00432050778645481,18.6407735199381
0.00491276483526879,18.643205556091
0.00558932251050147,18.6455020370085
0.00634261882333882,18.6476263407229
0.00717645984795035,18.6495957467311
0.0081039561929698,18.6514455818377
0.00914524963338516,18.6532125313841
0.0103345993653043,18.6549410930915
0.0117486244602876,18.6567100573614
0.013688013445302,18.6587936630836
0.0153233270418978,18.6603487803556
0.017089034206498,18.6619038976275
0.0187162470879293,18.6632827820022
0.0201454207116848,18.6644985382192
0.0214249511715181,18.665636943959
0.022565053566589,18.6667478548911
0.0235542421705251,18.6678699221235
0.0243641128294153,18.6690468360961
0.0249400390484695,18.670349095093
0.0251511111855402,18.6719562575977
0.0247530462252551,18.6737583027589
0.0237844475847664,18.6755603479201
0.0226689780626081,18.6770352094057
0.0214213542332207,18.6784389865822
0.0200368782419298,18.6798650143442
0.018523831244297,18.6813567075992
0.01688922837803,18.6829516192843
0.0151678040988437,18.684696882151
0.0135171116316388,18.6865150922429
0.0111778913208148,18.6894200005067
0.00926747247793078,18.6921874253982
0.00774680051915909,18.6947523803438
0.00647094570035279,18.6972503735812
0.00535390508429548,18.6997950844868
0.00437132697776796,18.702414024645
0.00350557021435377,18.7051303858844
0.00274222332121225,18.7079678639788
0.00211086851915021,18.7107503304442
0.00160213673448604,18.7133858268155
0.00118117328958945,18.7159217466335
0.000823596205555926,18.718405042659
0.000513712629012197,18.7208687687169
0.000241200962103615,18.7233336712959
-3.90544911993496e-06,18.7258419915246
-0.00023766615087118,18.7285420716644
-0.000444065583873517,18.731218182988
-0.000587535714025539,18.7332600098285
-0.000720852803583588,18.7353018366689
-0.000832009190432031,18.7371157407776
-0.000931173334168074,18.7388216028041
-0.00102618630293287,18.7405339938399
-0.00112328967336188,18.7423619706584
-0.00123146618123013,18.7444883990933
-0.00137986300532085,18.74755072519
-0.00155351198958098,18.7513274634191
-0.00169216201456614,18.7544778795023
-0.00182360358177158,18.7575673517307
-0.0019686329812557,18.7610960342027
-0.00214277166853193,18.7655444971911
-0.00234012557822635,18.7711309776608
-0.00247433542808417,18.7760237910696
-0.00253770870578766,18.7804139867379
-0.00251878957475851,18.7843424746492
-0.0024097994978358,18.787895152098
-0.00220384274744268,18.7911586445955
-0.00189476900751692,18.7941922564151
-0.00147730908935079,18.7970383104071
-0.000943199400031817,18.7997466206471
-0.00027244088473591,18.8023937678503
0.000587752630197663,18.8051186515543
0.00177201381296084,18.8081888574856
0.00326563591742591,18.8114388695015
0.00509012495004024,18.8148668097189
0.00637045832543578,18.8170165190191
0.0077791696598958,18.8191662283193
0.00916693184955849,18.8210707007305
0.0106157310055771,18.8228456207754
0.0121387490151282,18.8244974233859
0.0138034401510325,18.8260838987217
0.0156277163709263,18.827601239496
0.0176534690047599,18.8290645118802
0.0199024273202167,18.830470197291
0.0224122532568855,18.8318245814434
0.0252121406337094,18.8331271901183
0.0283410823632135,18.834381349326
0.0318421381502404,18.835590047515
0.0357630961344097,18.8367559900419
0.0401570976130769,18.8378816442351
0.0450920067364064,18.8389711286693
0.0506447092629333,18.8400279072499
0.0569066002949625,18.8410556235459
0.0639875752243549,18.8420581558175
0.0720203176281479,18.8430395659884
0.0811710172575469,18.8440046225423
0.0916477266422637,18.8449586078418
0.103718463795673,18.8459077814518
0.117739052950881,18.8468599262134
0.134200762904392,18.8478252859261
0.15382275295841,18.8488185187617
0.176631554685587,18.849817343579
0.203133971519476,18.8508273211947
0.234120187916855,18.8518627489709
0.270731584236816,18.8529459901209
0.313650490432206,18.8540880706327
0.355516403284208,18.8551235239233
0.390324045744719,18.8559614721684
0.420329971026553,18.8566953900719
0.446570410574075,18.8573750632526
0.469260746715049,18.8580289306148
0.488185437601132,18.8586790317028
0.502724158606397,18.8593477393791
0.511635653256482,18.8600644770911
0.512314727749951,18.86087907628
0.502090765484454,18.8617055430178
0.47980424880523,18.8625602637731
0.443907210861317,18.8634556962367
0.392628019704064,18.864400888701
0.348380919204393,18.8650731239258
0.298558807231308,18.8657453591506
0.254077345221607,18.8663025199975
0.216130051769946,18.8667624960203
0.182891755805193,18.8671638008619
0.153160349772417,18.8675289844992
0.126228648718352,18.8678714493961
0.101624990040243,18.868200516732
0.0789798660282938,18.8685240313086
0.0579343599675134,18.8688504549927
0.0379965347088383,18.8691927181666
0.0179530471320074,18.8695846376556
0.00945243605108552,18.869771301385
0.00160981933671176,18.8699579651143
-0.00665602019121334,18.8701735651122
-0.0132544108317682,18.8703632330019
-0.0191425102925207,18.8705491860348
-0.0250898917383107,18.8707573293227
-0.0308445713799257,18.8709839387496
-0.0362425693954473,18.8712266398713
-0.0411929373012595,18.8714845507026
-0.0456482389531265,18.8717577710276
-0.0495865746182361,18.8720470947506
-0.0532478704697251,18.8723800289033
-0.0560556817843281,18.8727051831511
-0.058349051964996,18.8730515932834
-0.0601448389983014,18.8734225864819
-0.0614572144299494,18.8738218009613
-0.0622997025632529,18.8742537231495
-0.0626837082888858,18.8747239425383
-0.0626168769710774,18.8752395265121
-0.0621009316672861,18.8758096843738
-0.0611260972213339,18.8764480575207
-0.0596679098388678,18.8771723124282
-0.0576766696310599,18.8780090557032
-0.0550497813479308,18.8790037987157
-0.0515301273086339,18.8802574211584
-0.0475099087827474,18.8816515970412
-0.0436241827814889,18.8829990664968
-0.0399216798583421,18.8843048249907
-0.0364257779270251,18.8855713940336
-0.0331481300913163,18.8867997607927
-0.0300934931600047,18.8879901314134
-0.0272619357837838,18.8891423313361
-0.0246500545148365,18.8902560157761
-0.0222517821413141,18.8913307780655
-0.0200590126367784,18.8923662005899
-0.0180621300855595,18.8933618716243
-0.0162504733115699,18.8943173806129
-0.0146127463245414,18.8952322987527
-0.0130556043022717,18.8961561564162
-0.0115589710257856,18.8971037775923
-0.0101271153726893,18.8980769218194
-0.00876394250522529,18.899077776615
-0.00747314911035494,18.9001089145566
-0.00625817195769954,18.9011733904975
-0.00512213566700193,18.9022748691291
-0.004067798213708,18.9034177976003
-0.00309749402463433,18.9046076447797
-0.00221307405133726,18.9058512423943
-0.00141584143683893,18.9071572880599
-0.000706480002820877,18.9085371178873
-8.49701361542701e-05,18.910005954625
0.000449518929228823,18.9115850583863
0.000880281924282633,18.9132243459996
0.00121568558362557,18.9149152170645
0.00147141154582406,18.9166761334964
0.00166177481046238,18.9185299280867
0.00180030028999784,18.9205075320013
0.00190018575086067,18.9226536627253
0.00197503274308135,18.9250390895462
0.00204038766581829,18.9277925570278
0.00211875826443261,18.9312181210557
0.00222125053684905,18.9349814732306
0.00234851044422863,18.9387656701942
0.00249760497235176,18.9425425713609
0.00266500244809662,18.9463602620171
0.00284719950195487,18.9502572401272
0.00304185385266395,18.9542667453381
0.00324810496532765,18.9584197892308
0.00346651912167073,18.9627471775356
0.00369890042898702,18.967280962985
0.00394811770139399,18.9720558336932
0.00421806677537567,18.9771105258726
0.00451388744867091,18.982489156061
0.00483497768951548,18.988111123831
0.00516036025497311,18.9935490551334
0.00549913010069404,18.9989179741061
0.00585143526850719,19.0041723318963
0.00622175798580725,19.0093352000617
0.00661380236185888,19.014413337578
0.00703183726639753,19.0194171412991
0.00748022328972463,19.0243528218769
0.00796363517849346,19.0292244305557
0.00848712911801459,19.0340337079617
0.00905627425546926,19.0387806519169
0.00967725519652776,19.0434637972115
0.0103569809847429,19.0480806554876
0.0111151854638412,19.0526976397539
0.0119698865468366,19.0573372516809
0.0129403106864929,19.0620058346765
0.0140538879060867,19.0667271980902
0.0153531008182374,19.0715565211977
0.0169183990018301,19.0766331281523
0.0189731718279728,19.0824155439776
0.0208454348425271,19.0871032451187
0.0228535699005266,19.0917909462597
0.0244921742621284,19.095556142565
0.0258457612259935,19.0987994846425
0.0269836271798778,19.1018157408805
0.0279073604101085,19.1047453072786
0.0285591862471955,19.1075238290357
0.028943233679308,19.110267867192
0.0290387671524385,19.1131155898831
0.0287672599630022,19.11631775968
0.0278077629361461,19.1206382825813
0.0269294509217713,19.1232938572002
0.0258789774362775,19.1259494318191
0.0248118911204045,19.1283588859823
0.0237425980617478,19.1306139926369
0.0226711922016354,19.1327833700954
0.0216003566300774,19.1349047722781
0.0205337395221141,19.1370016362303
0.0194750492968874,19.139090270049
0.0184277864395021,19.1411829817897
0.0173951725282625,19.1432896568515
0.0163801413763346,19.1454186492904
0.0153853477138979,19.1475773358044
0.0144131795530223,19.1497724889842
0.0134657743838681,19.152010538227
0.0125450275115149,19.1542977852948
0.0116526060145648,19.1566405698392
0.0107899593937657,19.1590454216569
0.00995832704803276,19.161519214405
0.00915788435798339,19.1640721744635
0.00836716244570597,19.1667928672569
0.00758994960576323,19.1697001742106
0.00682998181008674,19.1728169717128
0.00609125091011446,19.1761697210244
0.00537798336760902,19.17978914606
0.00469459626127838,19.183711078856
0.00404562208881606,19.187977551942
0.00343558047218967,19.1926383870137
0.00286873019833644,19.1977542649184
0.00234877436459379,19.2034020669297
0.00187854817510352,19.2096845148735
0.00147263759053772,19.2165028983742
0.00113969034380033,19.223844941018
0.000894977426489612,19.2313313450077
0.000702531265379234,19.2392480811548
0.000538317498995892,19.2483879858591
0.000411160203268967,19.2583879858591
0.000323910475285261,19.2683879858591
0.000265039136502456,19.2783879858591
0.000226149369179185,19.2883879858591
0.00020122059435431,19.2983879858591
0.000186065256571286,19.3083879858591
0.000177839805730245,19.3183879858591
0.000174637594077385,19.3283879858591
0.000175189644356538,19.3383879858591
0.000178663630993926,19.3483879858591
0.000184534487852337,19.3583879858591
0.00019250163730116,19.3683879858591
0.000202436045017553,19.3783879858591
0.000214347643499987,19.3883879858591
0.00022836824636242,19.3983879858591
0.000244747658958655,19.4083879858591
0.000263862434606157,19.4183879858591
0.000286238432124527,19.4283879858591
0.000312590513611697,19.4383879858591
0.000343885913809067,19.4483879858591
0.000381442904190811,19.4583879858591
0.000427085070845331,19.4683879858591
0.000481747175905629,19.478121462126
0.000544265517021673,19.4871209110713
0.000615553912920259,19.4954242899044
0.000696796317828134,19.5030854301452
0.000789361692994364,19.5101549549584
0.000894806572056905,19.5166798485026
0.00101489347583869,19.5227037230025
0.00115161677732535,19.5282670760509
0.00130723373993262,19.5334075178698
0.00148429988577356,19.5381599815641
0.001685710424658,19.5425569245223
0.00191474932333991,19.5466285226764
0.00217514875481853,19.5504028554063
0.00247116119457987,19.5539060872108
0.00280765084927681,19.5571626545649
0.00319020989359003,19.5601954619249
0.00362531144387075,19.56302609185
0.00412051647762939,19.5656750452015
0.00468476310711074,19.5681620333208
0.00532878828753695,19.5705063570367
0.00605464927700409,19.57269683417
0.00685749701576709,19.574719552319
0.00774851905499835,19.5766096068769
0.00874479650056676,19.5784028102495
0.00987402814773213,19.5801395631271
0.0111886074281548,19.5818774244624
0.0128761174159916,19.5837971394735
0.0147465224816429,19.5856534712893
0.0163453290397194,19.5870976045708
0.0180301763428654,19.5885417378522
0.0195349866955792,19.5898134737302
0.0208768774695249,19.5909782546514
0.0220785000962449,19.5920963619804
0.0231363144927365,19.5932088727937
0.0240296104588446,19.5943554115977
0.0247176433849426,19.5955905684358
0.0251159982625203,19.5970248521613
0.0249168971534743,19.5991197721834
0.0242395230190225,19.600655802011
0.0232091791439742,19.6021918318386
0.0220320688407162,19.6036046837315
0.0207130805014054,19.6050127584346
0.0192607026605629,19.6064683821623
0.0176839745430477,19.6080088798615
0.0166978438135856,19.6089726809798
0.015737169709147,19.6099364820981
0.0133627363098891,19.612525713155
0.0109760211316563,19.6155248729108
0.00910089193062121,19.6182821364008
0.00761153944402564,19.6208317807328
0.00635285237528024,19.6233329598554
0.0052500747892235,19.6258840226896
0.00427981792477555,19.6285116548483
0.00342483078404101,19.6312390153818
0.00267095155400483,19.6340899427285
0.00205573544946411,19.6368468681022
0.00155854868508547,19.6394614096514
0.00114583320873523,19.6419815094905
0.000794338709974747,19.6444528367802
0.000489089353367624,19.6469072522825
0.000219943131388927,19.6493671506592
-2.35464179401105e-05,19.6518836894287
-0.000259038732390447,19.6546323571029
-0.00044995049231071,19.6571251693394
-0.000623184266915051,19.6596179815759
-0.000752214723993149,19.6616291335037
-0.000858441166966635,19.6633883686681
-0.000955646751574992,19.6650817234399
-0.00105084420769088,19.6668175565338
-0.00115064495100843,19.6687183828639
-0.00126711051848425,19.6710378503123
-0.00147268914881621,19.6753766735827
-0.00165098241193352,19.6793668200242
-0.00179417384746732,19.6827098161714
-0.00193978389542379,19.6862350166888
-0.00211093587844754,19.6905751840804
-0.00231357201698353,19.696214666331
-0.00245534982106925,19.7011706379217
-0.00252823046877604,19.705618631207
-0.00252034721171578,19.7095982271713
-0.00242363281551527,19.7131884255361
-0.00223118867117383,19.7164789177165
-0.00193644314221864,19.7195352458499
-0.00153419122074568,19.7223983191218
-0.00101692209653532,19.72511599482
-0.000365738478076279,19.7277646231111
0.000466645956799392,19.7304719592363
0.00161415509524226,19.7335164544351
0.00306807933233913,19.7367430237646
0.00486978938501385,19.7401866751189
0.00613405692723026,19.7423465083759
0.00752312552867849,19.7445063416329
0.00893754923015428,19.7464863655591
0.0103576824062123,19.748262318096
0.0118666465602371,19.7499357358558
0.0135064221266224,19.7515351386856
0.0152996824667255,19.7530629939517
0.0172882296804523,19.7545353157644
0.0194955212002746,19.755950064942
0.0219584444226814,19.7573132664664
0.0247041405508369,19.7586236215115
0.0277736194256769,19.7598857504929
0.0312076612364824,19.7611019190864
0.0350513215581636,19.7622743300394
0.0393590566305031,19.7634062601286
0.0441957216335376,19.7645014224131
0.0496359001410091,19.7655632383575
0.0557681542148812,19.7665953166015
0.0626982995272784,19.7676014234307
0.0705549922768603,19.7685856563433
0.0794978499921586,19.7695526501428
0.0897261477669899,19.770507535952
0.101495343158747,19.7714563463476
0.115142285149518,19.7724064992735
0.1311281556976,19.7733676492486
0.15011912210073,19.7743533575341
0.172336479855672,19.7753504740415
0.198127918008034,19.7763564979234
0.228237997589304,19.7773846916788
0.263719307257943,19.7784551996549
0.306002628229279,19.7795976054186
0.340460522447925,19.7804607683056
0.376224076497475,19.7813239311927
0.408079274027856,19.7820914916403
0.435973597903146,19.7827898508847
0.460288064464557,19.7834512671522
0.480977961344059,19.7840994829
0.497614818853069,19.7847560638663
0.509279469322952,19.7854463069784
0.514124615290333,19.7862090734917
0.509096819066928,19.7870272217689
0.492584861965804,19.7878665624883
0.463204128938798,19.7887416204055
0.419253352745311,19.7896627179192
0.372649920236538,19.7904348006236
0.329623993374054,19.7910513971665
0.282313403802022,19.7916679937094
0.240435486162952,19.7921836363244
0.20427740797649,19.7926194523909
0.172326893381057,19.7930061185216
0.143603796038623,19.7933620249751
0.117502970312889,19.7936987504707
0.0935983107943777,19.7940248722856
0.0715335358391123,19.7943481918501
0.0509260266517519,19.794678081131
0.0311555656688527,19.7950312819737
0.0100924860933973,19.7954673792076
0.000665156107193328,19.7956919099816
-0.00784155677319979,19.7959164407556
-0.0142915503450565,19.796104536653
-0.0202202860305314,19.7962947579886
-0.0261534751831615,19.7965063079762
-0.0318574588058497,19.7967357460093
-0.0371841609293936,19.796981019033
-0.0420520761193251,19.7972414509385
-0.0464193776757212,19.7975172806087
-0.0502664867770454,19.7978094072894
-0.0538332481487925,19.7981462946609
-0.0565499577381219,19.7984749804047
-0.0587543391499908,19.798825396332
-0.0604634680904561,19.7992009876481
-0.0616915315349651,19.7996055316216
-0.0624517979465542,19.8000436921856
-0.0627551350588491,19.80052129344
-0.0626083165042482,19.8010457244019
-0.0620113895242124,19.8016269084975
-0.0609522784030022,19.8022790434177
-0.0594029885057969,19.8030210396394
-0.0573070832490208,19.8038818934997
-0.0545457844119572,19.8049128913488
-0.0508002616878893,19.8062369398059
-0.0467987171236053,19.8076215162946
-0.0429432837016887,19.8089609263614
-0.0392767777002106,19.8102593246584
-0.0358197665383059,19.8115188404656
-0.0325823546193994,19.8127402602611
-0.0295682997520718,19.8139236892421
-0.026776953450678,19.8150689045195
-0.024204368887284,19.8161755406221
-0.0218440619930717,19.8172431840694
-0.0196876133838467,19.8182714163162
-0.0177251833409891,19.8192598256764
-0.0159459658123637,19.8202079993741
-0.014338589136358,19.8211155018154
-0.0127917551595271,19.8220435043519
-0.0113063318036282,19.8229954834947
-0.00988638987686714,19.8239733485408
-0.00853580230405123,19.8249793483738
-0.00725822362022257,19.8260161329424
-0.00605703945068212,19.8270868544097
-0.00493531388108014,19.8281953015059
-0.0038957345666886,19.8293460820527
-0.0029405553706925,19.8305448771375
-0.00207153581408529,19.8317988055147
-0.00128987576904663,19.8331169645086
-0.000596142282565923,19.8345112675607
9.8175659807838e-06,19.8359978111876
0.000528990302100838,19.8375992620216
0.000941144430285128,19.8392462961628
0.00126098122752592,19.8409483552017
0.00150378631723852,19.8427241222474
0.00168370359375206,19.8445976245381
0.00181415695244256,19.8466017383244
0.00190834604492199,19.8487846653129
0.00198006044880827,19.851224259668
0.00204551077695795,19.8540670928818
0.00212997255549736,19.8576865454065
0.00223773682508592,19.8614821668966
0.00236940571338542,19.8652622955566
0.00252212524087374,19.8690420654955
0.00269221205810561,19.8728682832731
0.00287634997130448,19.8767784958276
0.0030725009378973,19.8808054972024
0.00328010976549847,19.8849801624306
0.00350000413697744,19.8893333920155
0.00373419471919629,19.8938975085928
0.00398571656275692,19.8987076651326
0.00425862425464923,19.9038032399358
0.00455826180570515,19.9092291932501
0.00487947759491686,19.9148228859094
0.00520655481180135,19.9202544522686
0.00554684041850536,19.925607003495
0.00590130160415676,19.9308486985416
0.00627425559184055,19.9359994457206
0.00666951511714657,19.9410670984787
0.00709134823974582,19.9460613636649
0.00754415526008491,19.9509881949545
0.00803265450170959,19.9558512974175
0.00856196494422384,19.9606521601294
0.00913773272734846,19.9653905642508
0.00976623365472856,19.9700648759222
0.0104544850199889,19.9746725214679
0.0112249921701199,19.9792939312032
0.0120939879042505,19.9839364512738
0.0130819247531949,19.9886103992773
0.0142176039780069,19.9933420635863
0.0151105345733099,19.9966710317931
0.0160894692238559,20
