ecg,time
0.000221417568860136,15.0024044584249
0.000217014431952716,15.0124044584249
0.000218907128841763,15.0224044584249
0.000225845482123811,15.0324044584249
0.000237114937379512,15.0424044584249
0.000252401229172982,15.0524044584249
0.000271717086581738,15.0624044584249
0.000295374455631977,15.0724044584249
0.00032399508980552,15.0824044584249
0.000358561704977926,15.0924044584249
0.000400521491497262,15.1024044584249
0.000451032512877102,15.1122359393211
0.000508633246787194,15.1213511960431
0.000574004085996051,15.1297818172293
0.00064811086961291,15.1375783384198
0.000732104339098859,15.144788522984
0.000827306650098362,15.1514568272428
0.000935220405891564,15.1576246565661
0.00105754859803473,15.1633306043014
0.0011962203359881,15.168610647806
0.00135342036114503,15.1734983182355
0.00153162202265964,15.1780248717195
0.00173362738764875,15.1822194568701
0.00196261336100122,15.1861092694247
0.00222218662661511,15.189719691427
0.00251645156343262,15.1930744376378
0.0028500931359296,15.196195710366
0.0032284835352904,15.1991043537435
0.00365781811121253,15.201820018079
0.00414529707819388,15.2043613512174
0.00469937548704602,15.2067462232491
0.00533011669730784,15.2089920087388
0.00604625625323726,15.2111066506552
0.00683569702079207,15.2130512198454
0.00770733434664344,15.2148572709553
0.00867452537237237,15.2165561778913
0.00975734299411358,15.2181800646795
0.0109893761083842,15.2197675263884
0.0124719317640973,15.2214144229559
0.0144702140338755,15.2233224829259
0.0162604246889222,15.2248310853444
0.0182053940681013,15.2263396877628
0.0199826688646395,15.2276593887868
0.0215385596340186,15.2288143216276
0.0229346758615116,15.2298931999341
0.024185448622088,15.2309453231271
0.025280731152693,15.2320081020766
0.0261925439584861,15.2331234780346
0.0268664359331969,15.2343588533744
0.0271727887479599,15.2358850200984
0.0268360165926677,15.2376269263443
0.0258789812346637,15.2393688325902
0.0247481700913229,15.2407927165128
0.0234672942192223,15.2421527796718
0.0220317267455542,15.2435417496023
0.0204494316751954,15.2450033202024
0.0187265564977784,15.2465763485988
0.0180540010295752,15.2471950567159
0.0173948172843225,15.247813764833
0.0148971219414821,15.2503355526475
0.0124020259842938,15.2532221363115
0.0103612918823861,15.2559754569595
0.0086904691649133,15.2586084811186
0.00734246580718552,15.2610843115196
0.00617247693914568,15.2635891965104
0.00515002456967537,15.2661562145732
0.00425549983206937,15.2688088402535
0.00347356839469717,15.2715700815469
0.00298509967580963,15.2735867734894
0.00255699684281797,15.2756034654319
0.0022108639970871,15.2774549755849
0.00191406730215902,15.2792447988176
0.0016435795218936,15.2810834175387
0.00138216565779059,15.2831022218799
0.00110606751061493,15.2855775549993
0.000759703479053387,15.2894101433408
0.000501126037897295,15.293127878033
0.000324527583807444,15.2964100253678
0.000182108394699053,15.2998742881466
6.25025407787555e-05,15.3040249533904
-2.02470816679942e-05,15.3095580796174
-2.090329781175e-05,15.3143469660593
4.35747971738551e-05,15.3187326297793
0.00016862926610206,15.3227118339988
0.000353375044574532,15.3263290597607
0.000599214526491557,15.3296270561887
0.000910014567230359,15.3326563803256
0.00129207229306159,15.335466967684
0.00175503554441386,15.3381098508462
0.00231423641058968,15.3406414364067
0.00299392875283807,15.3431249398745
0.00383337403687169,15.3456357392848
0.00489661978809999,15.3482663304097
0.00622968595681517,15.3510165996148
0.00771178795740695,15.3535965978311
0.00920969233313088,15.35582884481
0.0107101916022413,15.3577629280858
0.0122609476700725,15.3594986957816
0.0139390444713923,15.3611279882073
0.0157531846225964,15.3626512494622
0.0177664964529008,15.3641095361163
0.0200001882503431,15.3655015990203
0.0224991451928492,15.3668394937195
0.0253003580514878,15.3681265008695
0.0284427673884386,15.3693650589564
0.0319755289546798,15.3705596936567
0.0359472541974142,15.3717124350119
0.0404189660268927,15.3728270254298
0.0454604034212133,15.3739068902108
0.0511525635878029,15.3749553794336
0.0575898605621542,15.3759757697795
0.0648909735919388,15.3769723617851
0.0731983918358116,15.3779494128826
0.0826890953123778,15.3789116948555
0.0935875327010673,15.3798647437527
0.106185266057748,15.3808152110633
0.120873853228648,15.3817715228248
0.138205135798338,15.3827451704338
0.158792781238885,15.3837434193767
0.182657870813786,15.3847456499535
0.210445873604547,15.3857631782238
0.243036034715358,15.3868123126349
0.281759527124112,15.3879202517206
0.325880563979912,15.3890647089906
0.364957320121468,15.3900207669818
0.397904457035296,15.3908172209009
0.426556623216666,15.3915303471105
0.451583056985747,15.3921998778206
0.473034191785465,15.3928510772314
0.490568500500041,15.3935054285125
0.503401087947645,15.3941866300214
0.509977262745885,15.394928625889
0.507352065106253,15.3957456778089
0.493523009225358,15.3965797903547
0.467204019149926,15.397446236704
0.42676263868709,15.3983561367842
0.370400735647458,15.3993185517557
0.327871233426347,15.3999317278571
0.281081916932556,15.4005449039584
0.239179431138446,15.4010631606047
0.202965893664467,15.4015011196522
0.170974471031458,15.401889265999
0.142220552146048,15.402246217323
0.116095414331956,15.4025836781595
0.0921719994643741,15.4029102738358
0.0700953006426631,15.4032337896074
0.0494879060325404,15.4035634722281
0.0297490714055742,15.403915555136
0.00889888866347593,15.40434559064
-0.000985069593941683,15.4045800879134
-0.00986667739339361,15.4048145851867
-0.0163291987375104,15.40500357491
-0.0222528287516674,15.4051942158253
-0.0281782457583723,15.4054061702728
-0.0338730463300104,15.4056360164418
-0.0391897127779862,15.4058817055482
-0.0440470930737591,15.4061425656542
-0.0484035781201892,15.4064188398852
-0.0522355468684738,15.4067114317892
-0.0555849562909932,15.4070275200423
-0.0583184861661573,15.4073550788553
-0.0605414462759706,15.4077045028521
-0.0622681404440736,15.4080789268408
-0.0635126150117653,15.4084820800786
-0.0642880879867966,15.4089185688168
-0.0646054420827701,15.409394140122
-0.0644715423789086,15.4099160761813
-0.0638867405989594,15.4104940682304
-0.0628393768441479,15.4111421200578
-0.0613022189788259,15.4118787147172
-0.059220518916413,15.4127320139355
-0.0564801565190272,15.4137512403827
-0.0527827748402673,15.4150510811478
-0.0487452241851791,15.4164383171343
-0.0448509894536239,15.4177799041919
-0.0411448107681791,15.4190802115479
-0.0376481095581636,15.4203415012668
-0.0343714771046595,15.4215646304532
-0.0313189935896009,15.4227497418203
-0.0284902441391535,15.4238966322522
-0.0258814582566499,15.4250049464645
-0.0234862857782196,15.4260742760668
-0.0212964067640372,15.4271042050958
-0.0193020520471967,15.4280943235088
-0.0174924616484706,15.4290442202427
-0.0158562896836133,15.4299534621842
-0.01428498958165,15.4308805105696
-0.0127744631009769,15.4318314847494
-0.011328804059942,15.4328082593866
-0.00995186423677771,15.4338130690785
-0.00864727285282905,15.434848545708
-0.00741838424660266,15.4359178186599
-0.00626822323514103,15.4370246475668
-0.00519942747834978,15.4381736024841
-0.00421418628850885,15.4393703145171
-0.00331417460257177,15.4406218346739
-0.00250047957730251,15.4419371657052
-0.00177351492437809,15.4433280840486
-0.00113291347063147,15.4448104780999
-0.000577378221240416,15.4464066778312
-0.000127784373281511,15.448051878383
0.000229168454211318,15.4497512975737
0.000509136313739113,15.4515235591201
0.000726643622363193,15.453392404587
0.000895586540119684,15.4553902421282
0.00102980260730936,15.4575644290103
0.00114404531571654,15.4599910834707
0.00125623448556362,15.4628123240147
0.0013956392109764,15.4663834258341
0.00155877658824433,15.4701704157529
0.00176507104966549,15.4743820702969
0.00198149908692067,15.4783843408305
0.00220600492854967,15.4822981212413
0.00243708874341097,15.4862018961584
0.0026742482131798,15.4901483010547
0.00291814641792458,15.4941780585153
0.00317047349439479,15.4983262527139
0.00343375900367354,15.50262566261
0.00371121111195934,15.507108751922
0.00400665794452175,15.5118093942248
0.00432463301872143,15.5167643207466
0.00467068535554704,15.5220144216527
0.00503905585483457,15.5274173821746
0.00541408862758292,15.5326978374623
0.00580308157572314,15.5379225928172
0.00620676570904752,15.5430566731427
0.00662958009507226,15.5481120008913
0.00707575509352612,15.5530925838282
0.00755024131568334,15.5580060095481
0.008058259382881,15.5628570840768
0.00860545747820344,15.5676488173432
0.00919796042554406,15.5723821290511
0.00984249813570929,15.5770563727062
0.0105479960865876,15.581679007557
0.011339651425973,15.5863395821323
0.0122318236027819,15.5910285000641
0.0132473140335039,15.5957640772604
0.0144182637254799,15.6005812138622
0.0157984232815281,15.6055634288794
0.0175035538450247,15.6109375206091
0.019922106306785,15.6175504534017
0.0215450470286054,15.6215787583199
0.0232277816980015,15.6256070632382
0.0246901760203766,15.6291498043352
0.0259211078342603,15.632339533518
0.0269459886160119,15.6353738349578
0.0277335931392258,15.6382966936612
0.0282545159084581,15.6411151233469
0.0285033605725894,15.6439524233333
0.0284414344653579,15.6469790215351
0.0279249747879692,15.6506125460063
0.0271166206753689,15.6537827892819
0.0260316661990449,15.6569530325575
0.0249461880785113,15.6596337356758
0.0238721852818099,15.6620477479931
0.0227983517783975,15.6643305051715
0.0217243092966635,15.6665421143725
0.0206530857437015,15.6687153346181
0.0195883680197331,15.6708713563615
0.0185338025984773,15.6730254309788
0.0174928094454544,15.675189382139
0.0164685332891008,15.6773729281256
0.0154638400905843,15.6795844529284
0.0144813247207711,15.681831501396
0.0135233218309473,15.6841211205228
0.0125919201695604,15.6864601036536
0.0116889686213526,15.6888552008664
0.010816088196941,15.6913132847111
0.0099746839701396,15.693841498709
0.00916594954076539,15.6964474236104
0.00839088045904511,15.6991392240274
0.00762903924558827,15.7020092732103
0.00688379487256501,15.7050794824058
0.00615892967471604,15.7083743505504
0.00545842522628982,15.7119222033657
0.00478643080627356,15.7157558758793
0.0041471903595448,15.7199136614081
0.0035449249459028,15.7244406837484
0.00298364993604027,15.729391171117
0.00246690648479772,15.7348327170556
0.00199750443920344,15.7408534333311
0.00157744598754199,15.7475719469972
0.00122158846549507,15.754834924202
0.000937993799592054,15.7627055923644
0.000741499878474255,15.770415328981
0.000584266613668589,15.7787857292151
0.000457888034056019,15.7880321336474
0.000362553272501921,15.7980321336474
0.000298708099559739,15.8080321336474
0.000257456997840287,15.8180321336474
0.000232301381481132,15.8280321336474
0.000218626694746397,15.8380321336474
0.000213286504552264,15.8480321336474
0.000214213922327997,15.8580321336474
0.000220103472223848,15.8680321336474
0.000230186246545808,15.8780321336474
0.000244088417770268,15.8880321336474
0.000261751467780607,15.8980321336474
0.000283396474422436,15.9080321336474
0.000309523738381765,15.9180321336474
0.000340947593913849,15.9280321336474
0.000378874275391526,15.9380321336474
0.000425040751952063,15.9480321336474
0.000478636208767279,15.9574935565219
0.000539523467367282,15.9662542679342
0.000608533403944039,15.9743584657841
0.000686716646531409,15.9818548715579
0.000775295061783834,15.9887891221983
0.00087566145677181,15.9952037522058
0.000989395439989351,16.001138430971
0.00111828620536334,16.0066301688993
0.00126436038708308,16.0117134850435
0.00142991183236969,16.0164205712485
0.00161753843153343,16.0207814550045
0.00183018285319342,16.0248241570992
0.00207118331268794,16.0285748316731
0.00234433157084971,16.0320579035031
0.00265394667631401,16.0352962147539
0.00300496620014091,16.038311176265
0.00340306129759885,16.0411229189036
0.00385478871482345,16.0437504641465
0.00436779408655016,16.0462119230343
0.00495109353656606,16.0485247323376
0.00561548064898712,16.0507059642073
0.00635958933310173,16.0527365212512
0.00717983127154536,16.054610056155
0.00808648639691932,16.0563575870043
0.0090947388620856,16.0580098145298
0.0102280945912907,16.0595996069251
0.0115277715052195,16.0611694566018
0.0131478251784482,16.0628570386727
0.0154975367480035,16.0649525030422
0.0172265045193496,16.0663252133777
0.0190673095430921,16.0676979237133
0.0207579128515115,16.068926570747
0.0222638014265027,16.0700372265556
0.0236189885907025,16.0710939715164
0.0248264870747671,16.0721386331686
0.0258695177085226,16.0732084583562
0.0267120532053244,16.0743513117603
0.0272817988767571,16.0756564546704
0.0273626771538671,16.0774253264315
0.0268227095141664,16.0789879401253
0.0258186033811054,16.0805505538191
0.0246487451961923,16.0819267056892
0.0233184046604296,16.0832834378352
0.0218323301337043,16.0846851061045
0.0201992760193083,16.0861712375737
0.0184234401886579,16.0877826070455
0.0165337568500595,16.0895761505527
0.0143172492267928,16.0918946503435
0.0118906159745004,16.0948001222926
0.00991100298740293,16.0975752840139
0.00833106646413584,16.1001664039905
0.00703495112021802,16.1026447291645
0.00590750404348468,16.1051620734883
0.00492202335196738,16.1077478661298
0.004060228369049,16.11042521994
0.00330763807639114,16.1132173329349
0.0028389441204499,16.1152556546237
0.00242907001755318,16.1172939763125
0.00209923852519163,16.1191602387058
0.00181776362605212,16.1209586156955
0.00156231340395152,16.1228007360635
0.00131656190976047,16.1248165005275
0.00105877522791816,16.1272735896759
0.000728900454902445,16.1311720816123
0.000485870373444537,16.1349422974948
0.000323572153647147,16.138236008907
0.00019513308346306,16.1417030564664
9.09524643735586e-05,16.1458531566671
2.79572073362711e-05,16.1513343224367
4.35806030282328e-05,16.1560917927708
0.00012340603891425,16.1604481240874
0.000263366020917025,16.1644021211358
0.000462950037755484,16.1679981175434
0.000723733925690441,16.1712777929885
0.00104971080061743,16.1742907291437
0.00144705600157309,16.1770844560717
0.00192511095310684,16.1797076506282
0.00249833963793564,16.182212769614
0.00318863723815142,16.1846556875972
0.00402961358790185,16.1870988621803
0.00507240721774191,16.1896122521985
0.00635035440408799,16.1921900508412
0.00779535049094558,16.1946553568059
0.00930873953371638,16.1968650499835
0.0108457297957686,16.1988033718253
0.0124351256254904,16.2005426617962
0.0141481120082256,16.2021691623611
0.0160029476686096,16.2036935071985
0.0180505035721169,16.2051463479154
0.0203304028110093,16.2065394097809
0.0228666854448492,16.207871608835
0.0257094547584773,16.2091540450169
0.028895319602929,16.2103877490707
0.0324754822960578,16.2115778052528
0.0365030085102756,16.2127272300131
0.0410352833179978,16.2138383053694
0.0461461165125483,16.2149151889708
0.0519186324150193,16.2159612631309
0.0584518088328407,16.2169801354992
0.065863503023292,16.2179755083767
0.0743023261608417,16.2189520242368
0.0839511518533988,16.2199145728735
0.0950427523511507,16.2208688624828
0.107881489182267,16.2218218439314
0.122878604640417,16.2227823803095
0.140618988811898,16.2237627010558
0.16158949661745,16.2247632680457
0.185916295536569,16.2257695806278
0.214275079111405,16.2267937331829
0.247598782815321,16.2278534597532
0.287344008410761,16.2289794641742
0.331884009833528,16.2301289829498
0.369533513529817,16.2310528608001
0.401464569541137,16.2318332203523
0.429319563362857,16.2325394009443
0.453603378080184,16.2332069952151
0.474282809491951,16.2338599293223
0.490945420539428,16.2345195417822
0.502708435148223,16.235210357342
0.507824042725347,16.235968935407
0.503289746362284,16.236789593861
0.487397581964929,16.2376296174889
0.458803706354804,16.2385034844374
0.41585455110607,16.2394215775123
0.356751641133438,16.2403936443982
0.315480903683226,16.2409742464311
0.270639133003691,16.241554848464
0.230381266885987,16.2420513352799
0.195317115878466,16.2424767496988
0.16418120256763,16.2428573903486
0.136110914949361,16.2432097743169
0.110555104494502,16.2435446793219
0.0871132585313315,16.243870375549
0.0654372426392143,16.2441947184713
0.0451302291805502,16.2445277197906
0.0254836145612438,16.244888878879
0.00346058435017835,16.2453639146981
-0.00438996874405356,16.2455598248656
-0.0115564994950377,16.245755735033
-0.0177298452884629,16.2459409271402
-0.02366950200283,16.2461372483327
-0.0295498950269281,16.2463540473567
-0.035157873975501,16.2465881355665
-0.0403646385060877,16.2468378328374
-0.0451002275738293,16.2471027102391
-0.0493297057152328,16.247383180523
-0.0531615461178211,16.2476920945492
-0.0562804988421679,16.2480053777026
-0.0588799024274041,16.2483385674159
-0.0609734680505525,16.2486944449102
-0.0625747989531622,16.2490762016804
-0.0636978241281684,16.2494877649134
-0.0643552825356814,16.2499339951423
-0.0645571925137301,16.2504209753584
-0.0643090925709195,16.2509564482878
-0.0636087798473943,16.2515511413237
-0.0624413141071854,16.2522198657558
-0.0607742806569305,16.2529829281448
-0.0585428611030041,16.2538720771932
-0.0556075804836156,16.2549456135261
-0.0515614609090437,16.2563569629191
-0.0475624792082204,16.2577299109736
-0.0437244775765678,16.2590584314985
-0.0400824876260554,16.2603464552896
-0.0366539919178485,16.2615957560775
-0.0334473172704093,16.2628069416033
-0.0304650179985136,16.2639800348809
-0.0277055498158038,16.2651147809948
-0.0251642717089431,16.2662108076638
-0.0228341617325096,16.2672677058393
-0.0207063966288449,16.2682850643485
-0.0187708526932959,16.2692624765475
-0.0170165477717782,16.2701995287526
-0.0154059872941561,16.2711109582273
-0.0138526601922607,16.2720455489908
-0.0123614557748529,16.2730046065863
-0.0109363425511126,16.2739901440536
-0.00958110521958031,16.2750045143163
-0.00829928851790421,16.2760504970989
-0.00709414446485214,16.2771314081269
-0.00596857665662538,16.2782512452192
-0.00492508139556477,16.2794148880606
-0.00396568486835956,16.2806283785375
-0.00309187472254707,16.2818993263222
-0.00230452283362199,16.2832375175627
-0.00160379309728391,16.2846558702624
-0.000989022038809249,16.2861720205985
-0.000464318267667452,16.2877909864295
-4.44061527884558e-05,16.2894515675719
0.000288134527900817,16.2911721287041
0.000548498009231212,16.2929724247903
0.000750981912772191,16.2948785261528
0.000909421665285291,16.2969267212661
0.00103785701386497,16.2991714755975
0.00115177539105041,16.3017038916498
0.00127135721531915,16.3047063878388
0.00142411668649493,16.3084421656757
0.00160194466282394,16.3123223092757
0.00181545079745031,16.3164608698086
0.00203842528890171,16.3204343854962
0.00226878833069429,16.3243461207487
0.00250535090214841,16.3282649258869
0.00274802674144528,16.3322391629766
0.00299786496546106,16.3363075641319
0.00325688370089928,16.3405043485481
0.00352788868755831,16.3448620963649
0.00381433926412057,16.3494136009803
0.00412033118698185,16.3541935016305
0.00445074620450652,16.3592396545847
0.00481166411715957,16.364594470249
0.00518421965942358,16.369924589842
0.00556793780131759,16.3751853267112
0.00596515912697662,16.3803676613386
0.00637890307465525,16.3854669023445
0.00681329254419115,16.3904882548545
0.00727296615403088,16.3954383057356
0.0077629979725136,16.4003232451148
0.00828883009921817,16.4051472567269
0.00885634105591079,16.4099124573893
0.00947193964168496,16.4146190861012
0.010142694061861,16.4192660300434
0.0108856236442161,16.4239059009659
0.0117204203261942,16.4285775164601
0.0126650698211172,16.4332844862846
0.0137457231028677,16.4380501978247
0.0150019614598664,16.4429259706198
0.0165064514881316,16.4480387705864
0.0184484458081596,16.4537860425115
0.0203614924942371,16.4588131284382
0.021954527955759,16.4627139540188
0.0235875293070669,16.4666147795995
0.0249914667040671,16.4700512017133
0.0261741741281508,16.4731905305268
0.0271514538744259,16.4762097971129
0.0278767256515835,16.4790980255635
0.0283359173374925,16.4819090165034
0.0285180240173537,16.4847715579479
0.0283712882902808,16.4878819682258
0.0276832882485267,16.4918357358203
0.0268427475492403,16.4947956061187
0.0257760155002478,16.4977554764171
0.0246983774206338,16.5003471623442
0.0236251756634769,16.5027224001721
0.0225511872786822,16.5049848369212
0.0214775293018067,16.507185217391
0.0204075190524421,16.5093527949384
0.0193448680329906,16.511507062285
0.0182931804044838,16.513662319141
0.017255815423374,16.5158298126247
0.0162358549699472,16.5180188938566
0.0152361021208414,16.5202377134472
0.0142590924252975,16.5224936679289
0.0133071042046183,16.5247937173164
0.0123821693952841,16.527144622707
0.0114860869700269,16.5295531292067
0.0106204269172046,16.5320261461764
0.00978654601017047,16.534570883677
0.00898559159118312,16.5371950202502
0.0082136693954616,16.539924681285
0.00745533506968693,16.5428386986171
0.00671445546102684,16.5459581665894
0.00599485587317551,16.5493084221521
0.00530056218276938,16.5529187441544
0.00463575287919086,16.5568231167485
0.00400467962883597,16.5610612375472
0.00341153452534552,16.565680049506
0.00286025180491235,16.5707363184057
0.00235422077607262,16.5763015584664
0.00189606143111231,16.5824698288196
0.00148938410971444,16.5893343662131
0.00114789831833509,16.5967274408278
0.000872833475386286,16.6050156868294
0.000709961247203276,16.6118913303929
0.000549308391682961,16.6209441639757
0.000432741121846938,16.6301105384066
0.000343959693849664,16.6401105384066
0.000284631480620758,16.6501105384066
0.000246420215426904,16.6601105384066
0.000223234089670943,16.6701105384066
0.000210762328446673,16.6801105384066
0.000206076031189487,16.6901105384066
0.000207255178244073,16.7001105384066
0.000213087736332268,16.7101105384066
0.000222859737932447,16.7201105384066
0.000236224084429616,16.7301105384066
0.000253126449485509,16.7401105384066
0.000273771477327911,16.7501105384066
0.00029862111375452,16.7601105384066
0.000328424699572278,16.7701105384066
0.000364287491181106,16.7801105384066
0.000407792884332667,16.7901105384066
0.000459201650438157,16.7997627514278
0.000517689137426944,16.8087079523775
0.000584011115310734,16.8169835127515
0.000659170090803145,16.8246387318526
0.000744341692638696,16.8317200530815
0.000840869323173694,16.8382707683817
0.000950277256281018,16.8443312523116
0.00107429195266098,16.8499391755882
0.00121486860372373,16.8551296800793
0.00137422037816255,16.8599355407768
0.00155485277701178,16.8643873280172
0.00175960326885547,16.8685135662244
0.00199168897922534,16.8723408785875
0.00225476163472385,16.8758941222635
0.00255297705601763,16.8791965319936
0.00289107960706798,16.8822698703791
0.00327450992237835,16.8851345771433
0.00370954423482896,16.8878099321368
0.00420347954859213,16.8903142444529
0.0047648886164724,16.8926650739445
0.00540398220909419,16.8948795129726
0.00612706888422992,16.8969586274825
0.00692392931254764,16.8988716423395
0.00780363528465176,16.9006495820322
0.00877970360174149,16.9023231497913
0.00987246834136674,16.9039238958321
0.0111160136326301,16.9054899122768
0.0126196137117807,16.9071227283968
0.0146519298336234,16.9090194103556
0.0164488884809995,16.9105003474168
0.0183990196477469,16.9119812844781
0.0201924732687386,16.9132857755968
0.0217649854049017,16.9144293200307
0.023176871293855,16.9154982501835
0.0244424803375501,16.9165412431592
0.0255515494364086,16.9175954663666
0.0264758205163974,16.9187028069902
0.0271601856463215,16.9199309820247
0.0274725791383338,16.9214533102802
0.0271355369740054,16.9231783819068
0.0261775878095365,16.9249034535335
0.0250426758450481,16.9263174115814
0.0237543336554356,16.9276706872391
0.0223083188369084,16.9290545428944
0.0207125362310426,16.9305125120225
0.0189728495253104,16.9320837219803
0.0183059299566549,16.932690626496
0.0176510272778766,16.9332975310116
0.0151309603379758,16.9358074735277
0.0125161048580911,16.9387972579584
0.0103993492946878,16.9416339170907
0.00871456329155246,16.9442788898523
0.00736118341063852,16.9467567490503
0.00618891698528668,16.9492590226924
0.00518138397399567,16.9517775091549
0.00429255430853668,16.954395009309
0.00350649783585553,16.9571479283916
0.00282073903968963,16.9600332395747
0.00243117306770284,16.9619536796146
0.00208777904885746,16.9638741196545
0.00180444840865905,16.9656647268258
0.00155707345428058,16.9674222798991
0.00132806806170862,16.9692543392256
0.00110230887273419,16.971308871866
0.000853347422557103,16.9739590038643
0.000548411731629746,16.9780286529641
0.000344776978460075,16.9815932162267
0.000201917332758982,16.9848349259823
8.44616403292198e-05,16.9883986455662
-1.07770861959389e-05,16.9928143069141
-5.72613386497188e-05,16.9981794354095
-3.21154126756969e-05,17.0028838700193
5.42992546327781e-05,17.0071782832141
0.000199298516641374,17.0110746745153
0.000403032317124876,17.0146132339729
0.000667676161346923,17.0178389708
0.000997624417237503,17.0208020239409
0.00139944040159419,17.0235505152115
0.00188321462702942,17.0261350987276
0.00246442951949767,17.0286096240883
0.00316662740563754,17.0310320337886
0.00403033642159951,17.0334789285305
0.00511883958727419,17.0360362707309
0.00647532272366666,17.0386997974517
0.00799903706704193,17.0412271672566
0.00954568308016027,17.0434236491875
0.0110947296790028,17.0453270438904
0.0126938215543564,17.0470343284843
0.0144220647637618,17.04863629831
0.0163092703800101,17.050150051819
0.0183854090129824,17.0515870398494
0.0207009349964743,17.0529667999452
0.0232806439684847,17.0542878603082
0.0261742197573501,17.0555602113418
0.0294198513759927,17.0567850739087
0.0330673912710305,17.057966555427
0.0371715448075949,17.0591079216624
0.0417914376945559,17.0602115812246
0.047001037186217,17.0612813444983
0.052885932358643,17.0623207513743
0.0595474961757706,17.0633334259785
0.0671072399070012,17.0643231681554
0.0757160365113091,17.0652944225753
0.0855623311617916,17.0662521910502
0.096885442307183,17.0672022121218
0.109998587275809,17.0681514763373
0.125326235407842,17.0691089547612
0.143470513531421,17.0700868975903
0.164876009353122,17.0710832892107
0.189708919320604,17.072085877119
0.218660125178125,17.0731067752848
0.252684965028977,17.0741638344815
0.293288295502664,17.0752884582935
0.328762871163958,17.076191833738
0.36597036031958,17.0770952091825
0.398957001742361,17.0778868002651
0.427761286267233,17.0785979148936
0.452931712185606,17.0792652675421
0.474525371936722,17.0799141775384
0.492208034153592,17.0805662240954
0.505200070161998,17.0812452067957
0.511949208625729,17.0819853307917
0.509496375223598,17.0828006157481
0.495820944059189,17.0836332107913
0.469633384922211,17.0844985653253
0.429287692205792,17.0854079372434
0.372967250107698,17.0863702759632
0.330109862473085,17.086987792684
0.282896267054026,17.0876053094049
0.240650045282453,17.088126282282
0.204194944704338,17.0885656070013
0.172022969840427,17.088954410982
0.143124765157799,17.0893116308733
0.116879415709008,17.0896491099559
0.0928535126430098,17.0899755306427
0.0706888364834897,17.0902986842422
0.0500075958543665,17.0906277569242
0.0302154980166948,17.0909787165279
0.00939678735523031,17.0914051134822
-0.000783507343976075,17.0916450068376
-0.00805203438546888,17.0918338359552
-0.0146926097761916,17.0920226650728
-0.0205530259341065,17.0922055268242
-0.0265113422430078,17.0924111949804
-0.0323011547864301,17.0926357057749
-0.0377474989809508,17.0928764718828
-0.0427529418937299,17.0931324763357
-0.0472662132293905,17.0934037284423
-0.05126204154543,17.0936909542973
-0.0549942659331873,17.0940224994714
-0.0578539850888292,17.0943452432012
-0.0601969008956011,17.0946889366371
-0.0620398654864596,17.0950568573125
-0.0633969628716324,17.0954525638814
-0.0642817664747461,17.0958804420152
-0.064705862157998,17.0963459495512
-0.0646772218604533,17.0968559756107
-0.0641981859243856,17.0974193953408
-0.0632600393085375,17.0980494341209
-0.0618397139808083,17.0987631602247
-0.0598902778693166,17.0995859573492
-0.057315872857649,17.1005605130195
-0.053884242183092,17.1017779254103
-0.0498169195811265,17.1031783284994
-0.0458779381289489,17.1045309168944
-0.0421191968690557,17.1058414324105
-0.0385659247663602,17.1071126227249
-0.035230831714886,17.1083455862753
-0.0321193835759478,17.1095405825555
-0.0292321760899335,17.1106974601951
-0.0265662156369882,17.111815882086
-0.0241157552364584,17.1128954417724
-0.0218729333748154,17.1139357190541
-0.0198283119031923,17.1149362997058
-0.0179713483378356,17.1158967726677
-0.0162908138295523,17.1168167120172
-0.0147048206896445,17.1177377333898
-0.0131782863613684,17.1186823776791
-0.0117155997061682,17.1196523018158
-0.0103206597027211,17.1206496522653
-0.00899715778875346,17.1216769499504
-0.00774852421164167,17.1227371849274
-0.00657787413907558,17.1238339395179
-0.00548795083033859,17.1249715544923
-0.00448106546359942,17.126155358694
-0.00355903255566578,17.1273919952304
-0.0027230988399746,17.1286899003371
-0.00197386149300312,17.1300600348984
-0.00131116773934948,17.1315170582264
-0.000733979652948376,17.1330813329526
-0.000257291543736257,17.1347156105616
0.000122204086911291,17.1363991654927
0.000420759913312644,17.1381503626806
0.00065312789340513,17.1399912728179
0.000833317067565675,17.1419516024824
0.000975102206345653,17.1440739082867
0.00109284794408865,17.1464246675265
0.00120325004614918,17.1491222651814
0.00133080986527005,17.152434131922
0.0014863797240807,17.1561824839901
0.00167790826908746,17.1602444829735
0.00189597076670008,17.1643892834891
0.00211966638788907,17.1683537385844
0.00234793445350443,17.1722499494628
0.00258055997402003,17.1761487139001
0.00281825098927679,17.1800991482872
0.00306261875299029,17.1841402546443
0.00331603280754914,17.1883062698813
0.00358147818174988,17.1926295754106
0.00386246919214936,17.1971426307252
0.00416306874439193,17.2018795979333
0.00448806192234957,17.2068777497779
0.00484336469883763,17.2121787447728
0.00521508131847073,17.2175210697123
0.00559698360277778,17.2227749606366
0.00599323095855144,17.227958940333
0.00640604645298693,17.2330579348705
0.0068396813928196,17.2380791897031
0.00729870199068317,17.2430285067145
0.0077882065452888,17.2479123384865
0.00831365306165918,17.2527349483809
0.00888094765186708,17.2574985967833
0.00949652391216804,17.2622036018048
0.0101674737622945,17.2668488992246
0.0109112541597936,17.2714895341822
0.0117472312867021,17.2761616111049
0.0126935808145871,17.2808694303525
0.013776626758622,17.2856366659645
0.0150363500466854,17.2905155414657
0.0165465075328198,17.2956355624022
0.0185012403794068,17.3014056124745
0.020399966608442,17.3063858751253
0.0219897102363369,17.3102758743351
0.0236179598986259,17.3141658735448
0.0250174351375375,17.3175949777457
0.0261963928055576,17.3207309137334
0.0271699177049578,17.323749305639
0.027890384626716,17.3266351565662
0.028344807326565,17.3294457921265
0.028521699561785,17.3323105241051
0.0283681747347849,17.3354280242721
0.0276648042889764,17.3394120615109
0.0268215840342912,17.3423567728139
0.0257557555202494,17.345301484117
0.0246785237866377,17.3478861451443
0.0236053128821112,17.35025806628
0.022531280649362,17.3525186731532
0.0214576452796729,17.3547179866338
0.0203877437842254,17.3568849696164
0.0193252881879462,17.3590389685126
0.0182738782768097,17.3611941982132
0.0172368676826457,17.3633618521975
0.0162173325599116,17.3655512453769
0.0152180704252591,17.3677705027354
0.0142416114918596,17.3700270018916
0.0132902290382143,17.3723276881171
0.0123659500584295,17.3746793107858
0.0114705687758089,17.3770886049423
0.0106056505369148,17.3795624709065
0.00977254746799828,17.3821081103454
0.00897240235100194,17.3847331932355
0.00820068204878039,17.3874662008356
0.00744262848542512,17.3903839298452
0.00670210426868111,17.3935075639565
0.00598293946051115,17.3968625100136
0.00528916411024896,17.4004781300108
0.00462495974150938,17.4043885086844
0.00399457914410618,17.4086334690125
0.00340221234154901,17.4132601205039
0.00285178711952366,17.418325467138
0.00234668066289755,17.4239013977521
0.00188949862828631,17.4300825464081
0.00148418936100116,17.4369561324049
0.00114395450184659,17.4443600545611
0.000870943537190342,17.4526209922432
0.000708231043852593,17.4595216855697
0.000548603722151508,17.4685691192587
0.00043264205015886,17.4777483594224
0.000344570079151827,17.4877483594225
0.000285838282671848,17.4977483594225
0.000248162555662855,17.5077483594225
0.000225492333094739,17.5177483594225
0.000213549401293224,17.5277483594225
0.000209432151268833,17.5377483594225
0.000211245971181738,17.5477483594225
0.000217805275988055,17.5577483594225
0.00022842624512415,17.5677483594225
0.000242798465488789,17.5777483594225
0.000260914384526713,17.5877483594225
0.000283040402192503,17.5977483594225
0.000309722347128707,17.6077483594225
0.000341826431443591,17.6177483594225
0.000380624864436985,17.6277483594225
0.000427945903329045,17.6377483594225
0.000482462038759422,17.6471224006101
0.000544390828403138,17.6557974081188
0.000614611802624196,17.6638209372164
0.000694208531205342,17.6712416862438
0.000784434733173682,17.6781051266979
0.000886717347941076,17.6844536157406
0.00100267400434868,17.6903266393915
0.00113413673195031,17.6957610196801
0.00128318050057769,17.7007910850002
0.00145215369321541,17.7054488387052
0.00164371617578867,17.7097641249639
0.00186088125054617,17.7137647876654
0.0021070679861794,17.7174768113243
0.0023861618909681,17.7209244622745
0.00270259129927596,17.7241304388271
0.0030614232749445,17.7271160245269
0.00346848441606201,17.7299012439176
0.00393052157465542,17.7325050398686
0.00445541848421334,17.7349454808602
0.00505249748918309,17.7372400107893
0.00573295987605536,17.7394057818516
0.00649035182840844,17.7414112890989
0.00732562329214388,17.7432653216664
0.00824996497311615,17.7449990885491
0.00927990949683135,17.7466436349858
0.0104416402567393,17.7482333087031
0.0117893319103105,17.7498221978831
0.013504649229512,17.7515652579733
0.0161228148362105,17.7538372814722
0.0178077526891803,17.7551483250094
0.0195756189048894,17.7564593685466
0.0211873098867042,17.7576410116018
0.0226329431571147,17.7587314671755
0.0239322136745838,17.7597835710272
0.0250803778592668,17.7608358687429
0.0260547381503024,17.7619273977328
0.0268103994539832,17.7631147085151
0.0272506952752181,17.7645204734417
0.0269797477345137,17.7666820452841
0.0262385821930468,17.7681217284179
0.0251585584067895,17.7695614115517
0.0239169650257509,17.7709185455632
0.0225161177776437,17.7722928089665
0.0209648452838441,17.7737307980974
0.0192706321122863,17.7752706035152
0.0181678848289112,17.7762780250923
0.0170974191322415,17.7772854466694
0.0145507649180872,17.7798945353364
0.0120837899603928,17.782803946999
0.0100786190159265,17.7855686042022
0.00846022549453024,17.7881768259147
0.00714169045315525,17.7906534671117
0.00599606385526345,17.7931636121349
0.00500622053912737,17.7957064140887
0.00412786172335014,17.7983709154416
0.00335978645065899,17.8011481154353
0.00286303342258206,17.8032550214279
0.00243014871264038,17.8053619274204
0.00209137800450244,17.8072410335041
0.00180892171381773,17.8090069667319
0.00155655611861045,17.810779367729
0.00131772867523187,17.8126717658177
0.00107485627319298,17.8148746969841
0.00078168040062134,17.8180521532611
0.000493491993134064,17.8220287048801
0.000305396538630592,17.8253998578921
0.000162736507846478,17.8286973538031
4.17658565156385e-05,17.8324914026202
-5.46870055330289e-05,17.8373953194445
-8.68617871133523e-05,17.842525281647
-5.11876643459596e-05,17.8471109040998
4.5051150436164e-05,17.851282177034
0.00019998465214555,17.8550682609219
0.000414308869714055,17.8585101095338
0.00069071074675213,17.861653852142
0.00103427026330586,17.8645508127514
0.00145267319708337,17.8672512095714
0.00195787406462872,17.8698085033874
0.0025683620601192,17.8722803174253
0.00331540042187911,17.8747386627583
0.00425412545019602,17.8772800823896
0.00546038794820855,17.8799893230818
0.00693596069155746,17.8827612707379
0.00848409469644784,17.8852268003706
0.0100009630966762,17.8873055627381
0.0115324320758608,17.889127073165
0.0131387836947674,17.8907876449117
0.0148851882137567,17.892353101246
0.0168121889426348,17.8938453615169
0.0189371513205047,17.8952628752852
0.0213128805718212,17.8966254945794
0.0239669647442596,17.897932497469
0.0269470011134527,17.8991917399072
0.0302936949694009,17.9004049649632
0.0340551998507418,17.9015751036502
0.0382890178919791,17.9027058716641
0.0430585594631775,17.9038001984248
0.0484367300697067,17.9048610103532
0.0545145987839597,17.9058923427513
0.0613983800316643,17.9068978995345
0.069216908893605,17.9078817041735
0.0781280138940668,17.9088481282257
0.088330787509607,17.90980229275
0.100080783853976,17.9107502409815
0.113714055565701,17.9116993268814
0.129690204466382,17.9126591098284
0.148671122733794,17.9136429440641
0.170898845801068,17.9146386421672
0.196707926758784,17.915642938656
0.226839617034754,17.9166689061257
0.262339279249291,17.9177363717629
0.304711692830201,17.9188766501338
0.339271730435641,17.9197383912118
0.3751605848276,17.9206001322898
0.407117114661986,17.9213658423752
0.435094240125478,17.9220621152072
0.459486731648131,17.9227214648305
0.48025534600963,17.9233677304425
0.496973367898338,17.9240225496197
0.508720316626304,17.9247113659621
0.513638435630999,17.9254734930119
0.508655692732819,17.9262903397034
0.492164331949108,17.927128733527
0.462772174730727,17.9280033089128
0.418763710458083,17.9289244472187
0.37193607408906,17.9296989097642
0.328715398871116,17.9303169376783
0.28117540853159,17.9309349655923
0.23911446789715,17.9314514408705
0.202826915147305,17.9318875647937
0.170779314199884,17.9322742689575
0.141978890854669,17.9326300705383
0.115814086648193,17.9329666024582
0.0918552765953996,17.9332924639449
0.0697441383674187,17.9336154595553
0.0490970686729595,17.9339449424553
0.0292947242651641,17.9342975728825
0.00822389224681633,17.9347323209288
-0.00127557951427474,17.9349577956421
-0.00984259402996113,17.9351832703554
-0.0163000974091732,17.9353711061909
-0.022234903289433,17.9355610414748
-0.0281744530522323,17.9357722882237
-0.0338845750383848,17.9360014070164
-0.0392168406072565,17.9362463445625
-0.0440895402981931,17.936506424037
-0.048460730880022,17.9367818833113
-0.0523078398828873,17.9370736203798
-0.05572606965101,17.9373944832425
-0.058464325850923,17.937721544735
-0.0606905775749444,17.9380703875671
-0.0624198901102127,17.9384442218787
-0.0636663768836022,17.938846782653
-0.0644433024019104,17.9392826835027
-0.0647615756193663,17.93975768291
-0.0646280574782675,17.9402790811331
-0.0640430486180544,17.9408565976499
-0.0629947579149946,17.9415042835333
-0.0614556659201589,17.9422407130566
-0.0593703973519749,17.9430942365746
-0.0566232348528336,17.944114562399
-0.0529096398985702,17.9454183531767
-0.0488651768210958,17.9468061859817
-0.0449638648920172,17.9481485658969
-0.0412504262503955,17.9494498169006
-0.0377463487786791,17.9507121608566
-0.0344623040036921,17.9519364285914
-0.0314024561135692,17.9531227445581
-0.0285664712039334,17.9542708922503
-0.0259506520680168,17.9553805062272
-0.0235487107810401,17.9564511703248
-0.0213523771427927,17.9574824627607
-0.0193519184917546,17.9584739694322
-0.0175365985077929,17.9594252769164
-0.0158950829157297,17.9603359514688
-0.0143224426903573,17.9612621573621
-0.0128104191601426,17.9622122484838
-0.0113631457634045,17.9631880696494
-0.00998448150480645,17.9641918429652
-0.00867806523786191,17.9652261846789
-0.00744726321537416,17.9662942045983
-0.00629511461810831,17.9673996374741
-0.00522427412935788,17.9685470211885
-0.00423695103813464,17.969741944393
-0.00333484363785891,17.9709914006959
-0.00251906647675506,17.9723043129008
-0.00179006577528238,17.9736923418982
-0.00114751386289118,17.9751712010113
-0.000590163739146651,17.9767629379069
-0.000138084782045529,17.9784065614345
0.000220713531167381,17.9801037206405
0.000501951069220228,17.9818729908065
0.000720165980208693,17.983737872796
0.000889246312730886,17.985730382178
0.00102298649926709,17.9878971713573
0.00113602976942013,17.9903129193669
0.00124601357334985,17.9931160959663
0.00138119677981831,17.996647544741
0.00154065730294018,18.0004276520499
0.00174219568712068,18.0046208464655
0.00195893657689986,18.008692506419
0.00218143888386733,18.0126237395936
0.00240872923137822,18.0165119642261
0.00264069122403111,18.0204193600873
0.00287819017340573,18.0243910845245
0.00312298495865631,18.0284642303169
0.0033775709661338,18.0326722142912
0.00364503850379995,18.0370472279166
0.00392900783693993,18.041622080017
0.00423367907070192,18.0464317392449
0.00456405596644571,18.0515146757564
0.00492643680047997,18.0569141525389
0.00529661389773313,18.0622165441104
0.00568025407560406,18.067469171716
0.00607770931804375,18.0726339390475
0.00649291316220221,18.077718288671
0.00692983303158508,18.0827248095036
0.00739327642463951,18.0876613792291
0.00788834816571041,18.0925335806048
0.00842057308514943,18.0973453577683
0.0089959181910401,18.1020984486399
0.00962090802633997,18.1067928051791
0.0103027561371804,18.1114271425537
0.0110625094658206,18.1160753167855
0.0119171629887087,18.1207528710009
0.0128865342082201,18.1254696518167
0.013998704359493,18.1302524812207
0.015297734750627,18.1351628076131
0.0168689097075601,18.1403568138258
0.0189626362864978,18.1463743633454
0.0207476408012356,18.150965914987
0.0226452868172394,18.1555574666285
0.0242207192864362,18.1593356283027
0.0255272519390651,18.162622755892
0.0266219576207255,18.1656928819064
0.0275018579510502,18.1686793529458
0.0281119285724287,18.1715204508111
0.028454160851721,18.1743361037151
0.0285042660079431,18.177273126404
0.0281729366174397,18.180613382827
0.0271687922969839,18.1849644556613
0.0262735367888254,18.1876568038666
0.0252157498195023,18.190349152072
0.0241435884673698,18.1928050329304
0.0230702122648588,18.1951127068951
0.021996013313172,18.1973382189934
0.020923755478722,18.1995185727034
0.0198570739970822,18.2016771005884
0.0187996542195396,18.203830229103
0.017754980596215,18.2059904822874
0.016726268916862,18.2081680128913
0.0157164554539822,18.2103714779391
0.0147282020224598,18.212608590032
0.0137639090078555,18.2148864835587
0.0128257255149187,18.2172119865226
0.0119155593011057,18.2195918325398
0.0110350906318813,18.2220328262854
0.0101857752741979,18.224542018698
0.0093688611077743,18.2271268384873
0.00858539084854302,18.2297952666724
0.00782001060175706,18.2326182735729
0.00707023748970655,18.2356361041775
0.00633988007024841,18.2388721133659
0.00563287321652993,18.242353605309
0.00495332976304545,18.2461122074249
0.00430547911746911,18.2501847397471
0.00369356357779583,18.2546144447265
0.00312166846749582,18.259453011099
0.00259349387840637,18.2647640324395
0.00211204411772562,18.2706296982324
0.00167951621567226,18.277159973164
0.00130747338361359,18.2842850342892
0.00100366517363512,18.2919902163579
0.000807682319979853,18.2989487495065
0.000634526897875226,18.3072135847649
0.000495256049887524,18.3163358613885
0.000388091889104951,18.3263358613885
0.000315810166390899,18.3363358613885
0.000268578999327678,18.3463358613885
0.000239230099285133,18.3563358613885
0.00022262638216355,18.3663358613885
0.000215225867419137,18.3763358613885
0.000214678941767957,18.3863358613885
0.000219485730419957,18.3963358613885
0.000228744516776775,18.4063358613885
0.000241988619872731,18.4163358613885
0.000259091721410305,18.4263358613885
0.000280222360759394,18.4363358613885
0.000305836669452106,18.4463358613885
0.000336707471517468,18.4563358613885
0.000373996365495366,18.4663358613885
0.000419385450432338,18.4763358613885
0.000472491602479426,18.4858709188556
0.000532886983658844,18.494701169645
0.000601375809438148,18.5028685031838
0.000678997711671256,18.510422203545
0.000766967155089693,18.5174084973904
0.000866670577912875,18.5238704387251
0.000979681100442289,18.5298481557966
0.00110778082551134,18.5353790683645
0.00125298845829716,18.5404980637358
0.00141758913303349,18.5452376652016
0.00160417081292371,18.5496281991094
0.00181566509864178,18.5536979569303
0.00205539773107416,18.5574733399376
0.00232714624489059,18.5609789982869
0.00263521361792219,18.5642379795369
0.00298451877882028,18.5672718827516
0.0033807114612861,18.5701010119777
0.00383032336257906,18.5727445480606
0.00434097031683763,18.5752207495556
0.00492163275629199,18.577547191037
0.00558306046041143,18.5797410744737
0.00632470150277767,18.5817852518786
0.00714237114331987,18.5836711088954
0.00804632301830178,18.5854299104134
0.0090517434130304,18.5870926618414
0.0101821645756738,18.5886925697532
0.0114789142268521,18.5902726164003
0.0130942638459317,18.5919698681481
0.0154431242267811,18.5940824336533
0.017162099851743,18.5954591588708
0.0189912095344878,18.5968358840883
0.0206697913772081,18.5980679193354
0.0221651705750412,18.599182441731
0.0235105652777121,18.6002433088425
0.0247086068328638,18.6012923309388
0.025742321814958,18.6023668786217
0.0265754916547959,18.603515117371
0.0271353821979984,18.604827158942
0.0272031084302361,18.6066095645618
0.0266566371738185,18.6081716349869
0.025652543578981,18.609733705412
0.0244836123806255,18.6111126145894
0.0231553453586539,18.6124725087075
0.0216728028178854,18.6138771352224
0.0200448195024513,18.6153658951341
0.0182756745331755,18.6169794699846
0.016396001436507,18.6187746542295
0.0137580956069503,18.6215869232387
0.0114521774731166,18.624437932741
0.00957184821904736,18.627155792537
0.00805722589240938,18.6297124922565
0.00679465960799791,18.6321965103663
0.0056946496129832,18.6347259289726
0.00473265983860301,18.6373282854536
0.00389125289464159,18.640026574209
0.00315648807668284,18.6428442270899
0.00263372596751178,18.6452209452744
0.00226433952963619,18.6471564970462
0.00196087012375741,18.6489548542073
0.00169125820919205,18.6507540683398
0.00143755944868638,18.6526685134032
0.00118166978128835,18.6548833365797
0.000879798582827694,18.6580052784312
0.00057210028667279,18.6620687155566
0.00037237135801171,18.6655266312284
0.000224196628402991,18.668865343976
0.000100719019513071,18.672676525829
4.71279207986421e-06,18.6775621602626
-2.46373462821616e-05,18.6826617424265
1.52790138934955e-05,18.6872251103372
0.000116850364577255,18.6913793232119
0.000277870051919094,18.6951518590518
0.000498896799622836,18.698584888107
0.000782894269747346,18.701727526871
0.00113476525023197,18.7046267102549
0.00156218383571495,18.7073316339834
0.00207737041194538,18.7098960820286
0.00270013805350492,18.712380907911
0.00346219712520256,18.7148555460986
0.00441068826538247,18.7173928885859
0.00560860924009753,18.7200571537729
0.00703797136577222,18.7227248455046
0.00854873035362708,18.7251216176116
0.0100565898839812,18.7271812513385
0.0115917098165963,18.7289999725366
0.0132081340259309,18.7306631937794
0.0149642400723777,18.7322292258927
0.0169041536323585,18.7337234006115
0.0190402570832917,18.7351405944911
0.0214277459624778,18.7365026687827
0.0240951466058503,18.7378094159464
0.0270886640994859,18.7390679533178
0.0304518610996896,18.740281121687
0.0342302192750369,18.7414507732997
0.0384832863904129,18.7425812382532
0.0432754701706286,18.7436755530844
0.0486798080397927,18.7447365192554
0.0547886284972576,18.7457682614095
0.0617094788593801,18.7467745238177
0.0695729362860873,18.7477593766503
0.0785399722430354,18.7487273337028
0.0888119464651497,18.74968347877
0.100650352561098,18.7506340768398
0.114399867456763,18.7515867310612
0.130534835275888,18.7525514173189
0.149744835433262,18.7535422547863
0.172157719681958,18.7545416149528
0.198198851719888,18.7555510292511
0.228634077239521,18.7565843330576
0.264558833932098,18.7576628714137
0.306941784349614,18.7588047109765
0.349541045659458,18.759866942631
0.384799678598954,18.7607190385308
0.41510611357745,18.7614605441175
0.441608871016026,18.7621446278762
0.464567523432747,18.7628007436862
0.483797592531492,18.7634511369356
0.498718589573435,18.7641178653185
0.508163986961761,18.7648292116914
0.509715721089268,18.7656331767219
0.500555646581628,18.7664583486182
0.479475651664211,18.7673101129981
0.444964774639861,18.7682013187479
0.395272324795466,18.7691411806432
0.350705673213713,18.7698306952422
0.300161346920981,18.7705202098412
0.25504926298574,18.7710886837781
0.216694640055489,18.7715549968905
0.183174990594813,18.7719600972971
0.15322833680694,18.7723277069572
0.126121571514754,18.7726717235335
0.101371842726793,18.7730016746867
0.0786061033865549,18.7733254446172
0.0574694601760655,18.7736513415228
0.0374922037641576,18.7739916415828
0.0175871797101969,18.7743766310725
0.00102691263179513,18.7747495533433
-0.00647742224811491,18.774941198993
-0.0133316088292044,18.7751328446427
-0.0192723732832768,18.7753150351207
-0.0252294421052897,18.7755166904614
-0.0310644365669575,18.7757378948604
-0.036585017765709,18.7759757631246
-0.0416808390018485,18.7762290024707
-0.0462929425190038,18.7764974389376
-0.0503924775746161,18.776781665455
-0.0542349126926044,18.7771091613367
-0.0571992407076957,18.7774281511701
-0.0596447322132824,18.777767577956
-0.0615878865679155,18.7781305921194
-0.0630426538591844,18.7785206005834
-0.0640227976180318,18.778941797074
-0.0645404184266234,18.7793993878949
-0.0646043752748138,18.7798999206134
-0.0642183862919042,18.780451787069
-0.0633765724052329,18.7810671483484
-0.0620593679955374,18.7817620703577
-0.0602263286014125,18.7825596714193
-0.0577959461511049,18.7834975885946
-0.0545816822073253,18.7846507843632
-0.0505006090613669,18.7860623829732
-0.0465358270429672,18.7874231941705
-0.0427443068686323,18.7887409911052
-0.0391547303226863,18.7900190251176
-0.0357816078521545,18.7912586506469
-0.0326315084218422,18.7924602585313
-0.0297057922855045,18.7936237629674
-0.0270020349135002,18.7947488575253
-0.0245149237618029,18.7958351483256
-0.0222369259471811,18.7968822192095
-0.0201588421039172,18.7978896572145
-0.0182702899884479,18.7988570534448
-0.0165601320994892,18.799783987584
-0.0149643326202063,18.8007010964996
-0.0134271056966996,18.8016416359294
-0.0119530403201436,18.802607119997
-0.0105460649135706,18.8035996397321
-0.00920991003753704,18.8046216462208
-0.00794805379598413,18.8056760419614
-0.00676366841877961,18.8067662981082
-0.00565956391899066,18.8078966121359
-0.00463812850111996,18.8090721247603
-0.0037012647839341,18.8102992265268
-0.00285031991316603,18.8115860051894
-0.00208600586269042,18.8129429241217
-0.0014083027932043,18.8143839009239
-0.000816331109235403,18.8159281280774
-0.000320876701118312,18.8175558532629
7.4338200327019e-05,18.8192296985522
0.000386009862943732,18.8209679682326
0.000629060905718632,18.8227917401446
0.00081760475173645,18.8247291453006
0.000965421779474517,18.8268199968478
0.0010867099077953,18.8291254343466
0.00119758837263152,18.8317514110997
0.00132045526058405,18.8349246554349
0.00147356268244494,18.8386609204022
0.00165824328724058,18.8426408084883
0.00187135577664276,18.8467381867085
0.00209312593725245,18.8506888132579
0.00232164616095037,18.8545898828778
0.00255599771575041,18.858505942204
0.00279637870007481,18.862483324885
0.00304406427968101,18.8665597551415
0.00330123139674373,18.8707689791599
0.00357078533455564,18.875143400901
0.00385624698957956,18.8797158924452
0.00416176017137692,18.8845213823934
0.00449227247403168,18.8895982013681
0.00485398829623727,18.8949894217312
0.00522447343263899,18.9003074507178
0.00560736835327098,18.9055689921003
0.00600368476674895,18.9107454715293
0.00641703522679976,18.9158402051094
0.00685143475726326,18.9208568588717
0.00731160118291078,18.925802870858
0.00780259729512215,18.9306841404393
0.00832987623023982,18.9355047597088
0.00889932482394058,18.9402666678841
0.00951737096722179,18.9449699772236
0.0101911126962747,18.9496134943641
0.0109386907423127,18.9542558679862
0.0117790327302024,18.9589292657039
0.0127306378135233,18.9636390763644
0.0138201877986862,18.9684096184646
0.0150884870666301,18.9732949796732
0.016611563625737,18.9784299183714
0.0185939329190025,18.9842474355941
0.0204663718165055,18.9891380129142
0.0220500086897212,18.9930058358873
0.0236690979822698,18.9968736588603
0.0250600813336466,19.0002881873563
0.0262318859478455,19.0034174693627
0.0271981824347171,19.0064343144543
0.027909289760412,19.0093156695993
0.0283543334930583,19.0121259348849
0.0285208768537295,19.0149955511739
0.0283536722875766,19.0181282259731
0.0276179089616831,19.0221781188473
0.0267693284761148,19.0250924539971
0.0257053573564303,19.028006789147
0.0246290238359992,19.0305772938161
0.0235558603925872,19.0329426326672
0.0224817822936704,19.0351997740138
0.0214082140609684,19.0373972613998
0.0203385338174562,19.0395634630552
0.0192764544586791,19.0417174301905
0.0182255660494589,19.0438732121742
0.0171892094810829,19.046041904561
0.0161704477676554,19.0482327635806
0.0151720655412249,19.0504538810564
0.0141965804869326,19.0527126198038
0.0132462541895776,19.0550159235813
0.0123231021432779,19.0573705528843
0.0114289077882285,19.0597832643243
0.0105652262463382,19.062260990562
0.0097333998761918,19.0648109773248
0.00893456245095578,19.0674409508943
0.00816341342562625,19.0701823516204
0.00740610620569038,19.073109426457
0.00666650167629349,19.0762435476566
0.00594843928004452,19.0796103006386
0.00525595676165121,19.0832392599198
0.00459324034435648,19.0871647666061
0.00396454255394731,19.0914269616701
0.00337404515432436,19.0960733720353
0.00282565713126871,19.1011615847689
0.00232272183063092,19.1067643973015
0.00186780440734905,19.1129778166523
0.00146565966461518,19.1198742316676
0.00112824791942985,19.1273054232605
0.000917631517500239,19.1336154176994
0.000717402192070455,19.1417362074002
0.000561201724601415,19.1504165325539
0.000439192078482338,19.1598328845324
0.000349434110083918,19.1698328845324
0.000289585530655125,19.1798328845324
0.000251156910164025,19.1898328845324
0.000227966129975156,19.1998328845324
0.000215654763919283,19.2098328845324
0.000211270160061886,19.2198328845324
0.000212882228553939,19.2298328845324
0.00021927881959656,19.2398328845324
0.000229755210086936,19.2498328845324
0.000243983648672498,19.2598328845324
0.000261940946004031,19.2698328845324
0.00028387767562534,19.2798328845324
0.000310321575493313,19.2898328845324
0.000342115960993373,19.2998328845324
0.000380501811386565,19.3098328845324
0.000427262407110883,19.3198328845324
0.000481297669059023,19.3292450818201
0.000542669172630538,19.3379581073288
0.000612232054047728,19.3460179336797
0.000691051699956536,19.3534731488704
0.000780363469890189,19.360369196878
0.000881574258194324,19.3667484303
0.000996279220264745,19.3726503477111
0.00112628501178397,19.3781117976917
0.00127363794300731,19.3831671456743
0.00144065399959658,19.3878484388192
0.00162995621825318,19.3921855690403
0.00184451585492714,19.3962064301399
0.00208770377033807,19.3999370571355
0.00236334950279038,19.4034017646362
0.00267581596908545,19.4066232944567
0.00303009257678956,19.4096229669546
0.00343191241211815,19.4124208335317
0.00388790759006807,19.4150358493835
0.00440581762656259,19.4174860749885
0.00499477853992397,19.419788916672
0.00566574229636876,19.4219614441525
0.00641528445104409,19.4239794857705
0.0072416152070295,19.4258428523989
0.00815534762419821,19.4275825683723
0.00917214246809392,19.4292293714352
0.0103164367327615,19.4308165537696
0.0116317624514853,19.4323881400383
0.0132857073092132,19.4340923239671
0.0157478061279068,19.4362609037495
0.0174647761482885,19.4376100069389
0.0192829416771011,19.4389591101283
0.0209450855314092,19.4401675417199
0.0224301204816976,19.4412687925831
0.0237663928186101,19.4423222646457
0.0249538459921433,19.4433682789284
0.0259735108014757,19.4444445368808
0.0267862788264882,19.4456017039358
0.0273119911426039,19.4469394769217
0.0272812061621068,19.4488424710098
0.0266714177157265,19.4503426421554
0.0256525436412854,19.451842813301
0.0244637096945461,19.4532073984471
0.023112377864441,19.4545673441283
0.0216063599561597,19.4559783098363
0.0199543739317685,19.4574787980838
0.0181596092334317,19.4591107810571
0.0166777224655057,19.4605189247608
0.0140623959551625,19.4632632087056
0.0116744201201184,19.4661647119051
0.00973451004957373,19.4689254941106
0.00818768895309001,19.4714999364749
0.00690914015062622,19.4739807280781
0.00579608872207594,19.4765038114689
0.00482293887768603,19.4790976629856
0.00397184653763383,19.4817853201386
0.0032286070496528,19.48459008895
0.00277053189570189,19.4866162418555
0.00236954653493454,19.4886423947611
0.00204679545002627,19.4904959445437
0.00177136337840876,19.4922799362606
0.00152131360928545,19.4941053893744
0.00128065344345298,19.4961003593001
0.00102821917582275,19.4985261427918
0.000699268235901996,19.5024379949466
0.000456256028290088,19.5062276241527
0.000294472463183939,19.5095210374401
0.000166105024328771,19.5129812565461
6.08671084677472e-05,19.5171299218614
-5.05685550527441e-06,19.5226352445942
7.25424229705377e-06,19.5274075629763
8.32564505099979e-05,19.5317768136214
0.000219050478843375,19.5357423214483
0.000414056998405864,19.5393451913613
0.000669952186100759,19.5426296411753
0.000990710030931421,19.545645329302
0.00138247190536623,19.5484401208227
0.00185456886221241,19.5510633246196
0.00242153867228985,19.5535683537354
0.00310560174483335,19.5560126504455
0.00394162513980935,19.5584622486705
0.00498501021881443,19.5609958043703
0.00627713263322335,19.5636179108619
0.00774233676816545,19.5661293746049
0.00926516493307637,19.5683619265538
0.0108009314595296,19.5703068252567
0.0123832724720818,19.5720462808982
0.0140901621935086,19.5736747633009
0.0159327596583294,19.5751964776747
0.0179716490277187,19.5766503969855
0.0202395495235399,19.5780429526057
0.0227655483420312,19.579376179214
0.0255972938683802,19.580659636038
0.0287704895985225,19.5818940419698
0.0323372061562281,19.5830849233972
0.036349485717738,19.5842350093999
0.0408644627511815,19.5853466145
0.0459553785092429,19.5864238727783
0.0517046456771005,19.587470140153
0.0582098155187902,19.5884889184102
0.0655888055177006,19.5894840657098
0.0739882229492609,19.5904601015051
0.0835888398467223,19.5914218605419
0.0946203669610245,19.5923749706583
0.107382449164662,19.5933262568918
0.122278185534955,19.5942843503344
0.139879379968953,19.5952611596807
0.160728172794294,19.5962600291724
0.184905720349114,19.5972638683043
0.213075289362895,19.5982843991116
0.246146809098637,19.5993386757454
0.285521423056316,19.6004557596669
0.329991007761608,19.6016026559704
0.368273825928199,19.6025382629092
0.400652954457001,19.6033238065807
0.428862948734043,19.6040315891984
0.453478481553514,19.6046988779358
0.474501367959797,19.605350141056
0.491548079667589,19.6060067941856
0.503774481521454,19.6066930902026
0.509506476098998,19.6074447225995
0.505745506276682,19.6082632827084
0.490676245210304,19.6091004945552
0.46297340047676,19.6099712051509
0.420983952783515,19.6108861043063
0.362903376661798,19.6118545449409
0.32103277346679,19.6124485997865
0.275308947471449,19.613042654632
0.234310080126988,19.6135481156992
0.198722377538077,19.6139786676097
0.167193216355058,19.6143623347958
0.13880714043083,19.6147165051909
0.112987643546578,19.6150523420409
0.0893222743934632,19.6153782606524
0.0674596084557842,19.6157020773598
0.0470113110996719,19.6160334523083
0.0273182480516787,19.616390365175
0.00587838664318844,19.6168431688097
-0.00262554197502253,19.6170500519171
-0.0103564545041353,19.6172569350245
-0.016709367179537,19.6174439586038
-0.0226377149304588,19.6176360314343
-0.0285528393101262,19.6178492279955
-0.0342263456332723,19.61808015641
-0.0395156102199773,19.6183268630692
-0.0443424245954247,19.6185887391656
-0.048666932831326,19.6188660715726
-0.0524656927097184,19.6191597978486
-0.0557453143709099,19.6194732766732
-0.0584526394123876,19.6198019031557
-0.0606506062675584,19.6201525784829
-0.0623531132416935,19.6205284192614
-0.0635741845584919,19.6209331911089
-0.0643269497913757,19.6213715472103
-0.0646221311053459,19.6218492963282
-0.064466348032137,19.6223738047542
-0.0638594891194947,19.6229549536965
-0.0627892879511411,19.623606889903
-0.0612275872592902,19.6243484200597
-0.0591178817141595,19.6252083297927
-0.0563417908094414,19.6262373659674
-0.0525841780388456,19.6275562018165
-0.0485535559526253,19.6289406751204
-0.044669470127124,19.6302798154504
-0.0409749870385002,19.6315778229917
-0.0374907651412513,19.6328368655375
-0.0342269620226138,19.6340577531607
-0.0311873684594107,19.6352406062723
-0.0283713561290651,19.6363852123401
-0.0257749898626422,19.6374912132445
-0.0233917920003902,19.6385582008413
-0.0212133465902421,19.63958576044
-0.0192298163700958,19.6405734830103
-0.0174303982037489,19.6415209573748
-0.015803725125335,19.6424277485343
-0.0142352324038456,19.6433561762569
-0.0127277892120558,19.6443086008057
-0.0112854230866947,19.6452869464215
-0.00991197390419483,19.6462934683461
-0.00861105537838772,19.6473308244715
-0.00738600296415372,19.6484021768997
-0.00623981898325617,19.649511326992
-0.00517511471705854,19.6506628989107
-0.00419404885420284,19.651862595325
-0.00329826093768051,19.6531175642109
-0.00248879714317266,19.6544369436725
-0.00176602325794847,19.6558327062441
-0.00112951483036616,19.6573210382902
-0.000577903614793423,19.6589247520167
-0.000133363335824307,19.6605725986672
0.000219572281027327,19.6622758146069
0.00049644178289928,19.6640531110625
0.000711730819557947,19.6659286396244
0.000879327850653875,19.6679354805149
0.00101311187779522,19.6701222042047
0.00112797335774388,19.67256742625
0.00124222492123958,19.6754196880054
0.00138670918795991,19.679060551501
0.00155358544547555,19.6828601433345
0.0017649801740521,19.6871033581554
0.00198508834498579,19.6911197036817
0.00221217055256528,19.6950382094496
0.00244506210577188,19.6989410060998
0.00268352751896211,19.7028823040008
0.00292842913219961,19.7069035794369
0.00318159509847904,19.711040255216
0.00344564413473389,19.7153252171403
0.00372383597949106,19.7197908589509
0.00402002334030603,19.7244708427399
0.00433874204597562,19.7294015574517
0.0046855167385673,19.7346234109776
0.0050563852266909,19.7400217881643
0.00543359088713921,19.7452918489644
0.00582516410073886,19.7505108204359
0.00623150436097505,19.7556392714731
0.00665712423916517,19.7606897280696
0.00710623402527509,19.765665462627
0.00758383853482476,19.7705740804974
0.00809521180067942,19.7754203023269
0.00864607017616019,19.7802071329795
0.00924261052597948,19.7849354681065
0.00989163985623797,19.7896046411212
0.0106034609237837,19.7942300515606
0.0114023233238654,19.7988922094305
0.0123031935164773,19.8035838329052
0.0133293784886053,19.8083238897414
0.0145141142936374,19.8131496429601
0.0159137694728526,19.8181505743847
0.0176531254967994,19.8235743821289
0.0200735780167458,19.8301342002195
0.0216769078818671,19.8340946510864
0.0233329689557784,19.8380551019533
0.0247772444552856,19.8415631839714
0.0259942883741634,19.8447373947884
0.0270056945903847,19.8477666665264
0.0277755579993245,19.8506789419639
0.0282790050771434,19.8534945365784
0.0285091526240972,19.8563380228459
0.0284239328255462,19.8593861940494
0.0278638732857656,19.8630969542936
0.0270467920882635,19.8662056021678
0.0259679863069543,19.869314250042
0.0248850491895416,19.8719703039044
0.0238113568495086,19.8743740378301
0.022737511435463,19.8766514610289
0.0216635795278451,19.878860081469
0.0205926732262467,19.881031726351
0.0195284886222435,19.8831871422316
0.0184746628115779,19.8853413326638
0.0174346015778101,19.887505969789
0.0164114345421397,19.8896906740896
0.0154080127059842,19.891903764657
0.0144269168994822,19.8941527418879
0.0134704681510702,19.8964446232519
0.0125407420451371,19.8987861832442
0.0116395753687862,19.9011841594426
0.0107685766605473,19.9036454200849
0.00992913985989571,19.9061771066438
0.00912244700998342,19.9087868041639
0.00834851033364243,19.9114862119933
0.00758749747551264,19.9143666135212
0.00684329271264826,19.9174483905175
0.00611968387381609,19.9207562535459
0.00542066326573886,19.9243187484669
0.0047503881309606,19.9281689706753
0.00411310528583835,19.9323455298268
0.00351303012783056,19.9368939556935
0.00295415972418445,19.9418690415889
0.00244000029528944,19.947339248456
0.00197331678412196,19.9533940058185
0.00155607141192765,19.9601537931186
0.00120373563525944,19.967447773401
0.000922904451920397,19.975355776949
0.000726790326381083,19.9831812469587
0.000572331953000187,19.9915696653505
0.000457940629735453,20
