ecg,time
0.0231994208634003,15.0001291192082
0.0220271930379276,15.0015444550809
0.0207133752995502,15.0029527809143
0.019266315406916,15.004407363954
0.0176951436568801,15.0059456135773
0.0167121748451848,15.0069077272103
0.0157533862917404,15.0078698408433
0.0136756507217536,15.0101164396567
0.0112513123831341,15.0131070123907
0.009319662654647,15.0158932953828
0.00778959752649267,15.0184644913468
0.00650929376082613,15.0209620631399
0.0053886560105015,15.0235054270914
0.00440304441414157,15.0261223927493
0.00353472266002816,15.0288361714356
0.00276922605953893,15.0316704282495
0.00215307242143037,15.0343689599856
0.00165418052905971,15.0369259044589
0.0012398502611473,15.0393855923918
0.000886969300685968,15.0417923459044
0.000579674427274565,15.0441849340857
0.000306418961676421,15.0466017452312
5.53102531629639e-05,15.0491169967633
-0.000197234220802728,15.0519909327821
-0.000370889433649602,15.054202788627
-0.000529574741778403,15.0564146444719
-0.00065598030632352,15.058318725289
-0.000762919463843348,15.060034136297
-0.000861646151717862,15.061706156442
-0.000958908227837384,15.0634380934258
-0.00106171021750332,15.0653607140988
-0.00118440251718082,15.0677778961872
-0.00139797048360226,15.0722888507526
-0.0015759102614791,15.0763245341101
-0.00172024599280744,15.0797733050564
-0.00186897363840137,15.0834945670662
-0.00204754695263506,15.0882401619125
-0.00223372461336719,15.0938077473611
-0.0023565711937656,15.0986348570148
-0.00241154350978331,15.102977832225
-0.00238738150379721,15.1068655244661
-0.00227639141283794,15.1103711421286
-0.00207199119022466,15.1135765573444
-0.00176729060669819,15.116550875074
-0.00135530472086565,15.119343705102
-0.000825726029315783,15.1220078982999
-0.000154470476777506,15.1246274486908
0.0007123361183517,15.1273326132394
0.00190711157863507,15.1303753090568
0.00342087900596086,15.1336042579006
0.00528421090927509,15.1370276905351
0.00653999537245761,15.1390870974916
0.0079210330461059,15.1411465044482
0.00934981661175427,15.143061537372
0.0108192790530129,15.1448164922392
0.0123712370376387,15.1464555842162
0.0140728887907537,15.1480331762032
0.0159305316996728,15.1495350934295
0.0179953217227919,15.1509843733341
0.0202878212324009,15.1523763674508
0.0228472731407968,15.1537178472036
0.0257065508545553,15.1550096184297
0.0288996808983315,15.1562522944226
0.0324736365266566,15.1574502076851
0.0364774785631366,15.1586060565429
0.040967499988186,15.1597226985903
0.0460097589930519,15.1608033180613
0.0516848545086447,15.1618517949608
0.0580868362994554,15.1628717735474
0.0653288128061162,15.1638671247294
0.0735485929289665,15.164842036028
0.0829157519590602,15.1658010589979
0.0936458016650532,15.1667495839645
0.106015742618707,15.1676938983843
0.120393629240189,15.1686418236062
0.137288438084283,15.1696036829059
0.157444669453295,15.1705941918223
0.180817893754493,15.1715880852612
0.207978600247556,15.1725936101514
0.239737658834123,15.1736250842741
0.277272304245552,15.1747051865045
0.321218110118426,15.1758439711921
0.3629065844197,15.1768512132232
0.397531255808388,15.1776686876691
0.427404944884474,15.1783879387267
0.453523730600318,15.1790566720414
0.47607471403785,15.179702595568
0.494810075616178,15.1803477410993
0.509055312398686,15.1810152487945
0.517449231492456,15.1817369638652
0.51718486663929,15.1825472499129
0.505836537273722,15.1833723652015
0.482183107223679,15.1842287187264
0.444603423231552,15.1851286209049
0.391258225832447,15.1860809250817
0.346775669587844,15.1867401072138
0.297008835651115,15.1873992893459
0.252642287164904,15.1879473024863
0.214749256490282,15.1884015712746
0.18153463764104,15.1887989962805
0.151816145814411,15.1891613443655
0.124892948125223,15.1895016797269
0.100293927193122,15.1898291855188
0.077646322329387,15.1901517014376
0.056581755360572,15.190477868379
0.0365787066390015,15.1908213337306
0.0162639354435741,15.1912200702254
0.00812562348524888,15.1913997795368
0.000602371936688672,15.1915794888483
-0.00719282187750976,15.1917828411224
-0.0137220979454026,15.1919700185307
-0.0196438159568706,15.1921565562831
-0.0256081161314182,15.1923649425143
-0.0313673048932922,15.1925915351089
-0.0367621937191421,15.1928340793438
-0.0417046467798889,15.1930917665461
-0.0461488897993325,15.1933647427923
-0.0500745691053385,15.193653834396
-0.0537079309541665,15.193985184118
-0.0565035128471317,15.1943101116234
-0.0587840449379911,15.1946563907863
-0.0605663588908662,15.1950273563984
-0.0618647237120937,15.1954266809583
-0.0626926860529264,15.1958588966206
-0.0630615853719972,15.1963296557642
-0.0629788881040926,15.1968461154486
-0.0624459120546568,15.1974176665645
-0.0614522232392017,15.1980581268129
-0.0599722362522127,15.1987855358812
-0.0579540254875947,15.199627228095
-0.0552896568405979,15.2006304766104
-0.0517026467124351,15.201902708142
-0.0476730194289862,15.2032959014304
-0.0437798455003375,15.2046430658819
-0.0400707698148164,15.205948904876
-0.0365687191889104,15.2072157953609
-0.0332851716935879,15.208444641806
-0.0302248264418947,15.2096356006571
-0.0273877459021335,15.2107884660413
-0.0247705421217589,15.2119028725846
-0.0223671703645691,15.2129783996238
-0.0201695466556252,15.2140146198588
-0.0181680730196803,15.2150111149009
-0.0163521004409014,15.2159674698195
-0.0147103388670098,15.2168832533163
-0.013151663657309,15.2178065599987
-0.0116533894554547,15.2187536069786
-0.010219808886017,15.2197261347407
-0.00885483028568144,15.2207263228115
-0.00756215501457072,15.2217567338829
-0.00634522585628773,15.2228204105405
-0.00520717481787044,15.2239210019923
-0.00415076867681586,15.225062935483
-0.00317835214159365,15.2262516537536
-0.00229178802474915,15.2274939533844
-0.00149239307361395,15.2287984833011
-0.000780866743112824,15.2301765096722
-0.000157207593010193,15.2316431500576
0.000379393470350567,15.2332194965776
0.000812677818851919,15.2348578116731
0.00115019440490731,15.2365472875203
0.00140767222707304,15.2383063628277
0.00159944235834067,15.2401577264054
0.00173903462958141,15.2421320776029
0.00183963480220521,15.2442737234912
0.00191480220916541,15.2466526128775
0.00197996947834932,15.2493954857079
0.00205726105330068,15.2527991135268
0.0021584749333847,15.2565592131452
0.00228613969861626,15.2603945419004
0.0024339556980934,15.2641719467923
0.0025982802632679,15.2679531219909
0.00277572753664566,15.2717843235137
0.00296411255311752,15.2757024939736
0.00316267217641691,15.2797401030016
0.00337196320794744,15.2839279516254
0.00359365782697177,15.2882969714342
0.0038303444870601,15.2928796189216
0.00408542691049569,15.2977112834418
0.00436321239015383,15.3028316869451
0.00466929193906764,15.3082862420578
0.00499333299878445,15.3138235918146
0.00532554427447955,15.3192267523157
0.00567128022707154,15.3245428089132
0.00603237145380787,15.329754187183
0.00641297955238916,15.3348767871392
0.0068170781473584,15.339919068693
0.00724901941779324,15.3448897641559
0.00771334885290044,15.3497943537252
0.00821495101192543,15.3546360068053
0.00875914366863282,15.3594157613219
0.00935179908055741,15.3641329872522
0.00999945140371443,15.368785754362
0.0107121548300389,15.3733882121582
0.011514326149365,15.3780209648473
0.012420952815001,15.3826756725035
0.0134553002016114,15.387369648173
0.014650543602752,15.392138120741
0.016062786306745,15.3970665898865
0.0178152629398412,15.4023905844057
0.0202841282540989,15.4088853810689
0.0219211232319197,15.4127955258234
0.023617232472735,15.4167056705778
0.0250985012226539,15.4201622701355
0.0263489948927648,15.4232831752022
0.0273923682240865,15.4262569089539
0.028192229291901,15.4291091813629
0.0287247872177004,15.4318625893504
0.028984595807599,15.4346376719369
0.0289325689117368,15.4376016318948
0.0284230189254039,15.4411692807423
0.02762458813253,15.4442552609011
0.0265502107739422,15.4473412410598
0.0254710120160535,15.449955694389
0.0244013998016744,15.4523098087198
0.0233307823732414,15.4545347746734
0.022258951757994,15.4566890813777
0.0211890049120294,15.4588045586424
0.0201246570889143,15.4609017406146
0.0190695589960869,15.4629953583591
0.0180271188942686,15.465096789273
0.0170004612515239,15.4672153410682
0.0159924244833637,15.4693590067874
0.0150055734200856,15.4715349413724
0.0140422115018893,15.4737497936444
0.0131043933545823,15.4760099502427
0.0121939402334546,15.4783217189603
0.011312444135781,15.480691508727
0.0104612832723232,15.4831259664707
0.00964163155098515,15.4856321233815
0.00884590139030119,15.4882467697075
0.00806130751476438,15.4910357635294
0.00729162559913406,15.4940192960736
0.00654067820925623,15.497221434948
0.00581253564485879,15.5006700440082
0.00511148393869979,15.5043975242265
0.00444197591997671,15.5084417005029
0.00380853532246328,15.5128470604611
0.00321558884020537,15.5176667533411
0.00266720147353618,15.5229662744126
0.00216675238599138,15.5288302317133
0.00171678933589961,15.5353719544706
0.00133637903276648,15.5423836269121
0.00103121720276502,15.5499564253281
0.000816170784360203,15.5573431167776
0.000631968656511171,15.5658257917121
0.000486810605562415,15.5749753186808
0.000374749549786852,15.5849753186808
0.000298137632135808,15.5949753186808
0.00024669943421011,15.6049753186808
0.000212945375276114,15.6149753186808
0.000191541659526285,15.6249753186808
0.000178804701528816,15.6349753186808
0.000172244383469143,15.6449753186808
0.00017019482482486,15.6549753186808
0.000171550135936473,15.6649753186808
0.000175589701294658,15.6749753186808
0.000181866247789615,15.6849753186808
0.000190134136327634,15.6949753186808
0.00020030355919858,15.7049753186808
0.000212412820924553,15.7149753186808
0.000226614712347108,15.7249753186808
0.000243175153797952,15.7349753186808
0.00026248384845966,15.7449753186808
0.000285078325725905,15.7549753186808
0.000311684910026563,15.7649753186808
0.000343283337089891,15.7749753186808
0.000381206855601168,15.7849753186808
0.000427298426112271,15.7949753186808
0.000482479820187214,15.8047050493083
0.00054558226782958,15.8136999436923
0.00061752472042571,15.8219982862459
0.000699497641205692,15.8296540909412
0.000792877735821647,15.8367181266285
0.000899230673328654,15.8432374960185
0.00102032969957533,15.8492559082027
0.00115818171541764,15.8548139402593
0.00131505861108891,15.8599492675733
0.00149353296225068,15.8646968768708
0.00169651992761699,15.8690892704101
0.00192732689056918,15.8731566628589
0.00218971372482451,15.8769271682571
0.00248796588330214,15.8804269836518
0.0028269873395815,15.8836805783978
0.0032124189157767,15.8867108930383
0.00365079432296899,15.8895395528023
0.00414975181603308,15.8921871127114
0.00471833094503805,15.8946733572161
0.0053674067224854,15.8970176910018
0.00609759458653631,15.8992048362956
0.00690542998279262,15.9012260256457
0.00780248895467747,15.9031166190859
0.00880648794639741,15.9049128605503
0.00994647432233485,15.9066562853128
0.0112784302331943,15.9084076791341
0.0130109491802677,15.9103673929972
0.0148023133676266,15.9121424136414
0.0167742710962159,15.9139174342857
0.0184524366629112,15.9153553004119
0.0198975712614665,15.9165916736041
0.0211881222659487,15.917740651944
0.0223397412789038,15.9188567074619
0.023343127648707,15.9199790326174
0.0241722106368665,15.9211499108124
0.0247769774785992,15.922434465154
0.0250436660446446,15.923986716471
0.0247100724117151,15.9258397546268
0.023764766612651,15.9276927927826
0.0226612051945602,15.9291871916656
0.0214284570737845,15.9305950291235
0.0200595731203969,15.9320194869098
0.0185624497329728,15.9335058191529
0.0169445467552781,15.9350913063469
0.0152368845001484,15.936821463778
0.0138882635406926,15.9382908506642
0.0114993028506859,15.9411957075259
0.00952147315462804,15.9439992787375
0.00795281282114143,15.9465903183083
0.00665166263123277,15.9490851419397
0.00551373704218917,15.9516219049964
0.00451317045124819,15.954229507852
0.00363174502155888,15.9569312405083
0.0028546904778069,15.9597506311248
0.00222484562333747,15.9624532856393
0.00171539638112256,15.9650126766949
0.00129303161830123,15.9674714899172
0.000933824122023321,15.9698747904665
0.000621034485218934,15.9722648464568
0.000342268729678977,15.9746863604317
8.47326689641652e-05,15.9772237168297
-0.000178024648101953,15.9801744412454
-0.000349115652031014,15.9823280084999
-0.000505684743240406,15.9844815757543
-0.000632455964237221,15.9863651672261
-0.000740639512408031,15.988078064693
-0.000840914413240845,15.9897561897418
-0.000940023022050219,15.9915025250867
-0.00104528469065103,15.9934539016494
-0.00117256561083652,15.995945789376
-0.0013861813780866,16.0004409300737
-0.00155937381787342,16.0043598783028
-0.0017014649872324,16.0077505751021
-0.00184943543014624,16.0114540119677
-0.00202694084544876,16.0161821989168
-0.00221219036151817,16.0217464836877
-0.00233422899423073,16.0265722324732
-0.00238873911825236,16.0309180324192
-0.00236443228436338,16.034809414952
-0.00225359092897686,16.0383174391274
-0.00204980254650985,16.0415209781504
-0.00174615644794837,16.0444917369084
-0.00133515207138512,16.0472831090483
-0.000805815688706047,16.0499494339946
-0.00013320923330311,16.0525756746578
0.000736092998212111,16.0552883176171
0.00193324385551647,16.0583356306761
0.00344923682863226,16.0615669204924
0.00531167153275629,16.0649841417253
0.00656670469538087,16.0670380098061
0.00794773301832033,16.0690918778868
0.0093724168365407,16.0709952956103
0.0108551193556623,16.072759373178
0.0124109146311539,16.0743951301822
0.0141170870421697,16.075969496644
0.0159815121524275,16.0774696460958
0.0180538474501952,16.0789170769383
0.0203551807038109,16.0803074983732
0.0229242789972136,16.0816473190064
0.0257943850129463,16.0829375223182
0.0289995630841101,16.0841786946185
0.0325870272831316,16.085375195722
0.0366060983624506,16.0865297401609
0.0411134476492817,16.0876452120983
0.0461754072254724,16.088724775857
0.0518730725789458,16.0897723241211
0.0583010759688743,16.0907915080787
0.0655732713482259,16.091786208013
0.07382845032355,16.0927606258191
0.0832374974308804,16.0937193330741
0.0940177564151368,16.0946677508191
0.106448868116292,16.0956122137807
0.120902888600329,16.0965606184961
0.137895272809473,16.0975234152049
0.15818205838888,16.0985155552965
0.181675471009019,16.0995098701932
0.208981122589117,16.1005162811794
0.240919745284427,16.1015493306657
0.278688888396462,16.1026322105106
0.322771117027042,16.1037714001171
0.3641132778051,16.1047692314881
0.398518518997917,16.1055820630635
0.428238729265297,16.1062991379565
0.454222130690905,16.1069668910086
0.476636000573878,16.1076126458074
0.495218430399293,16.1082583637663
0.509277118863161,16.1089273255275
0.517417196093509,16.1096518689187
0.516792452789888,16.1104625190609
0.505052921869702,16.1112885551756
0.480963297473296,16.1121462613042
0.442892986338487,16.1130477903552
0.389000953939392,16.1140019597538
0.344720338874208,16.1146544844565
0.29530645401233,16.1153070091591
0.25123573891067,16.1158506994095
0.213539110952618,16.1163025615131
0.18046409647189,16.1166985707734
0.150854185602545,16.117060044184
0.124020133644087,16.1173998536256
0.0994960991587047,16.117727102759
0.0769112173787135,16.1180496200812
0.0558955815737079,16.1183761202099
0.0359174614655686,16.118720563536
0.015536250687393,16.119122824438
0.00131500739072187,16.1194490959402
-0.00597649016966898,16.1196370948627
-0.0126394776761159,16.1198250937852
-0.0185081844530744,16.1200067350456
-0.0244837451003913,16.1202112414924
-0.0302964127715277,16.1204346205892
-0.0357685991574625,16.1206742537847
-0.0408012452394393,16.1209291005496
-0.0453420988254481,16.1211991516269
-0.0493668839227675,16.1214851171038
-0.0529171734383807,16.1217938609513
-0.0558417457425229,16.1221134579045
-0.0582506679750782,16.1224539972493
-0.0601578933569587,16.1228184108961
-0.061577593730981,16.123210178977
-0.0625236302705488,16.1236335935564
-0.0630080478914609,16.1240939918485
-0.0630394709237366,16.1245981020136
-0.0626211415195875,16.1251545753403
-0.0617460372390745,16.1257761191063
-0.0603930484126073,16.1264793634017
-0.058518658989541,16.1272886672383
-0.0560342233066341,16.1282444268924
-0.0527299741653335,16.12943027279
-0.0486758476592005,16.1308374160668
-0.0447423979209244,16.1321956106475
-0.0409844596037829,16.1335114872789
-0.0374291645500405,16.1347879908896
-0.0340902574235746,16.1360263113894
-0.0309738750008371,16.1372267475571
-0.0280811052915459,16.1383891606624
-0.0254093388063902,16.1395132130734
-0.0229531322001842,16.1405984920603
-0.020704859005466,16.1416445697297
-0.0186552538950163,16.1426510254606
-0.0167938899169927,16.1436174449421
-0.0151096014529308,16.1445434035303
-0.0135367193331181,16.145460988638
-0.0120229609087644,16.1464020322087
-0.0105729025719611,16.1473680667875
-0.00919049476829235,16.1483611900958
-0.00787949489115099,16.149383861845
-0.00664341425954512,16.1504389954976
-0.00548546648967264,16.1515300762527
-0.0044085135884152,16.1526613197896
-0.00341500971709828,16.1538378907988
-0.00250694216765786,16.1550662120558
-0.00168576841527346,16.1563544157832
-0.000952346941991315,16.1577130287592
-0.000306857317377256,16.1591560628725
0.000251299485014101,16.160702858762
0.000711326884400223,16.1623313739741
0.00107124785894129,16.1640064218994
0.00134740678821559,16.1657463074167
0.00155438977252548,16.1675722327157
0.00170589194780364,16.1695125254218
0.00181513571335017,16.1716073393733
0.00189549957114675,16.173918470876
0.0019617280997955,16.1765533770596
0.00203335470815686,16.1797435320997
0.00212899365572777,16.1834807222674
0.00225123681977136,16.1873301805223
0.00239451467067427,16.1911117378371
0.00255550681354672,16.1948898528838
0.00273062723698629,16.1987125935947
0.00291731854838336,16.2026177929035
0.0031144377928623,16.2066383339027
0.0033222158805659,16.2108051210859
0.00354206974419791,16.2151489926325
0.00377639450839312,16.2197021383387
0.00402843450882836,16.2244994936607
0.00430232855412378,16.2295801576645
0.00460343038814658,16.2349887325615
0.00492655034845672,16.240563917823
0.00525594951475505,16.2459797231679
0.00559892562019053,16.2513182935362
0.0059564121059523,16.256547582686
0.00633273875393802,16.2616870629146
0.00673175185496802,16.2667443117604
0.00715777387489796,16.2717288305159
0.00761527552655038,16.2766464500943
0.00810905654460965,16.2815007609159
0.00864432645949092,16.2862931324406
0.00922683058036153,16.2910232235002
0.00986295587631721,16.2956893161597
0.010559850044175,16.30028884774
0.0113431175663704,16.304917650478
0.0122269937077335,16.3095666947063
0.0132333276794664,16.3142508332455
0.0143925750977542,16.3189996257709
0.0157543835757272,16.3238842754084
0.0174206255379703,16.3290924833041
0.0197359212472305,16.3353563578834
0.0214513956083381,16.3395316100447
0.023253293490011,16.3437068622061
0.0247995078965772,16.3472890743724
0.0260970067235108,16.3504648669143
0.0271848651301107,16.3534579209842
0.0280433576186984,16.3563469221803
0.0286329261737335,16.359112133374
0.0289528865232989,16.3618712282109
0.0289738624511454,16.364774791748
0.0285894069140961,16.3681403459779
0.0278180650667028,16.3714399677654
0.0267171540274828,16.3747395895528
0.0256282012301824,16.3774297680976
0.0245575594887267,16.3798125009446
0.0234872060918344,16.3820517902999
0.022415383482785,16.3842140729688
0.021344922020274,16.3863337847282
0.0202795094140005,16.3884326531985
0.0192228223294325,16.3905260641116
0.0181783088797461,16.3926257875351
0.0171491353041312,16.3947413797345
0.0161381810902418,16.3968809932881
0.0151480503930081,16.3990518841515
0.0141810832584144,16.401260762748
0.0132393706897491,16.4035140426322
0.0123247663729226,16.4058180388939
0.0114388941953651,16.4081791439444
0.0105831652560577,16.4106039611669
0.0097587802824082,16.4130994711655
0.00896171257703646,16.4156901424714
0.00817523192714252,16.4184524923713
0.0074031236727738,16.4214061442512
0.00664917311201639,16.4245746620114
0.00591741474560038,16.4279853170818
0.0052121067523734,16.4316697911099
0.00453768139799997,16.4356650545023
0.00389865992291146,16.4400145267891
0.00329949776357276,16.4447699156984
0.00274433125878184,16.4499945981387
0.0022366613187117,16.4557697927504
0.00177909110036061,16.4622049335397
0.00138876756077647,16.4691406679073
0.0010724058025489,16.4766226420992
0.000820630143042717,16.484993790228
0.000646465033642772,16.4929103657091
0.000495301924479786,16.5022104141383
0.000380796856629121,16.5122104141383
0.000302420925874643,16.5222104141383
0.000249729887865981,16.5322104141384
0.000215101184276001,16.5422104141384
0.000193089672571538,16.5522104141384
0.000179925645261526,16.5622104141384
0.000173057810377896,16.5722104141384
0.000170778863739306,16.5822104141384
0.000171954964224865,16.5922104141384
0.000175846054024929,16.6022104141384
0.000181990709480653,16.6122104141384
0.000190132473880362,16.6222104141384
0.000200172793461794,16.6322104141384
0.00021214237174007,16.6422104141384
0.000226186766510361,16.6522104141384
0.000242564303780687,16.6622104141384
0.000261655963379644,16.6722104141384
0.000283988508785689,16.6822104141384
0.000310274242982811,16.6922104141384
0.000341473875204803,16.7022104141384
0.000378893945373512,16.7122104141384
0.000424338734140566,16.7222104141384
0.0004789345030614,16.7319788375527
0.000541381348314518,16.7410113896642
0.000612580493524893,16.7493448945159
0.000693709229437178,16.7570334258725
0.000786130659181033,16.7641278703465
0.000891395463925527,16.7706754475045
0.00101125992869573,16.7767199795336
0.00114771165630135,16.7823021524095
0.00130300049956567,16.787459746103
0.00147967389932165,16.7922278467763
0.00168061810584661,16.7966390501131
0.00190910717668128,16.8007236574512
0.00216886214788065,16.8045098622297
0.00246412287364295,16.808023932553
0.00279973906862252,16.8112903988924
0.00318128597161148,16.8143322510183
0.00361521663636165,16.8171711486678
0.00410906769847671,16.8198276620088
0.00467174697089857,16.8223215639603
0.00531395254542137,16.8246722088327
0.00603831270553916,16.8268700166109
0.00683951255853533,16.8288991745031
0.00772867892608507,16.8307948758922
0.00872281554422427,16.8325930460091
0.0098494699508531,16.8343341404852
0.0111606684740709,16.8360756405009
0.0128407563629321,16.8379958494751
0.0147148543907556,16.839863858381
0.0163110726448716,16.8413112245746
0.0179935145529659,16.8427585907682
0.0194964122307802,16.8440331293849
0.0208363962082903,16.8452000917409
0.022036242569546,16.8463200075759
0.0230925090859584,16.8474340503729
0.0239845949284933,16.8485818436864
0.024671951382081,16.849817845508
0.0250707090118383,16.8512519509588
0.0248776497661269,16.8533388740544
0.0242042659143858,16.8548789812586
0.0231762775418046,16.8564190884627
0.0220018002233429,16.8578337715509
0.0206858620960393,16.8592426491245
0.0192369029692496,16.860698429396
0.0176640118962565,16.8622384581148
0.0166809686710508,16.8632010609467
0.0157229303894319,16.8641636637786
0.0132618211965513,16.8668581286054
0.0108906854632103,16.8698586904151
0.00903534585051248,16.8726064398556
0.00756025077007431,16.8751491880455
0.00630933987723318,16.8776521528112
0.00521308797131083,16.8802063970618
0.00424854152280883,16.8828382446089
0.00339863150775851,16.8855708506294
0.00265121009987035,16.8884202603633
0.00205654769956503,16.8911008011567
0.00157338737428557,16.8936458619523
0.00117045739435929,16.8961014728354
0.00082595876663091,16.8985115261753
0.000525017626887784,16.900913477972
0.000256497372249256,16.9033469259325
7.78867756629499e-06,16.9058993781192
-0.000249467963114501,16.9089048130174
-0.00041073324781972,16.9110106021602
-0.000558990594295238,16.9131163913031
-0.000680804402373741,16.9149782525023
-0.000785830634712569,16.9166841665226
-0.000883836624725831,16.9183629611545
-0.00098133647302661,16.9201178066681
-0.00108577055801329,16.9220914490983
-0.00121436323928321,16.9246531587647
-0.00142394446779626,16.9291230401792
-0.0015917188634056,16.9329489695353
-0.00173183696832893,16.9363043636883
-0.00187971100791545,16.9400082597806
-0.00205812300640564,16.944756237085
-0.00224294594232495,16.9503059305983
-0.00236400183459423,16.9551202108191
-0.0024164597838758,16.9594512858756
-0.00238913639321808,16.9633280619965
-0.00227438862558908,16.9668269919667
-0.00206570389161414,16.9700278454341
-0.00175615364452301,16.9730002660405
-0.00133869585851986,16.9757934401472
-0.000802759447968129,16.9784604391456
-0.000123418682133745,16.9810867322115
0.000752542086145298,16.9837979705902
0.00195815393221688,16.9868463012558
0.00348306752382234,16.9900783378609
0.00535374258402252,16.993493867343
0.00661316313661974,16.9955454462297
0.00799877986636011,16.9975970251165
0.00942232720077141,16.999490729386
0.010916113239462,17.0012603481286
0.0124759032674672,17.002892918936
0.0141862904166042,17.0044642072063
0.0160567766766703,17.0059626968992
0.0181358543439803,17.0074085643238
0.0204450704371925,17.0087977503039
0.0230227327130944,17.0101362792715
0.025902608053444,17.0114253570128
0.0291185671964259,17.0126654230236
0.0327182059086164,17.0138609200762
0.0367510989223354,17.0150145702874
0.0412745072698883,17.016129331515
0.0463545839510687,17.0172082376075
0.0520731272263678,17.0182552511516
0.0585253715464176,17.0192740356603
0.0658259451036056,17.020268486003
0.0741146759076413,17.0212428252918
0.0835638865814821,17.0222016570726
0.0943929277209849,17.0231504442482
0.106884446211148,17.024095589434
0.121415196646308,17.0250450969525
0.138508512361409,17.0260096000228
0.15889897924797,17.0270027596886
0.182508245745407,17.0279981563449
0.209956148832926,17.0290062710236
0.242075468499044,17.0300419625356
0.280089766624096,17.0311291396965
0.324265117423286,17.0322692196375
0.365150706846132,17.0332567807873
0.399268039777419,17.0340650640139
0.428783950629775,17.0347804379309
0.454586237684154,17.0354478175446
0.476817525829899,17.0360940690681
0.495199050935507,17.0367410597779
0.509018194073898,17.0374121989497
0.516843231101375,17.0381402921908
0.515793022106464,17.0389518552029
0.50360056326227,17.0397793150742
0.47901648610222,17.040638774325
0.440404122428046,17.0415421775498
0.385926301981055,17.0424983269924
0.341953343157842,17.043142668139
0.29303171609726,17.0437870092856
0.249368624500989,17.0443254211278
0.211945826510119,17.0447743867064
0.179067631845643,17.0451687331452
0.149611700439313,17.0455292176569
0.122904439002222,17.0458684722365
0.0984873526063346,17.0461955015306
0.0759924751980178,17.0465181207409
0.0550483962166028,17.0468451386677
0.0351108270544768,17.0471909174578
0.0146510904413458,17.0475978555639
0.00171297277195061,17.0478956692396
-0.00562835907909529,17.0480843493809
-0.0123363752458622,17.0482730295222
-0.018185827810768,17.0484534448821
-0.0241597600907164,17.0486570178907
-0.0299826930033562,17.048879663665
-0.0354719555307706,17.0491186599979
-0.0405254753503629,17.0493729010404
-0.0450892199563353,17.049642334694
-0.0491378363259646,17.0499276398156
-0.0526875698202701,17.0502331865043
-0.0556401051020831,17.0505517692579
-0.0580768496961704,17.0508911879298
-0.0600112904277283,17.0512543086358
-0.0614575520597375,17.0516445697065
-0.0624295418241522,17.0520662107986
-0.0629394402617004,17.0525245003825
-0.0629961100433453,17.0530260731696
-0.0626031670150066,17.0535794480865
-0.0617543554044613,17.0541970426069
-0.060429527077432,17.0548952116313
-0.0585869377519482,17.055697694913
-0.056141846865544,17.0566435127796
-0.0528968069164141,17.0578119367083
-0.0488397910857129,17.0592220973118
-0.0449001744408745,17.0605824572835
-0.0411341463909092,17.061900233431
-0.0375697894537198,17.0631785105818
-0.0342213378220414,17.0644185500711
-0.031095224135897,17.0656206876008
-0.0281927393509432,17.0667848031188
-0.0255114240233918,17.0679105679525
-0.023045949037445,17.0689975732395
-0.0207887743771964,17.0700453924907
-0.0187306977661715,17.0710536056026
-0.0168613349307137,17.072021798896
-0.0151695450897441,17.0729495491585
-0.0135942154598191,17.0738661333581
-0.0120777806961906,17.0748061273367
-0.010624868485122,17.0757710269816
-0.00923943657137425,17.0767629160091
-0.00792525208969944,17.0777842364871
-0.00668583828504151,17.0788378797739
-0.00552442299453793,17.0799273030327
-0.00444388484134355,17.0810566858514
-0.00344669710853034,17.0822311456144
-0.00253486885625614,17.083457041719
-0.00170988218356485,17.084742419161
-0.000972623396663374,17.0860976805894
-0.000323303700283929,17.0875366536013
0.000238639332066299,17.0890783896931
0.00070343871655367,17.0907052824115
0.00106735414072821,17.0923779051091
0.00134684624758101,17.0941145578454
0.00155654793958031,17.0959361974347
0.00171018612686791,17.0978707650289
0.00182099364339718,17.099957746613
0.00190232480527232,17.102257654219
0.00196882356098083,17.1048750131836
0.00203966085624783,17.1080320950435
0.00213446782558185,17.1117674318125
0.00225596319911518,17.1156239172819
0.0023985524117088,17.1194074461862
0.00255898212943464,17.1231840382946
0.00273365196003006,17.1270026645293
0.00291996208195339,17.1309015943923
0.00311672300412316,17.134913909674
0.00332412370211603,17.1390705683815
0.00354354661914744,17.1434023627922
0.00377735911727616,17.1479413528641
0.00402877917575061,17.1527222518524
0.00430191105598725,17.1577838528533
0.00460204954050384,17.1631703567462
0.00492565146992584,17.1687499623695
0.00525509691634545,17.1741632527782
0.0055983034783652,17.179503348291
0.00595590614235849,17.1847333336066
0.00633229594133314,17.189873608084
0.00673129479502945,17.1949313192062
0.00715724197727468,17.1999161208786
0.00761461722024521,17.2048338904976
0.00810823110079158,17.2096882929529
0.00864330031738031,17.2144807391687
0.00922557447358301,17.2192109109335
0.00986144261004327,17.2238771026537
0.0105580529262126,17.2284767583295
0.0113409545115533,17.2331054495663
0.0122244122175547,17.2377544008888
0.0132302469319808,17.2424383823304
0.0143888741692374,17.2471868709749
0.0157498450407453,17.2520708540305
0.0174147269093675,17.2572773484203
0.0197261478203098,17.2635339884417
0.0214432516253612,17.2677148044507
0.0232473317793893,17.2718956204596
0.0247947378521698,17.2754802431878
0.0260930408706603,17.2786570465198
0.0271816398539718,17.2816504730916
0.0280411089540616,17.2845401204952
0.0286316191591043,17.287305555763
0.0289525625885441,17.290064421791
0.0289747092732683,17.2929670731381
0.0285921278057295,17.2963297537847
0.0278210732048004,17.2996335423222
0.0267194164044047,17.3029373308596
0.0256302525375931,17.305628629233
0.0245595860047639,17.3080116953966
0.0234892357450245,17.3102511244793
0.02241741734931,17.3124134670217
0.0213469571078337,17.3145331905009
0.0202815422877606,17.3166320357721
0.0192248498828336,17.3187253951165
0.0181803285723123,17.3208250418066
0.01715114520965,17.3229405333802
0.0161401799306683,17.3250800222913
0.0151500375200065,17.327250763326
0.0141830586359865,17.3294594647893
0.0132413349104213,17.3317125370881
0.0123267205559211,17.3340162913412
0.0114408400109198,17.3363771147313
0.0105851048834947,17.3388016041058
0.00976071630282962,17.341296732147
0.00896362707203279,17.3438870248179
0.00817711822611818,17.3466489501477
0.00740497449656533,17.3496021249467
0.00665098082258098,17.3527701041717
0.00591917139164309,17.3561801484248
0.00521380419765668,17.3598639258961
0.00453931142827278,17.3638583905043
0.0039002144809874,17.368206940856
0.00330096935087712,17.3729612566748
0.00274571348952147,17.3781846749402
0.0022379496655338,17.3839583523086
0.00178028325080882,17.3903916268808
0.00138981549468616,17.3973261436048
0.00107291080364657,17.404806679081
0.000819137791546699,17.4132381181803
0.000645915015036396,17.4211184184143
0.000494461329891938,17.4304398674896
0.000380040253623206,17.4404398674896
0.000301702936800171,17.4504398674896
0.000249023378457925,17.4604398674896
0.000214391669162589,17.4704398674896
0.000192368947446491,17.4804398674897
0.000179188137451121,17.4904398674897
0.000172299148163044,17.5004398674897
0.000169995430245624,17.5104398674897
0.000171143676477387,17.5204398674897
0.000175004113973187,17.5304398674897
0.000181115311563478,17.5404398674897
0.000189220497925111,17.5504398674897
0.000199220487426164,17.5604398674897
0.000211145000760457,17.5704398674897
0.000225138187529351,17.5804398674897
0.000241456411813243,17.5904398674897
0.000260477936192029,17.6004398674897
0.000282725742496808,17.6104398674897
0.000308906811292137,17.6204398674897
0.000339974241673816,17.6304398674897
0.000377223477084772,17.6404398674897
0.000422442238085072,17.6504398674897
0.000476899849259628,17.6602346659062
0.000539199433662532,17.6692922853622
0.000610233607411424,17.6776486731534
0.000691175452815278,17.6853580686741
0.000783384462007181,17.692471542989
0.000888407669318437,17.6990364816552
0.00100799737004191,17.7050968560635
0.00114413672340996,17.7106934871843
0.00129907060080145,17.7158642777835
0.00147534090464707,17.7206444258298
0.00167582763254627,17.7250666289528
0.00190379782556158,17.7291612816467
0.00216296452286354,17.732956662692
0.00245755843461118,17.7364791182795
0.00279241868450402,17.7397532501943
0.00317310806304561,17.7428021133066
0.00360606482639858,17.7456474266313
0.0040988076182834,17.7483098139704
0.00466022185589702,17.750809096332
0.00530097695177399,17.7531646703915
0.00602412937217852,17.7553681646803
0.00682401946811888,17.757402334885
0.00771173065808386,17.7593024541429
0.00870421326811079,17.7611045414744
0.00982891244192939,17.7628491097214
0.0111376109254509,17.7645936192744
0.0128123951580462,17.7665147126427
0.014688224403327,17.7683907835437
0.016282195834056,17.7698406006577
0.0179624685450214,17.7712904177717
0.0194635769448489,17.7725670920765
0.0208018183334412,17.7737357570016
0.0220000345949523,17.7748571153567
0.0230548420471576,17.775972410796
0.0239457103955731,17.7771212717005
0.0246322209172837,17.7783580745253
0.0250308671499615,17.7797923164142
0.0248414329050692,17.7818742589067
0.0241705612397016,17.7834173511597
0.0231440680116587,17.7849604434127
0.0219713553528924,17.7863765462253
0.0206575271536464,17.7877861219018
0.0192109834031642,17.7892421422514
0.0176408438308441,17.790781966324
0.0166601574607086,17.7917436623409
0.015704213134809,17.7927053583579
0.0131471487781772,17.7955161217455
0.0107918447831723,17.7985186930476
0.00895718837804627,17.801256303347
0.00749698783011851,17.8037916192033
0.00625406857630109,17.8062964995774
0.00516444270434631,17.8088541626436
0.00420560535784379,17.8114905499074
0.00336066921821818,17.8142288148105
0.00262627161429847,17.8170487047134
0.00204045750754436,17.8197035664042
0.00156318097080022,17.8222272881912
0.00116421885780457,17.8246649712791
0.000822318164251639,17.827060562498
0.000522664377812691,17.8294542734403
0.000253660753460301,17.8318938704699
1.16182644330442e-06,17.8344900221455
-0.000273901549355942,17.8377284107133
-0.000424387370299734,17.8397127406901
-0.000563467563511633,17.8416970706669
-0.000680947427213115,17.8434943572714
-0.000784820260595198,17.8451808602924
-0.000883371309768229,17.846868370018
-0.000983032282939143,17.8486631058218
-0.00109249833237971,17.8507371236842
-0.00123781933520676,17.8536540968108
-0.00141800309396537,17.8575189286451
-0.00155890119664522,17.8607228138198
-0.00168849266260183,17.8638043651745
-0.00182955008753459,17.8673078310006
-0.00199797960653292,17.8717313691435
-0.00219441386618623,17.877461266539
-0.00232618842104573,17.8823639742637
-0.00239250806939473,17.8867879593244
-0.00238136981556012,17.8907444166327
-0.00228471540429498,17.894307065839
-0.00209598708189342,17.8975543396232
-0.00180863720760653,17.9005570460512
-0.0014152425822293,17.9033728832798
-0.000905784290471871,17.9060543142876
-0.000260838050396812,17.9086712416025
0.000565071756169062,17.9113410287617
0.00171363013320296,17.9143580560096
0.00317345518598369,17.9175529301085
0.0049861039501001,17.9209570765481
0.00628187199417564,17.9231243317497
0.00770991572984769,17.9252915869513
0.00911378531953324,17.9272059966506
0.0105752549582039,17.9289847037695
0.0121054033198606,17.9306335618709
0.0137760494857457,17.9322159515395
0.0156049005590168,17.9337282087895
0.0176355802964376,17.9351867978669
0.0198896399798589,17.9365879431601
0.0224054619618731,17.9379381976616
0.0252128526710646,17.9392372013461
0.0283498688677657,17.9404877103299
0.0318602666380387,17.9416929344796
0.0357919251621915,17.942855526518
0.0401978437204854,17.9439778598183
0.0451461013668545,17.9450640611446
0.0507135855382258,17.9461175550014
0.0569916195247137,17.9471419433251
0.0640899094692057,17.9481410580058
0.0721408735723534,17.9491189185988
0.0813096620662887,17.9500801812279
0.0918030868146783,17.9510300405119
0.103886538155102,17.9519745939672
0.11791078432054,17.9529213667251
0.134357100956602,17.953880172191
0.153922797366271,17.954864845949
0.176736831617009,17.9558579093344
0.203227685651572,17.9568607329532
0.234165662828106,17.9578867822227
0.270647727377899,17.958956811522
0.313912318735754,17.9600952762683
0.348211905878093,17.9609350941209
0.383653925471959,17.9617749119736
0.415217782271162,17.9625250253991
0.442863904013794,17.9632110327497
0.466930753767076,17.9638638302118
0.487334094563959,17.9645067286582
0.503594022518299,17.9651616611531
0.51469628663537,17.965855512753
0.518551678825766,17.9666320722784
0.512083413673267,17.9674487210902
0.493889725294182,17.9682899194944
0.462506660378276,17.9691699122915
0.416161206374886,17.9700986681394
0.369683710079716,17.9708442607511
0.315848269644065,17.9715898533629
0.268021499548409,17.9721931952281
0.227898843929859,17.9726776632111
0.193149928169962,17.9730926576869
0.162260363002237,17.9734659470099
0.134384760906344,17.973813097666
0.108987828782945,17.9741443419385
0.0856722194677593,17.9744677754373
0.06407982833981,17.9747914500669
0.0437753511421408,17.9751263542978
0.0238852845584641,17.9754963605264
0.00852524964627135,17.9758238435645
-2.94803230738308e-05,17.9760284889928
-0.00781362665658422,17.9762331344211
-0.0142597216434906,17.9764194548526
-0.0201999053958425,17.976608250987
-0.0261545604459753,17.9768184693339
-0.031885340689517,17.9770466058652
-0.0372412786635273,17.9772905686115
-0.0421391320844642,17.9775496538073
-0.0465360378336455,17.9778240788796
-0.0504127915390949,17.978114724555
-0.054001933211801,17.9784488935985
-0.0567477883485052,17.9787758141545
-0.0589797635202874,17.9791243347181
-0.0607148830375246,17.9794978620301
-0.0619674149860189,17.9799001430668
-0.0627507594841839,17.9803358048277
-0.0630759598110022,17.9808106249061
-0.0629500087628626,17.9813319318336
-0.0623733227158888,17.9819094978649
-0.0613342334802845,17.9825574368759
-0.0598052704027949,17.9832944513873
-0.0577309122288417,17.9841491508501
-0.0549945577198714,17.9851719012695
-0.0512863380151848,17.9864820353466
-0.0472677176227036,17.9878699819304
-0.0433918985842057,17.9892126946439
-0.0397033191546333,17.9905144314565
-0.0362233710981637,17.9917773652539
-0.0329626808324679,17.9930022970313
-0.0299253927355443,17.9941893320569
-0.0271111671911858,17.9953382407855
-0.0245163088998971,17.9964486485237
-0.0221345356635927,17.9975201323821
-0.0199575838122628,17.9985522657032
-0.0179757261344709,17.9995446310009
-0.0161782291617276,18.0004968127815
-0.0145537578356454,18.0014083764733
-0.0130008684085406,18.0023340507966
-0.0115088960692289,18.0032835854433
-0.0100820193484227,18.0042588064917
-0.00872412836397577,18.0052619282058
-0.00743890051503179,18.006295557041
-0.00622974942989572,18.0073627905672
-0.00509977252379803,18.0084673480038
-0.00405169630873556,18.0096137471753
-0.00308781927486243,18.0108075502957
-0.00220995168587833,18.012055715268
-0.00141935082566561,18.0133671152231
-0.000716648781565951,18.0147533393563
-0.00010176705611145,18.0162299925394
0.000426193636359297,18.0178189479344
0.000848895515764888,18.01946158922
0.00117758309882134,18.0211573403417
0.00142775430532353,18.0229247478919
0.0016136427583529,18.0247871638023
0.00174872076841819,18.0267763614195
0.00184617493982744,18.0289385596165
0.0019196691951534,18.0313475564451
0.00198499861510461,18.0341396069425
0.00206572799098056,18.0376469667559
0.00217009004282534,18.0414230134877
0.00230008820464285,18.0452421861733
0.00245004021223175,18.0490164002338
0.00261624970697731,18.0528037454488
0.00279541699969249,18.0566482765844
0.00298549157093822,18.0605858659519
0.0031858483811935,18.0646485139008
0.0033971718255677,18.0688669353913
0.00362124777159011,18.0732722445013
0.0038607716091793,18.0778973253212
0.00411926843699089,18.0827782628063
0.00440121604696119,18.0879556987318
0.00471248219512017,18.0934762356074
0.0050365291053135,18.0989802325098
0.00537068889926571,18.1043780420293
0.00571807711375488,18.1096770725449
0.0060815427502342,18.1148758886144
0.0064650383110295,18.1199865639392
0.00687265199247038,18.1250186293868
0.00730873178282824,18.1299800797297
0.00777785996913597,18.1348760823553
0.00828496327916196,18.139709430741
0.00883542255227942,18.1444808961766
0.00943518909749257,18.14918963571
0.0100908926539314,18.1538335757812
0.0108150018504203,18.1584404793016
0.0116302992506525,18.1630756154582
0.0125528274613904,18.1677345044555
0.0136068080209177,18.1724358299849
0.014827506198851,18.1772192962768
0.0162761678246376,18.1821818332904
0.0180945096423116,18.1876003640256
0.0205661675582175,18.19400017712
0.022171241698195,18.1978016729342
0.0238226951059915,18.2016031687483
0.0252698567562067,18.2049986109473
0.0264932997394713,18.2080916487289
0.0275101437119604,18.2110568825476
0.0282752834470252,18.2138901318097
0.0287735918058557,18.2166391682424
0.0289965634334072,18.2194272763508
0.0288982285377605,18.2224348070726
0.0282990081442961,18.2261625897531
0.0274822961156709,18.2291331466959
0.0264181355940069,18.2321037036387
0.0253433786714414,18.2346700462816
0.0242741187337233,18.2370036340103
0.0232032689380473,18.2392179053057
0.0221314738965193,18.2413662569879
0.0210619909244745,18.2434786602508
0.0199985474545592,18.2455747621468
0.0189447705995711,18.247668799781
0.0179040356187264,18.2497718527478
0.0168794326943336,18.2518930411172
0.0158737669531123,18.2540402384866
0.0148895710536565,18.2562205269778
0.013929118658793,18.2584405136797
0.0129944352859947,18.2607065706926
0.0120873145839677,18.2630250120881
0.0112093230277376,18.2654022698461
0.0103618127029691,18.2678450369909
0.00954593504235562,18.2703604024163
0.00875134309525129,18.2729949338282
0.00796833748289724,18.2758060397392
0.00720068650267726,18.2788143842008
0.00645224275706823,18.2820444574366
0.00572710494919317,18.2855246217096
0.00502958130510598,18.2892878805613
0.00436413922135927,18.2933727829046
0.00373530193465576,18.2978247231922
0.00314746767884148,18.3026980969921
0.0026046379463424,18.3080602444231
0.00211008859895039,18.3139987296452
0.0016686645250761,18.3205909562256
0.0012959186868558,18.3276628659519
0.000993195018383746,18.3355269457057
0.000798808128256823,18.3424764706582
0.000613565378777357,18.351267555734
0.000473469956808385,18.3604337703723
0.000365672068850329,18.3704337703723
0.00029210570981757,18.3804337703723
0.000242824111623198,18.3904337703723
0.000210582068087769,18.4004337703723
0.000190237378919208,18.4104337703723
0.000178249888158986,18.4204337703723
0.000172230713842899,18.4304337703723
0.000170583003286917,18.4404337703723
0.000172247835325142,18.4504337703723
0.000176537307766226,18.4604337703723
0.000183027775345632,18.4704337703723
0.000191491414038062,18.4804337703723
0.000201852590978112,18.4904337703723
0.000214161747166694,18.5004337703723
0.000228583097807111,18.5104337703723
0.000245394507179275,18.5204337703723
0.00026499943874745,18.5304337703723
0.000287952554078854,18.5404337703723
0.000315002771154467,18.5504337703723
0.000347160931866753,18.5604337703723
0.000385804630999644,18.5704337703723
0.000432842082047901,18.5804337703723
0.000488728344464434,18.5900805325346
0.000552606568749921,18.5989959261612
0.000625427431153595,18.6072211209512
0.000708399764732996,18.614809744923
0.000802917701195345,18.6218120994223
0.000910565474209781,18.6282748581646
0.00103313706363456,18.6342413383308
0.00117266277823815,18.6397517571966
0.0013314410498332,18.6448434585904
0.00151207444631579,18.6495511240573
0.00171751238751247,18.653906975407
0.00195110139151784,18.6579409698889
0.00221664655910573,18.6616809856121
0.00251848602420282,18.6651530048702
0.00286158586108894,18.6683813036261
0.00325166132194966,18.6713886506299
0.00369533674330016,18.6741965222777
0.00420036338709086,18.6768253508052
0.00477592572702627,18.6792948291519
0.00543309108767693,18.6816243113383
0.00617008582302189,18.6837920272613
0.00698554831435533,18.6857971141004
0.00789148425496978,18.6876748924651
0.0089062712529809,18.6894616714656
0.0100603485295028,18.6911997209403
0.0114134133820457,18.6929525311269
0.013199368576479,18.6949422087292
0.0149362801676896,18.696642970999
0.0168371131713507,18.6983437332688
0.0185038909828115,18.6997670402902
0.0199480227753476,18.7009993198414
0.0212385368973339,18.7021459704619
0.0223900028508786,18.7032604762335
0.0233928213128031,18.7043819134624
0.0242206134049503,18.7055527183511
0.0248227661103289,18.7068386593086
0.0250833999055151,18.7083967856849
0.0247417767966627,18.7102420266235
0.0237933797966864,18.712087267562
0.022688043109184,18.7135782148465
0.0214528645238942,18.7149848527267
0.0200812097466251,18.716408964583
0.0185810321010696,18.7178955431201
0.0169597266840779,18.7194819126842
0.0152485647966985,18.7212138265024
0.0138784884822193,18.7227061167187
0.0114890628279333,18.7256126892478
0.00951308336353748,18.7284151457895
0.00794592303657832,18.7310051847359
0.00664563684210438,18.7334998610952
0.0055084590736773,18.7360366254911
0.00450856518091013,18.7386443303832
0.00362775171156119,18.7413462580514
0.00285125732390886,18.7441659375018
0.00221879503459603,18.7468833482089
0.00170785378162757,18.7494557524762
0.00128471515067375,18.7519261157663
0.000925232711673758,18.7543395136596
0.000612749296720372,18.7567363423202
0.000335259982099503,18.7591559910361
8.08585873319277e-05,18.7616701161189
-0.000172676002528079,18.7645173289517
-0.000352248067209424,18.7667774282505
-0.00051589191227778,18.7690375275493
-0.000644672583827489,18.7709633938551
-0.000752882547244133,18.7726884559008
-0.000852425973054192,18.7743649838935
-0.000950186340444355,18.776097011244
-0.00105310946041435,18.7780128757213
-0.00117493351351573,18.7804020332915
-0.00139105516524184,18.7849502243345
-0.00157362761780917,18.7890837027994
-0.00172052715993269,18.7925934043784
-0.00187059243523008,18.7963523567656
-0.00205043614664125,18.8011461661573
-0.00223418747784273,18.8066813371091
-0.00235465817218828,18.811492869769
-0.00240669458190615,18.8158207904575
-0.00237917717862454,18.8196970777923
-0.00226448713195573,18.8231932041949
-0.00205603608749968,18.8263918587403
-0.00174702034165545,18.8293605185713
-0.00133045994670726,18.8321489934749
-0.00079587785788422,18.8348107468122
-0.000119229103824696,18.8374287516488
0.000755468244317383,18.8401386295302
0.00196013206274185,18.843187088773
0.00348465507925989,18.8464206125239
0.00535488472967851,18.8498373068378
0.00661309659229652,18.8518876498628
0.0079978893799551,18.8539379928878
0.00943460092614254,18.8558485680104
0.010905330360361,18.8575904163212
0.012467788284386,18.8592264744293
0.0141818086258906,18.8608013228898
0.0160525517188073,18.8622999330656
0.0181320552559176,18.8637459506793
0.0204410465895404,18.8651348280979
0.0230187060445931,18.8664731820312
0.0258986831374977,18.8677621253929
0.0291146893564448,18.8690020264239
0.0327144207123972,18.8701973715366
0.0367474475769827,18.8713508784775
0.0412711605584814,18.8724655339266
0.046351424508873,18.8735443005478
0.0520701452559003,18.8745911713393
0.0585225443135256,18.8756098089199
0.0658232231289757,18.8766041057957
0.0741119658078269,18.8775782819232
0.0835610552840305,18.878536939545
0.0943896969991932,18.8794855318333
0.106880345767956,18.8804304527508
0.121409400424855,18.8813796919053
0.138499511008846,18.8823438572731
0.158888697092721,18.883336782896
0.182495940702048,18.884331894904
0.209940444956873,18.8853396469328
0.242053779943454,18.8863748522007
0.280056693387179,18.8874613242093
0.32424599375817,18.8886012103479
0.365191529086608,18.8895895247527
0.399345022281384,18.8903979428907
0.428886663874159,18.8911131931381
0.45471168779313,18.8917803541389
0.47696544828598,18.892426339374
0.495370706027492,18.8930730307637
0.509216244684803,18.8937438420672
0.517072166581035,18.8944715838545
0.516057523147876,18.8952829147557
0.503899746559558,18.8961101471956
0.47934978669173,18.8969694098571
0.440769881276451,18.8978726727538
0.386320576037475,18.8988287343589
0.342299124104462,18.8994738961323
0.29331035827091,18.9001190579057
0.249593134298531,18.9006579821031
0.21213336495069,18.9011072110178
0.179228192816245,18.9015016931879
0.149751000730508,18.9018622450227
0.123026167693828,18.9022015238023
0.0985941832251815,18.9025285447066
0.0760865884017516,18.902851124847
0.0551319259313731,18.9031780647882
0.0351868434035844,18.9035236902467
0.0147302840150449,18.9039301675902
0.00169243886348418,18.9042300768832
-0.00564722240135913,18.9044186787209
-0.0123537909394473,18.9046072805586
-0.0182048036965258,18.9047877096048
-0.0241796689252401,18.9049912815795
-0.0300030810086961,18.9052139157211
-0.0354925394487482,18.9054528944539
-0.040546070246364,18.9057071146773
-0.0451096981856233,18.9059765259588
-0.0491581054041643,18.9062618082584
-0.0527025684218418,18.9065668448451
-0.0556556221619581,18.9068853684888
-0.0580928881710707,18.9072247322281
-0.0600277908299848,18.9075877957152
-0.0614744585044429,18.9079779971144
-0.0624468025663393,18.9083995760458
-0.0629570071818612,18.9088578010426
-0.0630139375959795,18.9093593070569
-0.0626212103799759,18.9099126135775
-0.0617725692239442,18.910530138096
-0.0604478579459239,18.9112282382731
-0.0586053128021585,18.9120306585721
-0.0561601457593466,18.912976431029
-0.0529147620986994,18.9141448670979
-0.0488571046928923,18.9155550990444
-0.0449167912968457,18.9169155396362
-0.0411500294305422,18.9182334064133
-0.037584917717874,18.9195117821403
-0.034235702204482,18.9207519266639
-0.031108825617895,18.9219541745416
-0.0282055878514959,18.9231184048024
-0.0255235372882588,18.9242442880229
-0.0230573514399547,18.9253314147287
-0.0207994956441048,18.9263793579473
-0.0187407716785003,18.9273876972181
-0.0168707980673988,18.9283560186354
-0.0151784356501042,18.9292838988994
-0.0136029091694463,18.9302004067908
-0.0120862607651639,18.9311403210166
-0.0106331218660097,18.9321051347202
-0.00924745070355022,18.9330969305546
-0.00793301509283172,18.9341181492588
-0.0066933391308486,18.935171680535
-0.00553165168470543,18.9362609794539
-0.00445083259112038,18.937390222917
-0.00345335653699922,18.9385645247953
-0.0025412341857463,18.9397902397865
-0.00171594945327935,18.9410754064288
-0.000978390700357226,18.9424304181944
-0.000328771467503037,18.943869089077
0.000233467972073949,18.9454104492684
0.000698637400153888,18.9470372201793
0.00106286423277726,18.948709661602
0.00134261780760991,18.95044607332
0.00155253446597662,18.9522673939916
0.00170634341307946,18.9542015362634
0.00181727813681178,18.9562879369934
0.00189869094050152,18.9585870140717
0.00196521792962662,18.9612030790992
0.00203600270548073,18.9643577400052
0.00213074729048804,18.9680929587287
0.0022521258782704,18.971948512778
0.00239462129374345,18.9757318117444
0.00255498826693894,18.9795086530829
0.00272962168483834,18.9833278840307
0.00291591254929676,18.9872277150631
0.00311266178784164,18.991241201901
0.00332005011267929,18.9953992958625
0.00353945345332077,18.9997327967101
0.00377323423199284,19.00427378375
0.00402460693179717,19.0090570028716
0.00429767381513621,19.0141212918707
0.00459772991733482,19.0195109106089
0.00492111908076277,19.0250919674073
0.00525034389479124,19.0305068996632
0.00559328201803369,19.0358482054975
0.00595058935854364,19.0410793071049
0.00632665122254233,19.0462205954411
0.00672528712983431,19.0512792734844
0.00715082938521315,19.0562650077279
0.00760774971605668,19.0611836875307
0.00810084946923165,19.0660389871908
0.00863533547081524,19.0708323299275
0.00921694693547163,19.0755634122556
0.00985206172320419,19.080230541216
0.0105478153939562,19.0848311651503
0.0113294578389255,19.0894594004931
0.0122114437782935,19.0941080235364
0.0132154604311555,19.0987913878721
0.0143717628211298,19.1035386651893
0.015729514210925,19.1084199847833
0.0173890663496117,19.1136196435128
0.0196851922393404,19.119847633016
0.0214089640950315,19.1240510607976
0.0232219318502832,19.1282544885793
0.0247741485265907,19.1318488500567
0.0260756850924551,19.1350297430905
0.0271672597924434,19.1380247033404
0.0280306684798263,19.1409170364165
0.0286249713987867,19.1436834669891
0.028949865832371,19.1464415215188
0.0289767031778379,19.1493406527134
0.0286016153851482,19.1526920982719
0.0278317758436573,19.156012825758
0.0267271352759617,19.1593335532442
0.0256371511177238,19.1620294133002
0.0245663968377069,19.1644139044308
0.0234960556212566,19.1666540084022
0.0224242379630307,19.1688167288024
0.0213537548578222,19.1709366607918
0.0202882919210961,19.1730356011269
0.019231527189834,19.1751289725476
0.0181869110544349,19.1772285667103
0.0171576121579906,19.1793439530308
0.0161465124142494,19.1814832918396
0.0151562182742875,19.183653843336
0.0141890719550372,19.1858623195828
0.0132471666764537,19.1881151332834
0.0123323579621039,19.190418597454
0.0114462716658553,19.1927791001009
0.0105903207754527,19.1952032382708
0.00976570760586757,19.1976979847872
0.00896856270660818,19.200287261999
0.00818197424271393,19.2030480602182
0.00740972753716529,19.2059999717843
0.00665560586969113,19.2091665307384
0.00592364180761352,19.2125749732241
0.00521809208135138,19.2162569376901
0.00454338786277779,19.2202493431775
0.0039040503061847,19.2245955448682
0.00330453642573681,19.2293471646844
0.0027489865535221,19.2345674546335
0.00224090858808167,19.2403374346136
0.00178291363445504,19.2467662335317
0.00139201498416178,19.2536975711062
0.00107474541218977,19.261174301356
0.000820674427357588,19.2696006006078
0.000647220149200995,19.2774758861207
0.000495515072695324,19.2867926355499
0.000380833165112349,19.2967926355499
0.000302316554467648,19.3067926355499
0.000249515433277109,19.3167926355499
0.000214802425311749,19.3267926355499
0.00019272605695309,19.3367926355499
0.00017951043584906,19.3467926355499
0.000172599450289642,19.3567926355499
0.000170282468942728,19.3667926355499
0.00017142340463475,19.3767926355499
0.000175280578975355,19.3867926355499
0.00018139125527907,19.3967926355499
0.000189497780304258,19.4067926355499
0.000199500394472982,19.4167926355499
0.000211428476799573,19.4267926355499
0.000225426020955978,19.4367926355499
0.000241749398273756,19.4467926355499
0.000260777041428732,19.4567926355499
0.000283032288851415,19.4667926355499
0.000309222718313405,19.4767926355499
0.000340302365066388,19.4867926355499
0.000377568116613718,19.4967926355499
0.000422809934576586,19.5067926355499
0.00047726916664704,19.5165823836584
0.000539568369427426,19.5256352629228
0.00061060147533764,19.5339873767322
0.000691541912882404,19.5416929203938
0.000783749321460705,19.5488029193305
0.000888770802227914,19.5553647187661
0.00100835868606173,19.5614222543886
0.00114449614469611,19.567016315316
0.00129942803702124,19.5721847757195
0.0014756962099364,19.5769628078253
0.00167618056406116,19.5813830859862
0.00190414797393368,19.5854759835243
0.00216331123380245,19.589269759833
0.00245790069744642,19.5927907432697
0.00279275498313846,19.5960635190956
0.00317343617266302,19.5991111266762
0.00360638150850569,19.6019552702435
0.0040991081783377,19.6046165591879
0.00466049945885274,19.607114799975
0.00530122150939708,19.609469373877
0.00602433953326448,19.6116719409224
0.00682417231135419,19.6137052002929
0.00771178680766898,19.6156043917065
0.00870410331678575,19.6174054877825
0.00982850181764192,19.6191489176537
0.0111365896100843,19.6208919435156
0.0128096259682179,19.6228103367262
0.0146908980923748,19.6246907105087
0.0162860458749574,19.6261403013148
0.0179677795758199,19.6275898921208
0.0194704069294738,19.6288663770451
0.0208099689423449,19.6300346828938
0.0220094289706127,19.6311555797003
0.0230654666175415,19.6322703241533
0.0239575950888265,19.6334185184408
0.0246454566726325,19.6346544551442
0.0250457160353204,19.6360873418396
0.024859673659152,19.6381648175672
0.024190398926523,19.6397083777346
0.0231644208702066,19.641251937902
0.0219920080340066,19.642667823333
0.0206783125205113,19.6440769461685
0.0192317113974475,19.645532411153
0.017661330508741,19.6470715980585
0.0166798838531986,19.6480334038515
0.0157229405310413,19.6489952096444
0.0130789600291077,19.6519055615997
0.0107293481288106,19.6549139393316
0.00890720170152487,19.6576455717364
0.00745638292622422,19.6601760603623
0.00621861191304886,19.6626819408505
0.00513329628226789,19.6652415527482
0.00417820248341159,19.6678805983017
0.00333655278986599,19.6706222276891
0.00260533082776253,19.6734448356068
0.00202210879105351,19.6761022741077
0.00154687469922205,19.6786290123596
0.00114950702333107,19.6810704869895
0.00080891508811121,19.6834703777517
0.000510509096849779,19.6858676090339
0.000242935315402385,19.6883076255575
-7.63894302382155e-06,19.6908970410488
-0.000277992544628633,19.6940913724523
-0.000429202662260084,19.6960904552412
-0.000568903157788838,19.69808953803
-0.000686711484137974,19.699897534967
-0.000790462749761351,19.7015872839878
-0.000888616818657665,19.7032727193218
-0.000987584220457363,19.7050591341979
-0.00109575734386014,19.7071119676184
-0.00123693909030022,19.7099461369386
-0.00142408932258272,19.7139608746532
-0.00156945984330558,19.7172713320681
-0.0017005068328588,19.7203928785775
-0.0018425784884161,19.7239268624196
-0.00201259051065694,19.728400210197
-0.0022072290214372,19.7341005262465
-0.00233727706382154,19.7389884448369
-0.0024011824335311,19.7433964236392
-0.00238707146699974,19.7473376818318
-0.00228697387503512,19.7508890617881
-0.00209434995853022,19.7541284317995
-0.00180257334364214,19.7571267122295
-0.0014042960253791,19.7599397796185
-0.000889474201503291,19.7626197370964
-0.000237860669530839,19.7652388746649
0.000596409387245966,19.7679134026159
0.00175875368611003,19.7709439968229
0.00323089618136055,19.7741449588631
0.00505496146128857,19.7775510643649
0.00634198772574309,19.7796924939844
0.00775949918204597,19.781833923604
0.00916285176995958,19.7837393952652
0.0106314464620524,19.7855187645283
0.0121658011143532,19.7871642514554
0.0138427280453361,19.7887447855886
0.0156781996770215,19.7902548781659
0.0177164921818962,19.7917114724325
0.0199791334760112,19.7931107310128
0.0225045968219906,19.7944591772729
0.025323460705994,19.7957567530169
0.0284727743870865,19.7970056717658
0.0319970692881129,19.7982094240168
0.0359444927689933,19.7993706738846
0.0403684772830714,19.800491831246
0.0453372336851322,19.801576956189
0.0509282358056543,19.8026295077242
0.0572334196649993,19.803653096435
0.0643632708932562,19.8046515650439
0.0724514642535047,19.8056289763211
0.0816641624082827,19.8065899626065
0.0922102419838159,19.8075397718688
0.104357868706409,19.8084845545192
0.118462002291042,19.8094319182032
0.135010753023181,19.8103918183965
0.154713217923051,19.8113783339433
0.177653626376603,19.8123719366078
0.204296847186156,19.8133758077725
0.235423428116917,19.8144036527236
0.272150571183367,19.8154767412663
0.315545301615485,19.8166153818257
0.358297248461448,19.8176557334529
0.393583814593661,19.818490239781
0.423906790591584,19.8192181854402
0.450416739498579,19.819891574995
0.473363143614549,19.8205394066347
0.492542157411228,19.821183953794
0.507335179672474,19.8218478952784
0.516487304542753,19.8225614367041
0.517346321558327,19.8233715599582
0.507231172552985,19.8241945024661
0.484969454907153,19.8250469984637
0.448978963291034,19.8259418101159
0.397437359111846,19.8268879724866
0.352460896906902,19.8275675744532
0.301730434141814,19.8282471764199
0.256545047500657,19.8288084755581
0.218116448192816,19.8292701788312
0.184526763720807,19.8296720330489
0.154518916338165,19.8300371821514
0.127359113551117,19.8303792754582
0.102561636817827,19.8307077393589
0.0797487873512197,19.8310304548968
0.0585569106996548,19.8313558625892
0.0384931218506803,19.8316967548168
0.0183599913771608,19.8320861884615
0.00977711616210509,19.8322725566299
0.00185869723650062,19.8324589247983
-0.00657344852767745,19.8326765394365
-0.0132151797953282,19.8328655474388
-0.0191152121846262,19.8330499646003
-0.0250849123183701,19.8332566392597
-0.030868302050555,19.8334818176432
-0.036298041440925,19.8337230827199
-0.041281132100817,19.8339795214309
-0.0457689128341276,19.8342512097122
-0.0497392792367275,19.8345389211878
-0.0533391387056302,19.8348602726543
-0.0561924905153236,19.835182830162
-0.0585305063261925,19.8355265491555
-0.0603687856331645,19.8358945838464
-0.0617215618523467,19.8362905183734
-0.0626025312637492,19.8367187741554
-0.063023361752995,19.8371848577265
-0.0629920577106697,19.837695726955
-0.0625109207454942,19.8382603581222
-0.0615710006312079,19.8388921807679
-0.0601488473215591,19.8396085044028
-0.0581965648953081,19.8404352386358
-0.0556156373865714,19.8414163044851
-0.0521634104325929,19.8426470810746
-0.0481226395084713,19.8440464801434
-0.0442110785171482,19.8453986572089
-0.040479825858253,19.8467090573947
-0.0369536653937916,19.8479803131363
-0.0336450838774617,19.8492134581697
-0.0305594234065114,19.8504087137368
-0.0276972058002102,19.8515659048164
-0.0250553914317427,19.8526846790562
-0.0226282040261903,19.8537646198287
-0.0204077630843155,19.8548052999897
-0.0183846178022956,19.8558063005512
-0.0165482165707672,19.8567672072677
-0.0148873229052793,19.8576875922598
-0.0133222127349634,19.8586083176218
-0.0118169308607743,19.8595526544181
-0.0103758966214161,19.8605222494588
-0.0090030376566633,19.8615192449892
-0.00770208086815253,19.8625461567454
-0.00647650019808458,19.8636059683818
-0.00532946468252805,19.864702254176
-0.00426378424025905,19.8658393445984
-0.00328185310516496,19.8670225550236
-0.00238559036112838,19.868258510511
-0.00157637632847775,19.8695556224015
-0.000854982275238225,19.8709248159992
-0.000221488509618962,19.8723806974407
0.000324819101359335,19.873943545123
0.000770067233702794,19.8755773243303
0.00111760939814559,19.8772601611161
0.00138344348149084,19.8790104118029
0.00158201391792071,19.8808500746583
0.00172692276267048,19.8828087409408
0.00183136878948871,19.8849287654709
0.00190882249404617,19.88727622916
0.00197438414855563,19.8899685774304
0.00204889370606531,19.8932700459632
0.00214748005122296,19.8970171660486
0.00227265642451543,19.9008563702002
0.00241847817751726,19.9046349475507
0.00258143091041059,19.908415245727
0.00275802283218278,19.9122440262716
0.00294588859997323,19.9161584826665
0.00314408621581186,19.9201912025286
0.00335302315049959,19.9243730133353
0.0035742591378274,19.9287348189812
0.00381030281585422,19.9333089986592
0.00406449881684579,19.9381308110812
0.00434109876777248,19.9432397983752
0.00464561941801461,19.9486811393685
0.00496932498531452,19.9542311614882
0.00530058028539568,19.9596391113401
0.00564534194138902,19.9649628362176
0.00600516832202524,19.9701803931075
0.00638427204597046,19.9753087954217
0.00678658647963989,19.9803562662172
0.00721645095281262,19.9853317822011
0.00767838346005931,19.9902409408177
0.00817723707679726,19.9950870484521
0.00873348441399209,20
