ecg,time
0.0109372011951203,15.0005041594382
0.00907158111675255,15.0032561884156
0.00758865736872224,15.0058026213277
0.00633348784360253,15.0083045057674
0.00523368397047799,15.0108568927428
0.00426605191265743,15.0134863027806
0.00341342229825704,15.0162158915031
0.00266168961150416,15.0190695276988
0.00205898252993022,15.0217772784428
0.00157039502187744,15.0243462362534
0.00116373557052496,15.026823187456
0.000816714367996912,15.0292520122204
0.000514454872596049,15.0316672845573
0.000246295751017366,15.0341005038134
8.52158346283982e-07,15.036619776219
-0.000243705045893261,15.0394639861519
-0.00041816886688503,15.0417309803583
-0.000577599076891486,15.0439979745648
-0.000703235203654437,15.0459268762437
-0.000809040075243313,15.0476539232595
-0.000906603841548141,15.049332052621
-0.00100267542429368,15.0510657573556
-0.00110411377149288,15.0529835277962
-0.00122459590901104,15.055375219397
-0.00143947349058228,15.0599281279453
-0.0016220298729491,15.064062801948
-0.00176964401482033,15.0675727117939
-0.00192110482172353,15.0713322652129
-0.00210332105394233,15.0761255076911
-0.002290329638065,15.0816660642093
-0.00241292323627615,15.0864759500314
-0.00246570432320617,15.0907976759456
-0.00243757441948075,15.0946675654366
-0.00232097562852933,15.0981631088204
-0.00210914358143295,15.1013695077481
-0.00179542794264717,15.1043499782835
-0.0013736391066272,15.1071491009213
-0.000833873479769951,15.1098198998733
-0.000151958342840064,15.1124476708442
0.000730284080130737,15.1151751277508
0.00193988780069903,15.1182365540699
0.00347079177546192,15.1214931182288
0.00534713083920658,15.1249400455001
0.00659609836661781,15.1269903773864
0.00796899163618785,15.1290407092727
0.00939513230618509,15.1309552543334
0.0108468790282946,15.1326919843461
0.0123972508387516,15.1343325452372
0.0140968150599245,15.1359107074457
0.0159537177200171,15.1374140147284
0.0180180735002045,15.1388645870815
0.020310079415533,15.1402576057685
0.022869243934613,15.1416000905939
0.025728008581411,15.1428926788993
0.0289207641907948,15.144136193598
0.0324942476917811,15.1453348920116
0.0364975245381277,15.146491497193
0.0409869315134825,15.1476088912149
0.0460285835569537,15.1486902751614
0.05170312458018,15.149739536574
0.0581047231924836,15.1507603348996
0.0653466710706822,15.151756557655
0.0735670508551028,15.1527324112197
0.0829359478060623,15.1536924798383
0.0936695867772771,15.1546421877438
0.106046244131979,15.1555878801344
0.120436252338205,15.156537470507
0.137352904131123,15.1575014392043
0.157549636916531,15.1584947970342
0.180942403640612,15.1594904694755
0.208132295675318,15.1604982794275
0.239938183269732,15.1615328398574
0.277555200692842,15.1626174278934
0.321423237601363,15.1637574396573
0.36270096348172,15.1647590654973
0.397083242035905,15.1655753724843
0.426788444261805,15.166295300825
0.452759832808713,15.1669653756396
0.475165731440119,15.1676129707613
0.49374815251895,15.168260016883
0.507823379717146,15.1689296273708
0.516018146641342,15.1696536308286
0.515520454040903,15.1704653912296
0.503944143061623,15.1712919729257
0.480065334501709,15.1721496181095
0.442268977747856,15.1730504692839
0.388730153758027,15.174003381085
0.344559624425184,15.1746571216061
0.295230264391591,15.1753108621272
0.251215405795849,15.1758555020951
0.213560859224112,15.1763080497615
0.180519134934754,15.1767045923455
0.150936375751561,15.1770665022061
0.124125119647358,15.177406676202
0.0996209133011591,15.1777342274268
0.0770542707174124,15.1780569805584
0.0560573234053516,15.1783836229796
0.0361033567028035,15.1787280112406
0.0157781394156194,15.1791293772752
0.00818958534705064,15.179297688489
0.00113871040681966,15.1794659997027
-0.00671919881139313,15.1796702872708
-0.0133073665401933,15.1798585253253
-0.0192080232581478,15.1800437036563
-0.0251712906640495,15.1802510645706
-0.0309431136452345,15.1804768638935
-0.0363585149182484,15.1807187252753
-0.0413259275134402,15.1809757630813
-0.0457975419930345,15.1812480723824
-0.0497517658873082,15.1815364417243
-0.0533892199839506,15.1818641153997
-0.0562180634550316,15.1821878841719
-0.0585316990166538,15.1825328652135
-0.0603464915479505,15.1829023132966
-0.0616766709866232,15.1832998464384
-0.0625358583675084,15.1837299275322
-0.062935582716478,15.1841981170146
-0.062883638035308,15.1847114453446
-0.0623819788320673,15.185279026738
-0.0614210906470177,15.1859144577153
-0.0599767983132327,15.1866352886172
-0.0579998608949057,15.1874679205638
-0.0553886760100466,15.188457410129
-0.05188973808362,15.1897030939192
-0.0478568353824624,15.1910997520559
-0.0439561006715496,15.1924496118462
-0.0402372782037442,15.1937578156636
-0.0367243681119755,15.1950269089815
-0.0334294152940786,15.1962578840255
-0.0303574674977798,15.1974509433026
-0.0275088277104003,15.198605904792
-0.0248802853357592,15.1997224150407
-0.0224659295860226,15.2008000590012
-0.0202577766344291,15.2018384119095
-0.0182463003093108,15.2028370567806
-0.0164208988947392,15.2037955802
-0.01477030835917,15.2047135533576
-0.0132087899421373,15.2056356488305
-0.011707403038931,15.2065814226825
-0.0102705003159521,15.2075525712535
-0.00890199964903798,15.2085512564902
-0.00760561485461378,15.2095800188935
-0.00638480381348549,15.2106418731512
-0.00524271640670062,15.2117404329522
-0.00418214019473732,15.2128800796153
-0.00320544372640234,15.2140661953746
-0.00231451690789457,15.2153054952425
-0.00151070713156123,15.2166065150325
-0.000794748544357372,15.2179803584201
-0.000166679330600517,15.219441898778
0.000374263347143346,15.2210118389045
0.000812941104981218,15.2226479974926
0.00115494374610758,15.2243343196641
0.00141612481562321,15.2260892012322
0.00161086794460319,15.2279350009536
0.00175273599467802,15.229901887065
0.00185491959830833,15.2320332281888
0.00193093409456067,15.234397105737
0.00199604976751342,15.2371157388933
0.00207175613731946,15.240469818768
0.00217152462758459,15.2442232542897
0.00229727350491668,15.2480428319961
0.0024438896364854,15.251817254472
0.00260782224606024,15.2556043961875
0.00278559353036959,15.2594484048126
0.00297487633132269,15.2633852073085
0.0031747802117337,15.2674468372326
0.00338577633432116,15.2716640141155
0.00360950015397582,15.2760678536164
0.00384855343149741,15.2806912345043
0.00410640979623775,15.2855702290753
0.00438751862254099,15.2907454566463
0.0046977231059047,15.296263494123
0.00502117093511924,15.3017754420791
0.00535444080162841,15.3071776564937
0.0057008957347807,15.3124818173594
0.0060632830767391,15.317684917774
0.00644557155943872,15.3227995071507
0.00685182940524135,15.3278350955756
0.00728639014936294,15.3327997877658
0.00775381451642543,15.3376988099062
0.00825900443151018,15.3425350157313
0.0088073116897757,15.3473092267734
0.00940465445095891,15.3520206409871
0.0100576239045186,15.3566672036263
0.0107777828974147,15.3612715859795
0.0115885372812767,15.3659047387523
0.0125055360710829,15.3705607124006
0.0135526361597039,15.3752575958588
0.0147643001352844,15.3800332980036
0.0161997677437287,15.3849801584572
0.0179933551277518,15.3903581935581
0.0204659212543757,15.3967911576723
0.0220824870110761,15.4006272174623
0.0237503372371782,15.4044632772522
0.0252120250013923,15.4078801958837
0.0264474129500633,15.4109822115429
0.0274760193633067,15.4139487422352
0.0282560987112912,15.4167873689903
0.028769171746236,15.4195358543072
0.0290080335277509,15.4223161483511
0.0289296918592231,15.4253026723145
0.0283699291819664,15.4289569106113
0.0275613605285532,15.4319722497474
0.026493678078479,15.4349875888836
0.0254174318726152,15.4375720587045
0.024348227394199,15.4399125248923
0.0232776097379959,15.4421295474567
0.0222058832672678,15.4442786150889
0.021136242352997,15.446390467539
0.0200724114184409,15.4484851157418
0.0190180287027562,15.4505769957877
0.0179764838831995,15.4526773039417
0.0169508817122354,15.4547952304832
0.0159440411814628,15.4569386903711
0.0149585080829844,15.4591147874077
0.013996568249037,15.4613301366606
0.0130602588825532,15.463591106765
0.0121513848312714,15.4659039988603
0.0112715230059102,15.4682752242972
0.010422035944702,15.4707114461923
0.00960408466431781,15.473219716658
0.00880829181887174,15.4758430396951
0.00802383258544406,15.4786417818748
0.00725447549184879,15.4816363977262
0.00650406108670105,15.4848511799176
0.00577667840419475,15.4883142598685
0.0050766301442891,15.4920583683142
0.00440838417793166,15.4961217291582
0.00377647370172157,15.5005493336462
0.0031853240274662,15.5053950106864
0.0026389829431865,15.5107252473392
0.00214079221017416,15.516626228888
0.00169474334108038,15.5231891301864
0.00131784672834867,15.5302261930875
0.00101242671899332,15.5379878961012
0.000813594715700841,15.5449421664284
0.000625676710423922,15.553671565816
0.000483307157026284,15.5627677722365
0.000372694651111679,15.5727677722365
0.000297159359002407,15.5827677722365
0.000246518945903566,15.5927677722365
0.000213354200118132,15.6027677722365
0.000192392465286163,15.6127677722365
0.0001799996082416,15.6227677722365
0.000173721935050934,15.6327677722365
0.000171919062949154,15.6427677722365
0.000173503094176282,15.6527677722365
0.00017776690304179,15.6627677722365
0.00018427429586162,15.6727677722365
0.000192789685718289,15.6827677722365
0.000203233310592391,15.6927677722365
0.000215654437035803,15.7027677722365
0.00023021873210907,15.7127677722365
0.000247208122574019,15.7227677722365
0.000267033058134282,15.7327677722365
0.000290258822648778,15.7427677722365
0.000317649852925165,15.7527677722365
0.000350239494332656,15.7627677722365
0.000389438254763494,15.7727677722365
0.000437203367606601,15.7827677722365
0.000493669802437525,15.7923593922477
0.000558193896874544,15.8012216954805
0.000631750189524425,15.8093978162702
0.000715562902848653,15.8169411791693
0.000811041475441009,15.8239018190768
0.000919786718438211,15.830326161483
0.00104361116592616,15.83625729428
0.00118456607919272,15.8417352223303
0.00134497365383138,15.8467970923734
0.00152746339156649,15.8514774037093
0.00173501553435708,15.8558082103295
0.0019710119641564,15.8598193155255
0.00223929878340205,15.8635384568882
0.00254426214798669,15.8669914900961
0.00289092504509133,15.8702025792951
0.00328507136478489,15.8731943973398
0.00373340969182369,15.8759883429578
0.00424379725328951,15.8786047930159
0.00482555581291598,15.8810634139759
0.00548993711692465,15.8833835738605
0.00623302729440044,15.8855378220013
0.00705541592017026,15.887532290966
0.00796956350941025,15.8894024033746
0.00899458253500395,15.8911847417227
0.010162499022157,15.8929226449004
0.0115374043364632,15.8946831424878
0.0133829166246739,15.8967144613284
0.015061513060972,15.8983439330389
0.0168871366409515,15.8999734047495
0.0185354959176433,15.9013820137288
0.0199727449137509,15.9026109716795
0.0212579809622621,15.9037567337311
0.0224042318717242,15.9048715668409
0.0234013653452794,15.9059944368159
0.0242224782995815,15.9071681229761
0.0248159557559047,15.9084596266151
0.0250622802440207,15.9100315757312
0.0247044203521736,15.9118678892815
0.0237497652818455,15.9137042028318
0.0226420175958263,15.9151920659614
0.0214043140193463,15.9165988934332
0.0200304259234466,15.9180243305613
0.0185283920275138,15.9195129414027
0.0169055240644234,15.921102079235
0.0151944174695015,15.9228377975834
0.013754207987171,15.9244140048344
0.011385332864507,15.9273162441893
0.00943183012196845,15.930106605354
0.00788020587296344,15.9326884034666
0.00658792412736866,15.9351843847003
0.00545728249048337,15.9377239989701
0.00446296487402419,15.9403356450016
0.00358696122826831,15.9430425757321
0.002814629904116,15.9458683766338
0.00218503115743409,15.9485946634445
0.0016763214508463,15.9511766015788
0.00125479493416842,15.9536581430491
0.000896415893554742,15.9560848953787
0.000584720364703778,15.958496898589
0.000307893711525553,15.9609325689515
5.40422527105513e-05,15.9634639178684
-0.000199513582781076,15.9663368260299
-0.000377445292291789,15.9685947362017
-0.000539804194340442,15.9708526463735
-0.000668142031424985,15.9727829819224
-0.000776262885579351,15.9745150248123
-0.000875894857430177,15.9761998239255
-0.000973904041789439,15.9779417860677
-0.00107730611933857,15.9798708859281
-0.00120015316540026,15.9822828798552
-0.00141736139101474,15.9868498267981
-0.00159993871173947,15.9909676593479
-0.0017473136583455,15.9944664713553
-0.00189855068389777,15.9982234966298
-0.00207986405446925,16.0030087726972
-0.00226551993718241,16.0085419064214
-0.00238701848855496,16.0133497831721
-0.00243907585188357,16.0176739745121
-0.00241054855313989,16.0215475795207
-0.00229388581893393,16.025044012807
-0.00208250023279543,16.0282469140798
-0.00176968256826233,16.0312224524654
-0.00134863798157679,16.0340193961507
-0.000808874731560932,16.0366916369219
-0.000125747642176031,16.039324183771
0.000759370516955942,16.0420593068098
0.00197204276191504,16.0451261120065
0.00350563308183271,16.0483847017033
0.00538055338474655,16.051822414916
0.00662885184788653,16.0538656798377
0.00800214288821846,16.0559089447593
0.00942952590906503,16.0578166543473
0.0108891838301034,16.0595540408648
0.0124457804871884,16.0611919778525
0.0141531390230313,16.0627680380042
0.0160187996366601,16.0642692479098
0.0180928420245577,16.0657176146009
0.0203958102448114,16.0671085835447
0.0229670209015456,16.0684489829418
0.0258393668840538,16.0697396421161
0.0290471565562655,16.070981284418
0.0326375103468293,16.0721782349217
0.0366598244352586,16.0733332342511
0.0411709698607166,16.0744492089975
0.0462372920842843,16.0755293053175
0.0519401159875138,16.0765774405819
0.0583743510691386,16.0775972834982
0.0656542370220768,16.0785927339085
0.0739191171087069,16.0795680181461
0.0833407425307914,16.0805277459493
0.0941376938912414,16.0814773829093
0.106591656937857,16.0824233375304
0.121078163895824,16.0833736243352
0.138118996170729,16.0843388952959
0.158449203190101,16.0853329510454
0.181988943826823,16.0863292396086
0.209356754371275,16.0873382723149
0.241384036798798,16.08837495292
0.279292396821794,16.0894632396368
0.323321870567541,16.0906038618506
0.36417081810697,16.0915940927067
0.398276694805662,16.0924047643656
0.427785294426228,16.0931220765758
0.45358200094234,16.0937910206381
0.475810534697743,16.0944384998232
0.494195095166821,16.095086358915
0.5080293444267,16.09575788693
0.515897303342642,16.0964855236902
0.514940560508084,16.0972978105618
0.502866799938531,16.0981256032714
0.478434721807741,16.0989849793726
0.440018320439827,16.0998878807491
0.385791190830563,16.1008431360332
0.341885967747322,16.1014884335391
0.293011999963345,16.1021337310449
0.249379398082384,16.1026728699997
0.211980243209935,16.1031223470086
0.179121134935725,16.1035170822987
0.149680912269941,16.1038778790844
0.12298690731867,16.1042173899387
0.0985814373775404,16.1045446272779
0.076097430649938,16.1048674035086
0.0551649274601827,16.105194506206
0.0352434475417918,16.1055402154278
0.0148256502182387,16.1059464005679
0.00166418636359008,16.1062496409076
-0.00566576693996685,16.1064384304154
-0.0123632507393234,16.1066272199232
-0.0182123391314526,16.106808028997
-0.0241823461067189,16.1070119576109
-0.0299990911871983,16.1072349351222
-0.0354809896697786,16.1074742558247
-0.0405266251661863,16.1077288250397
-0.0450823555855053,16.1079985986185
-0.0491230609222865,16.1082842617159
-0.0526914769667261,16.1085927880966
-0.0556322391241068,16.1089119815075
-0.0580573198325239,16.1092520330685
-0.0599805845072762,16.1096158544384
-0.0614161563865681,16.1100068984131
-0.0623779086262941,16.1104294220577
-0.0628779607274071,16.1108887161291
-0.0629250857226649,16.1113914448589
-0.0625227744928682,16.1119461678814
-0.0616645242346595,16.1125653976767
-0.0603299125446221,16.1132655655841
-0.05847671407306,16.1140705904233
-0.0560191558934997,16.11501988187
-0.0527565639095725,16.1161939146461
-0.0487036810942873,16.1176027321726
-0.0447695307872598,16.1189619925192
-0.041009777058965,16.1202787097554
-0.0374521103141651,16.121555932051
-0.0341105462736427,16.122794904111
-0.0309913718394247,16.123995954828
-0.0280957685403931,16.125158962322
-0.0254211903197222,16.1262835985191
-0.0229622390087933,16.1273694561805
-0.0207113207780792,16.1284161106475
-0.0186591934289696,16.1294231433391
-0.0167954454820389,16.1303901414389
-0.0151089204280015,16.131316681673
-0.0135353998244949,16.132233959413
-0.0120209299229411,16.1331746794192
-0.0105701037102823,16.1341403627335
-0.00918687423296317,16.1351331027622
-0.0078750022048984,16.1361553537306
-0.00663800291613495,16.1372100221868
-0.00547909464960226,16.1383005845239
-0.00440114481520316,16.139431245051
-0.00340661375591036,16.1406071535236
-0.00249749577517793,16.1418347126747
-0.00167525626210869,16.1431220271058
-0.00094076263108107,16.1444795842416
-0.000294204603647162,16.1459213374748
0.000265005096836124,16.1474665355487
0.000726398199989292,16.1490945457802
0.00108744598468872,16.1507688341767
0.00136452970037876,16.1525077041512
0.00157225090986428,16.1543322802659
0.0017243158972856,16.1562707675738
0.00183395220538061,16.1583631076686
0.00191453381652848,16.1606706877371
0.00198077904001096,16.1633000275948
0.00205211725974408,16.1664796386241
0.00214751625596611,16.1702162006707
0.00226868447563568,16.1740411636744
0.00241151211515337,16.1778169558024
0.00257277512289435,16.1816024027693
0.0027488416936453,16.1854423657775
0.00293706388727123,16.1893731279747
0.00313621775175079,16.1934268881441
0.00334648937563487,16.1976343924831
0.00356929576111833,16.2020267036556
0.00380708076848575,16.2066365692663
0.00406319944518059,16.2114998491625
0.00434198971950243,16.2166568743751
0.00464914993798286,16.2221538532034
0.00497172303795396,16.2276911917071
0.00530294785324443,16.2331043648298
0.00564725492288396,16.2384239593471
0.00600692559692442,16.2436396441833
0.00638601587658895,16.248765989422
0.00678851829900457,16.253812180556
0.0072187335766704,16.2587867812043
0.00768116161094074,16.2636952480394
0.00818063450294715,16.2685406940098
0.00872241943868587,16.2733241578035
0.00931233780085729,16.2780450319436
0.00995687000590157,16.2827014014116
0.0106649537001151,16.2873009700884
0.0114617941934437,16.291931649515
0.0123619010251943,16.2965832535211
0.0133881331292737,16.3012725043928
0.0145727835798164,16.3060326931149
0.0159698369889443,16.3109445073901
0.0176952706545326,16.3162269442668
0.0201645742282501,16.3227630426432
0.0218190514496366,16.3267260402195
0.0235387257562953,16.3306890377957
0.0250362118876559,16.3341716681314
0.0262991897462045,16.3373032219771
0.0273545737850575,16.3402792574414
0.0281697807247173,16.34313797899
0.0287173468558801,16.345891744073
0.028993075563792,16.3486600740209
0.0289605322225366,16.3516052608824
0.0284857018286995,16.35511274905
0.027695236988552,16.3582469112148
0.0266160958863957,16.3613810733796
0.0255349960244057,16.3640133471139
0.0244653590246026,16.3663736170872
0.0233949580693439,16.3686008752871
0.0223232116639406,16.3707556760189
0.0212531508662422,16.3728705552918
0.0201884859463943,16.3749663716066
0.0191328761676405,16.3770580316654
0.0180897414357462,16.379157015992
0.0170622179353191,16.3812726954794
0.0160531552019286,16.3834131019472
0.0150651285451103,16.385585412981
0.0141004509619797,16.38779628952
0.0131611864209107,16.3900521213812
0.0122491647890796,16.3923592138562
0.0113659863005754,16.3947239682347
0.0105130377133088,16.3971530176683
0.00969150039978654,16.399653377849
0.00889468762252219,16.4022586385486
0.00810879427951578,16.4050373049805
0.00733759690694278,16.408009398661
0.00658490809634696,16.4111988303743
0.00585478991254862,16.414633283233
0.00515152397106434,16.4183449447247
0.00447956346457851,16.422371389079
0.00384344054654135,16.4267567951682
0.0032476041821163,16.4315538840933
0.00269615804341474,16.4368275059203
0.00219253701627732,16.4426612197666
0.00173926615368476,16.4491680766834
0.00135519890817586,16.4561498067487
0.00104703643634847,16.4636868297468
0.000830465757740774,16.4710050627658
0.000643385134806146,16.4794631959574
0.000496110072929029,16.4885648899331
0.000381691547148504,16.4985648899331
0.000303463369818308,16.5085648899331
0.000250931481083944,16.5185648899331
0.000216447540767889,16.5285648899331
0.000194564692627233,16.5385648899331
0.000181521084267705,16.5485648899331
0.000174773429698166,16.5585648899331
0.000172619960140055,16.5685648899331
0.000173930575469704,16.5785648899331
0.000177968425726436,16.5885648899331
0.000184275618473468,16.5985648899331
0.000192600012373467,16.6085648899331
0.000202848474573942,16.6185648899331
0.000215058616778089,16.6285648899331
0.000229384944509409,16.6385648899331
0.000246097574915136,16.6485648899331
0.000265593290299918,16.6585648899331
0.000288420390786566,16.6685648899331
0.000315321051847602,16.6785648899331
0.00034729822270287,16.6885648899331
0.000385719471696741,16.6985648899331
0.000432479432137528,16.7085648899331
0.000488066602675103,16.7182178377425
0.000551608317386572,16.7271396511847
0.000624050640916903,16.7353711849516
0.000706597821867643,16.7429659935473
0.000800638799648329,16.7499743278107
0.000907751816632947,16.7564428227835
0.00102972390410226,16.7624147660637
0.00116857732397293,16.7679303525034
0.00132660117790845,16.7730269093133
0.00150638723029178,16.7777391058675
0.00171087232069337,16.7820991548998
0.00194338827261496,16.7861370064375
0.00220772286824203,16.7898805322608
0.00250819367938448,16.7933557081913
0.00284974204945148,16.796586802263
0.00323805301948405,16.7995965723037
0.00367971334396282,16.8024064788784
0.00418242638145915,16.8050369306127
0.00475531371191451,16.8075075846583
0.0054093569912945,16.8098377399731
0.00614368253158431,16.8120080963752
0.00695606614727136,16.8140146915903
0.00785827431180723,16.8158926978388
0.00886828810784762,16.817678165508
0.0100156916343128,16.8194126598714
0.011357840863948,16.8211575948164
0.0131141609575056,16.8231217842597
0.0148911459803899,16.8248647225853
0.0168432239419667,16.826607660911
0.0185231206278348,16.8280366191593
0.0199730754652178,16.8292683570309
0.0212684019407869,16.8304135570065
0.0224244766366811,16.8315262401539
0.0234319133993136,16.8326454921225
0.0242645054816718,16.833813594276
0.0248719464653706,16.8350958471297
0.025139478128797,16.8366473604303
0.0248044287170258,16.8384940768674
0.0238576882889121,16.8403407933044
0.0227522555688087,16.8418312489853
0.0215165937822387,16.8432365504976
0.0201438796478037,16.8446591845797
0.0186420191012103,16.8461442844719
0.0170184037007563,16.8477292015691
0.015303422795819,16.8494596816916
0.0139627893571103,16.8509136717261
0.0115558650007887,16.8538260884463
0.00956370197872744,16.8566370632181
0.00798559540574473,16.8592325737236
0.00667966017986597,16.8617261142893
0.00553784786969114,16.8642606847079
0.00453396486352676,16.8668654499238
0.00364966219893655,16.869563709524
0.0028700841179708,16.872378951221
0.00222319094774509,16.8751467864262
0.00170262016767993,16.877764259005
0.00127304655941333,16.8802750590758
0.000909192655666901,16.8827256262771
0.000594180241317998,16.8851534724231
0.000316611268442011,16.8875873681742
6.60951559078246e-05,16.8900748777609
-0.000173660942242378,16.8927673061772
-0.000378614075383082,16.8953538411177
-0.000524713687032315,16.8973798400334
-0.000660132989107848,16.8994058389492
-0.000772619185473931,16.9012035346906
-0.000872822801537657,16.9028958883031
-0.000968666570182003,16.9045961913348
-0.00106642699961533,16.9064128032044
-0.00117513953222075,16.9085290766706
-0.001324356839521,16.9115920668575
-0.00149599181542114,16.9153255071993
-0.00163271312908472,16.9184479894776
-0.00176221009841215,16.9215199345259
-0.0019047982302845,16.9250341942412
-0.00207587434439925,16.9294738438589
-0.00227233147260292,16.9351276148694
-0.00240497594764557,16.9400232294934
-0.00246934471888838,16.9444260037768
-0.0024537058925301,16.9483650506889
-0.00235017368881642,16.9519177760199
-0.00215194584506199,16.9551705820123
-0.00185250236448995,16.9581885232157
-0.00144581666426347,16.9610180080357
-0.000923179058603128,16.963709055959
-0.000265157760307335,16.9663350899108
0.000578538152378491,16.9690284609916
0.00174806061853784,16.9720725822695
0.00322611538095976,16.9752887144028
0.00505303648893772,16.9787091690418
0.00634738059180057,16.9808702574351
0.00777302019829058,16.9830313458284
0.00917603978943037,16.9849428129671
0.0106332778229641,16.9867148363574
0.0121651335845844,16.9883641497076
0.0138374116987169,16.9899465305101
0.0156693234582538,16.9914596858295
0.0177034152186449,16.9929190392175
0.0199614013153544,16.9943209602075
0.0224814425649633,16.995671873778
0.0252933902271703,16.9969714731801
0.0284354489695559,16.9982225824756
0.0319514197235233,16.9994284120245
0.0358893418744665,17.0005916454699
0.0403024972635159,17.0017146999648
0.0452591442256873,17.0028016973102
0.0508365217761159,17.0038560847475
0.0571264258289193,17.0048814888297
0.0642392138326256,17.0058817709188
0.0723081815061909,17.0068609839798
0.0814999533340005,17.007823851588
0.0920233174704501,17.0087756352683
0.104146908926042,17.0097225471622
0.118226917501849,17.0106722939596
0.134754237448982,17.0116349922794
0.154445127277772,17.0126250468619
0.177347684897508,17.0136212301164
0.203953759753381,17.0146281970967
0.235050436300326,17.0156599777895
0.271770219066617,17.0167384542163
0.314964289915344,17.0178787566053
0.357214773888619,17.0189146314821
0.392227295573311,17.0197497901019
0.42236901697314,17.0204801359749
0.448724413639204,17.021156315364
0.471522554713626,17.0218069764951
0.490551338185305,17.0224542646985
0.5051881149573,17.0231207350981
0.514178660505525,17.0238362990885
0.514884266898517,17.0246486170102
0.50464400114246,17.0254734071462
0.482288917707106,17.0263272144265
0.446251324295867,17.0272226228762
0.394732905114788,17.0281686574644
0.350141984311716,17.0288434360341
0.29991282870407,17.0295182146038
0.255119456212269,17.0300767033716
0.216956803375462,17.0305371254446
0.183559963564504,17.0309384516464
0.153703321319191,17.0313034527173
0.126668078721398,17.0316456225221
0.101976254899868,17.031974321586
0.0792544573606251,17.0322974103383
0.0581411103609884,17.0326233500922
0.0381422810285519,17.0329650456583
0.0180438020432959,17.0333561749883
0.00950886184548663,17.0335427021984
0.00163515077016662,17.0337292294084
-0.00667160519733021,17.0339449146557
-0.0132823657075453,17.0341340916939
-0.0191788107938331,17.0343194599679
-0.0251372340825684,17.0345270129027
-0.030904420810396,17.034753022574
-0.0363154512500845,17.0349951082181
-0.0412787932080943,17.0352523818777
-0.0457466600603857,17.0355249377859
-0.0496974317790393,17.0358135644471
-0.0533667851052071,17.0361451698482
-0.0561867588123874,17.0364695067999
-0.0584915174571037,17.0368150509885
-0.0602978937770563,17.0371851139462
-0.0616201022080805,17.0375833240097
-0.062471725949918,17.0380141560254
-0.0628642400963363,17.0384831855369
-0.0628053683344331,17.0389974627391
-0.062296949219953,17.039566149875
-0.0613293251638081,17.0402028711352
-0.0598781411034399,17.0409252437979
-0.0578938466444979,17.0417597908354
-0.0552741467435409,17.04275184553
-0.0517630580907987,17.0440017042226
-0.0477344590954522,17.045397315373
-0.04383907603567,17.0467462062374
-0.0401261907428253,17.0480534410114
-0.0366195277401387,17.049321547376
-0.0333309650067266,17.0505515108468
-0.0302654304738806,17.0517435325661
-0.0274231328992235,17.0528974317194
-0.0248007852173559,17.0540128571523
-0.0223924151071672,17.0550893963783
-0.0201899908258409,17.0561266269508
-0.018183951002824,17.0571241336237
-0.0163636704911474,17.0580815038969
-0.0147178724642158,17.0589983088481
-0.013157898893752,17.059921075418
-0.0116582001908268,17.0608675528606
-0.0102230967628462,17.0618394616384
-0.00885650149227482,17.0628389734057
-0.00756212149561552,17.0638686408465
-0.00634340640981973,17.0649314939066
-0.00520349625376288,17.0660311656486
-0.0041451670286656,17.0671720623921
-0.00317077392980727,17.0683595992619
-0.00228219158265831,17.069600535559
-0.0014807499654762,17.0709034684533
-0.00076716333567282,17.0722795896847
-0.000141446909561297,17.0737439048434
0.000397189328748106,17.0753173273073
0.000832996437573136,17.0769546682307
0.00117263158015622,17.0786427134239
0.00143188297332859,17.0803998818756
0.00162510899006182,17.0822487113822
0.00176585912704173,17.0842196577701
0.00186732817097234,17.0863565970006
0.00194306625412025,17.0887286179363
0.00200845130103874,17.0914603705276
0.00208535892189434,17.0948411299948
0.00218636322327402,17.0985981017603
0.00231296145380437,17.1024063356202
0.00246061121696877,17.1061795050977
0.00262576399854189,17.1099727085644
0.00280495059983949,17.1138284748956
0.00299586010949162,17.1177819487057
0.00319762818382233,17.1218648356199
0.00341076477726175,17.1261078191362
0.00363695814497633,17.1305421931483
0.00387888201398437,17.1352012196404
0.00414011499031036,17.1401215684585
0.0044252700639669,17.1453446437109
0.00474045606421794,17.1509180121637
0.00506430102420914,17.1563976956109
0.00539971887314731,17.1617925880555
0.0057481328020154,17.1670802093181
0.00611314619557972,17.172270868539
0.00649855038411385,17.1773737532583
0.00690851676579182,17.1823991744754
0.00734738593594685,17.1873545656487
0.00781976364901645,17.1922448584068
0.00833060364614335,17.1970725684243
0.00888532877579605,17.2018382721051
0.00948994264708764,17.2065409657574
0.0101511374808412,17.2111784601161
0.0108829846478187,17.2157873033506
0.0117072045308462,17.22042290648
0.01264054024043,17.2250832394975
0.0137078732762762,17.229787932407
0.0149459250389338,17.2345797515132
0.0164196275290825,17.2395636917946
0.0182847406336356,17.2450477430216
0.0207595653465516,17.2513847925414
0.0223512674510968,17.2551306353605
0.0239814264918825,17.2588764781796
0.0254061554748182,17.2622300670126
0.026610817092167,17.2653025054202
0.0276088081346294,17.2682609088977
0.0283489741115638,17.2710792139789
0.0288223981441582,17.2738241960622
0.0290181881455323,17.276621614002
0.0288846186015704,17.2796633224662
0.0282090569202441,17.2835346795479
0.0273784091927066,17.2864209740796
0.0263202664657598,17.2893072686112
0.0252483952680481,17.2918347656102
0.0241794170238763,17.2941497443152
0.0231084936483912,17.2963532448163
0.0220368595228177,17.2984947641451
0.0209678874889587,17.3006027536513
0.0199053108831107,17.3026961088809
0.0188527347118092,17.3047886386034
0.0178135045935545,17.306891158144
0.0167906798125152,17.3090126168311
0.0157870354682075,17.311160775388
0.0148050751336984,17.313342642739
0.0138470452405967,17.3155647796202
0.0129149450399236,17.3178335339716
0.0120105426583419,17.3201552146646
0.0111353813711614,17.3225362613546
0.0102907899398038,17.3249833931769
0.00947789902004572,17.3275037364839
0.00868364133558971,17.3301535210749
0.00790131643227484,17.332981692474
0.00713468218986432,17.3360093411238
0.00638761938460859,17.3392613232274
0.00566425413321324,17.3427664386693
0.00496891867214357,17.346558222081
0.00430609925087815,17.3506758677973
0.00368032713399143,17.3551655840924
0.00309598663765634,17.3600828913255
0.00255703774870946,17.3654967945026
0.00206668291231469,17.371497520959
0.00163186571623853,17.3781282499944
0.00126505410629093,17.3852462194095
0.00104301500331078,17.3909930652684
0.000812730015206326,17.3988747619322
0.000627838181594152,17.4074466173482
0.000482056259366334,17.416736931584
0.000371733921624665,17.426736931584
0.000296441539882593,17.436736931584
0.000245978233521646,17.446736931584
0.00021292700700981,17.456736931584
0.00019202991353743,17.466736931584
0.000179668186968315,17.476736931584
0.000173398993186279,17.486736931584
0.00017158824103922,17.496736931584
0.000173151338486102,17.506736931584
0.00017738282201781,17.516736931584
0.000183847213381246,17.526736931584
0.000192308943724536,17.536736931584
0.000202687618682033,17.546736931584
0.000215031191421652,17.556736931584
0.000229503252999266,17.566736931584
0.000246382740122329,17.576736931584
0.000266075941172409,17.586736931584
0.000289142393562797,17.596736931584
0.000316338551881129,17.606736931584
0.000348686519305957,17.616736931584
0.000387580662472217,17.626736931584
0.000434954482813684,17.636736931584
0.000491080173170145,17.6463519419698
0.000555225650533677,17.6552369089636
0.000628354661931714,17.6634341046507
0.000711683870315932,17.6709970099462
0.000806614937363579,17.6779757477961
0.000914740123970947,17.6844168282778
0.00103786232428393,17.690363419247
0.00117802185504526,17.6958556011023
0.00133752843577366,17.7009305918602
0.00151899735036087,17.7056229576009
0.00172539249556034,17.7099648143492
0.00196007690429703,17.713986022532
0.0022268747252573,17.7177143718391
0.00253014628977182,17.7211757644853
0.00287488384062052,17.7243944048068
0.00326683403048729,17.7273929985487
0.00371265952224519,17.7301929684498
0.00422015950326273,17.732814703899
0.0047985801487478,17.7352778682455
0.0054590710776718,17.7376018036573
0.00619886156811239,17.7397620881426
0.00701748021631988,17.7417611000138
0.00792712342723237,17.7436341656558
0.00894646949783493,17.7454176585792
0.0101066000442608,17.747154226703
0.0114689655043401,17.7489086912381
0.013279495983491,17.7509135390553
0.0149931276954975,17.7525837059644
0.0168637159775427,17.7542538728736
0.0185242516632187,17.7556706312495
0.0199667665076208,17.7569010643203
0.0212562196857664,17.7580468339457
0.0224065994000905,17.7591609298663
0.0234081123300973,17.7602823733534
0.0242341823192374,17.7614537141145
0.0248338158063479,17.7627411574862
0.0250897711737115,17.7643037654846
0.0247424615861446,17.7661449495682
0.0237917908289262,17.7679861336518
0.022685367352793,17.7694754337694
0.0214488895069774,17.7708817434768
0.0200758875028383,17.7723060112284
0.0185743456709097,17.7737930671056
0.0169516207041698,17.7753802551253
0.015239319992813,17.7771134614202
0.0138494015987476,17.7786285473085
0.0114636965791629,17.7815347618835
0.00949248279069606,17.784334540581
0.00792863887187851,17.7869226879469
0.00663002311680936,17.7894175621982
0.00549418803062307,17.7919548659416
0.00449541690269179,17.7945633493378
0.00361554478244016,17.7972662863847
0.00283983220691991,17.8000872168865
0.00220424749635091,17.8028233531068
0.0016913438419745,17.8054130992816
0.00126693850019958,17.8079000008786
0.000906605847396548,17.8103296591304
0.000593713690537725,17.8127413141729
0.000316537221877212,17.8151704860513
6.37063386411276e-05,17.8176807186493
-0.000184867754462341,17.820479982355
-0.000370928042792622,17.8228283399871
-0.000540030416263373,17.8251766976192
-0.000670252360936975,17.8271371572925
-0.000778612633512768,17.8288755668335
-0.000877927149522616,17.8305573318708
-0.000975199321135534,17.8322880169514
-0.00107723763491532,17.8341925559825
-0.00119691310468403,17.8365407788227
-0.00141607824806824,17.841143976561
-0.00160693286267936,17.8454489717422
-0.00175980051222955,17.8490836528883
-0.00191428372611535,17.8529298717334
-0.00209996490864045,17.8578499296767
-0.00228193282736116,17.8633255111432
-0.00240012288244003,17.8681066258908
-0.00244798239657975,17.8724019276452
-0.00241468409214293,17.8762489795596
-0.00229278075034474,17.8797256421944
-0.0020756458081023,17.8829141647695
-0.00175675859405694,17.8858775119812
-0.00132924236888258,17.8886650660472
-0.000782271255771292,17.8913312775891
-9.13340249526491e-05,17.8939589810554
0.000806980280965519,17.8967030124122
0.00203401376395448,17.8997756759884
0.00358593523808458,17.9030471522758
0.00547727473223429,17.9064920097809
0.0067292091012914,17.9085276949144
0.00810713979925837,17.9105633800479
0.00954372038609271,17.9124685209428
0.01099394579949,17.9141805946244
0.012560394281931,17.9158153917326
0.0142775678612915,17.917386650538
0.0161554623770783,17.9188838999214
0.0182439648454878,17.9203286000694
0.0205631248431946,17.9217158364316
0.023152792503038,17.9230526582413
0.0260464164854711,17.9243400572124
0.0292778404401984,17.9255784555071
0.0328949617844923,17.9267723639781
0.036947664635193,17.9279245400886
0.0414939378460036,17.9290380473061
0.0465997990392365,17.9301157843489
0.0523478937456466,17.9311617895959
0.058834267969317,17.9321797472503
0.0661745932221512,17.9331735729764
0.0745100795234478,17.9341475161915
0.084015072294025,17.9351062304999
0.0949114609861118,17.9360552160989
0.107485852151809,17.9370009597504
0.122121107169389,17.9379515961427
0.139350716094247,17.9389179806254
0.159871868267954,17.9399116763247
0.183637286433603,17.9409081462428
0.211275862462988,17.9419180914341
0.243635530822754,17.9429567490731
0.281972826172513,17.9440489129122
0.326299476499261,17.9451901059878
0.366667194082267,17.9461652563109
0.400447778577161,17.9469676566998
0.429719858311745,17.9476805454455
0.455303663146959,17.9483471080704
0.477312703584944,17.9489936798909
0.49544700234993,17.9496420337346
0.508967044868756,17.9503157810684
0.516390393899524,17.9510484229236
0.514792528538921,17.9518609313664
0.50201108683901,17.9526900603755
0.476777600947509,17.9535516941816
0.437445696793219,17.9544575274334
0.382180004430171,17.9554163663325
0.338566458702485,17.956050578823
0.290229882147982,17.9566847913135
0.247054883047421,17.9572166039195
0.209961319451131,17.9576618927109
0.177320656741641,17.9580540914254
0.148051023723229,17.9584132746772
0.121497371459063,17.9587517801285
0.0972098145946434,17.9590784920194
0.0748235065624992,17.9594012149206
0.0539643533346981,17.9597288917998
0.0340698513715301,17.9600764510066
0.0134801456002675,17.9604900205824
0.00179247440824071,17.9607607725431
-0.00555703130951249,17.9609497305112
-0.0122721453615346,17.9611386884793
-0.0181167663592019,17.9613190252348
-0.0240880971722107,17.9615225673562
-0.0299100545415671,17.9617452173757
-0.0353993406226841,17.9619842372558
-0.0404535167687932,17.9622385115683
-0.0450183356350809,17.9625079822842
-0.049068312580676,17.9627933242271
-0.0526240239857597,17.9630993345351
-0.0555774888372866,17.9634179761931
-0.0580152313941785,17.9637574426162
-0.059950776234309,17.9641206031117
-0.061398234868678,17.9645108929817
-0.0623715083990833,17.9649325477825
-0.0628827799144695,17.9653908303364
-0.0629409257270147,17.9658923672954
-0.0625495910648495,17.9664456656345
-0.0617025845007027,17.9670631196963
-0.0603798572667048,17.9677610557344
-0.0585398575614517,17.9685631528808
-0.056098275552317,17.9695082945824
-0.0528589919250063,17.9706753173149
-0.0488036200120201,17.9720855433278
-0.0448655107709165,17.9734458742445
-0.0411009154468527,17.9747635745596
-0.0375379542216539,17.9760417456418
-0.0341908716486392,17.9772816583658
-0.0310660992111466,17.978483654309
-0.0281649220374577,17.979647617247
-0.0254848733493527,17.9807732211255
-0.0230206168093427,17.9818600589362
-0.020764606152601,17.9829077055212
-0.0187076342184992,17.9839157417169
-0.0168393133870115,17.9848837544624
-0.0151485010445068,17.9858113208775
-0.0135736054028682,17.986728017028
-0.0120576299339605,17.9876681277494
-0.0106051970941823,17.9886331528989
-0.00922026411307282,17.9896251777526
-0.00790659734198832,17.9906466463172
-0.00666771901394149,17.9917004523583
-0.00550685572789896,17.9927900560734
-0.00442688464415754,17.993919640939
-0.00343027736330068,17.9950943294202
-0.00251904104906449,17.9963204877036
-0.00169465569669241,17.9976061701116
-0.000958005306483607,17.998961792542
-0.000309298575577259,18.0004012022299
0.000252029645824974,18.0019434814276
0.000716105869796359,18.003570552328
0.00107938523766604,18.0052434387826
0.0013583149155479,18.0069804414495
0.00156752204260023,18.0088025434303
0.00172072934449995,18.0107377271328
0.00183116769505597,18.0128255496316
0.00191219297806694,18.0151266592209
0.00197845832189652,18.0177458908147
0.0020491694697585,18.0209064786992
0.00214386966894685,18.0246419973614
0.00226450491300154,18.028474959244
0.00240671747656477,18.0322523439765
0.00256730531228417,18.0360348425691
0.00274263259365378,18.0398683936488
0.00293003696743641,18.0437898022395
0.00312827455887354,18.0478314953394
0.00333750657385088,18.0520242639181
0.00355912021147871,18.0563990836135
0.00379552265405045,18.0609884964624
0.00405001828087712,18.0658280271594
0.00432686758800646,18.0709575648855
0.00463164071286527,18.0764227432579
0.00495426404054765,18.0819749346593
0.00528465993646234,18.0873898828932
0.00562830790950415,18.0927169724946
0.00598700490010109,18.0979380882634
0.00636490682269239,18.1030696070737
0.00676595362837225,18.1081201733672
0.00719445173741356,18.1130986963007
0.00765488793761232,18.118010773201
0.00815207935203802,18.1228596889411
0.00869126862569471,18.1276465998902
0.00927824564281585,18.1323709929072
0.00991945247293257,18.1370310199736
0.0106228587061878,18.1416287454424
0.0114143328378548,18.1462585019893
0.0123079611556623,18.150908496926
0.0133262423604287,18.1555949908517
0.0145006938876943,18.1603496353077
0.015883471775018,18.1652490736635
0.0175844862986032,18.170498737402
0.0200039485379776,18.1769545271525
0.0216807799047141,18.1809929057253
0.0234306721711421,18.185031284298
0.0249472318671863,18.1885504210218
0.0262242219611411,18.1916980667791
0.0272929374329048,18.1946796870102
0.0281257031491463,18.1975492131684
0.0286903737719902,18.2003063358208
0.0289841901371018,18.2030696578509
0.02897367941747,18.2059963314367
0.0285369694816512,18.2094415900851
0.0277552333607041,18.2126372072815
0.0266693013359766,18.2158328244778
0.0255854269932935,18.2184882361925
0.0245154978696961,18.220857509687
0.0234451864846866,18.2230892983682
0.0223734471694574,18.2252466112363
0.0213032285272491,18.2273628071684
0.0202382323607234,18.2294591232806
0.0191821263626569,18.2315506737277
0.018138343288699,18.2336490629707
0.0171100328167927,18.2357637396883
0.0161000577369336,18.2379027849043
0.0151110060892425,18.2400734063636
0.0141452027328519,18.2422822821911
0.0132047233677157,18.2445358079519
0.0122914084188678,18.2468402875924
0.0114068684055925,18.2492021129073
0.0105525007045403,18.251627897914
0.00972949524003111,18.25412463609
0.00893225291017802,18.25672214248
0.00814575402796071,18.2594921879047
0.00737377764543294,18.2624546118083
0.00662012440452771,18.265633161138
0.00588884496160266,18.2690553257898
0.0051842120247147,18.2727530586898
0.00451067224897391,18.2767636549323
0.00387275704400615,18.2811309443692
0.00327492468218831,18.2859071774238
0.00272130187759302,18.2911565135522
0.0022153628541532,18.2969614088411
0.00175967643416544,18.3034332237639
0.0013724123078128,18.3103903436877
0.00106033423447296,18.317897958707
0.000828830643973648,18.3256467487306
0.000646589499332801,18.3338777302551
0.000497197912939367,18.3430636001452
0.000382397888612145,18.3530636001452
0.000303883836564455,18.3630636001452
0.000251142735245886,18.3730636001452
0.000216510921584947,18.3830636001452
0.000194525818156748,18.3930636001453
0.000181411825049009,18.4030636001453
0.000174615463706573,18.4130636001453
0.000172428156920502,18.4230636001453
0.000173715435069063,18.4330636001453
0.000177737607432772,18.4430636001453
0.000184034867073706,18.4530636001453
0.000192353745630768,18.4630636001453
0.000202600182556408,18.4730636001453
0.000214811142138903,18.4830636001453
0.00022914067448703,18.4930636001453
0.000245858561605124,18.5030636001453
0.000265361308917133,18.5130636001453
0.00028819693834507,18.5230636001453
0.000315107278163718,18.5330636001453
0.000347094769777437,18.5430636001453
0.0003855261718489,18.5530636001453
0.000432294769842287,18.5630636001453
0.000487921773135198,18.572722106507
0.000551510755794483,18.5816490632735
0.000624006712376556,18.5898851679063
0.000706614190550272,18.5974840386681
0.000800722786674755,18.6044959893319
0.000907911612613752,18.6109677099385
0.00102996874323352,18.6169425363547
0.00116891766875378,18.6224607061646
0.00132704893697116,18.6275595846441
0.00150695602556973,18.6322738752462
0.00171157780244121,18.6366358214251
0.00194424851586281,18.640675401162
0.00220875886444881,18.644420511919
0.00250942995563055,18.6478971533577
0.00285120748444933,18.6511296159974
0.00323978192472377,18.6541406793813
0.00368174696069312,18.6569518256784
0.00418481501134048,18.6595834859
0.00475811987244797,18.6620553416926
0.00541266032099864,18.6643867206712
0.00614742021497302,18.6665579149059
0.00696033104265465,18.6685654975336
0.00786321775755924,18.6704447083439
0.00887416313958463,18.6722317010697
0.0100229731650177,18.6739682658324
0.0113676161775527,18.6757164205741
0.0131310151708701,18.6776883581869
0.0148958654970652,18.6794202912337
0.0168325716532676,18.6811522242804
0.0185080299895894,18.6825803360233
0.0199556568461542,18.6838128087484
0.0212489777993326,18.6849589133345
0.0224031478073956,18.686072553921
0.0234087300122991,18.6871928264962
0.0242394862536354,18.6883620562218
0.0248450613110301,18.689645651861
0.0251105110725844,18.6911991234026
0.0247737704703726,18.6930462257075
0.0238267422880273,18.6948933280125
0.0227215676206936,18.6963844375836
0.0214864069200603,18.6977904487681
0.0201144753344048,18.699213737397
0.0186136906654518,18.7006994126941
0.016991453954459,18.7022848087964
0.0152784839417864,18.7040156424309
0.0139288626700133,18.7054819768601
0.0115291324175198,18.7083917316699
0.00954328276561807,18.7111993623278
0.00796938544412048,18.7137927686556
0.00666557510130759,18.7162867888536
0.00552548276741998,18.7188222510748
0.00452305903604494,18.7214281985772
0.0036400108320881,18.7241279247218
0.00286151763909282,18.7269449337871
0.00221852811580158,18.7297006578926
0.00170053560514263,18.7323075876625
0.00127264999647717,18.7348092767173
0.000909896296582833,18.737251892337
0.000595444526485593,18.7396739101167
0.000317709119945488,18.7421073311984
6.58567121593092e-05,18.7446068389094
-0.000177981890360257,18.7473474441494
-0.000373767224779707,18.7498169266583
-0.00055087418229023,18.7522864091672
-0.000682772514452127,18.754285056541
-0.000791114423021375,18.7560348524853
-0.000889975967144838,18.7577194451919
-0.000986496324142491,18.7594463030992
-0.00108733721620311,18.7613371381226
-0.00120452822194414,18.7636438375045
-0.00140959550107208,18.767947010855
-0.00158655280082051,18.7719129680402
-0.00172799988945831,18.7752392026815
-0.00187113651212794,18.7787456664519
-0.00203872254127301,18.7830618058232
-0.00224030215210188,18.7887708709383
-0.0023800380798254,18.7937307372334
-0.00245338667384788,18.7981953004792
-0.00244819613963083,18.8021884418689
-0.00235625280603416,18.8057839861769
-0.00217084729108507,18.8090664639804
-0.00188520499760896,18.8121078910836
-0.00149304893237123,18.8149566696129
-0.000986174579389284,18.8176608845944
-0.000345908706852327,18.8202939321265
0.000472418235365462,18.8229753330199
0.00159192814397313,18.8259597778148
0.0030280160134505,18.8291511315317
0.00481368437317935,18.8325554484641
0.00609515254377281,18.8347335952166
0.0075055634352664,18.8369117419692
0.00893375788097147,18.8388955953913
0.0103735902950885,18.8406815276753
0.011892432882372,18.8423518024258
0.0135450397358391,18.8439504468825
0.0153480068803687,18.8454741197306
0.0173477296420824,18.8469430068712
0.0195660059029262,18.8483537620088
0.0220411181571919,18.8497132554686
0.0248006825285565,18.8510202843918
0.0278854530831551,18.8522791794566
0.0313368084781259,18.8534923366568
0.0352004679763299,18.8546620382268
0.0395304458078423,18.8557913017651
0.04439240186884,18.8568839506543
0.0498613907017698,18.8579433919991
0.0560265204416138,18.8589732200858
0.0629945853006147,18.8599772336406
0.0708944059729723,18.8609594274379
0.0798868936572122,18.8619244717449
0.0901725537780646,18.8628774853595
0.102008348116777,18.863824482058
0.115733048079489,18.8647728562901
0.131809833399512,18.8657322006174
0.150907218390016,18.8667159853744
0.173247672862963,18.8677111036415
0.19918007813563,18.8687150329886
0.229450487639044,18.8697409165163
0.265112197563198,18.870808716176
0.307663288347446,18.8719495182106
0.342212354035675,18.8728083447358
0.378062563213887,18.8736671712611
0.409983745890048,18.8744308285482
0.437930474354541,18.8751257569687
0.46229077089953,18.8757842433322
0.483020267553683,18.8764300567832
0.499685958352235,18.8770848739229
0.511355843933252,18.8777743227526
0.516143668762733,18.8785382767923
0.510972754690973,18.8793550398904
0.494264941802344,18.8801937598095
0.464618453186153,18.8810690264258
0.420309530512973,18.8819911700195
0.373518370789258,18.8827619416984
0.330299763373138,18.8833782830583
0.282799667221085,18.8839946244181
0.240784081954078,18.8845098693246
0.204525964231566,18.8849452418389
0.172498272008004,18.8853314630961
0.143712605887783,18.8856869414762
0.117559224103937,18.8860232624106
0.0936090624056264,18.8863490081302
0.0715034520443386,18.8866719900851
0.0508569397262112,18.8870016089231
0.0310429843700698,18.8873547156586
0.00989124299872765,18.8877918219711
0.000544468664575026,18.8880140372614
-0.00789659524333669,18.8882362525517
-0.0143477765380573,18.8884237927338
-0.020284138436839,18.8886136450837
-0.0262258223491364,18.888824807216
-0.0319385109969131,18.8890538371549
-0.0372737876585788,18.8892986836672
-0.0421499313271991,18.8895586704678
-0.0465249861763687,18.8898340351606
-0.0503796450345322,18.8901256750834
-0.0539507230851202,18.8904616179988
-0.0566747121936902,18.890789738397
-0.0588858104460377,18.8911395604914
-0.0606010857125283,18.891514520064
-0.0618347603651259,18.8919183896535
-0.0626001437522321,18.8923558279567
-0.0629081462115564,18.8928326532239
-0.0627655819554251,18.8933562479777
-0.0621725533539414,18.8939365135014
-0.0611170174856967,18.8945876462942
-0.0595709812066239,18.895328544718
-0.0574779685165033,18.8961881895401
-0.0547190736984572,18.8972178450543
-0.0509750594856068,18.8985403852066
-0.0469669630185918,18.8999258704333
-0.0431042587660139,18.90126624151
-0.0394300939313646,18.9025656583786
-0.0359652286587705,18.9038262460849
-0.0327199029045256,18.9050487854092
-0.0296979834031827,18.906233375492
-0.0268989133893616,18.9073797876017
-0.0243188230510737,18.9084876509684
-0.0219512911759098,18.9095565475731
-0.0197879472576814,18.9105860552614
-0.0178189869351555,18.9115757598158
-0.016033626813756,18.9125252471492
-0.01442050633188,18.9134340817247
-0.0128715470999709,18.9143613139666
-0.011383836057068,18.9153124846096
-0.00996147904333412,18.9162894755333
-0.00860835448227183,18.9172945241189
-0.00732812427039286,18.9183302658803
-0.00612418307472575,18.9193998348695
-0.00499960575471321,18.9205069967591
-0.00395709252589464,18.921656329512
-0.00299891166352227,18.9228534747594
-0.00212683904743529,18.9241054978306
-0.00134209301285042,18.9254214215166
-0.00064526145328567,18.9268130513283
-3.62151981784481e-05,18.9282963198556
0.000486004587319183,18.9298936285601
0.00090177076071425,18.9315391946382
0.00122466137678869,18.9332391525652
0.00147003141396256,18.9350121369874
0.00165205464562538,18.9368819492446
0.00178417118852914,18.9388810956497
0.00187957655087045,18.9410571106241
0.00195201856151114,18.943486476066
0.00201756798677479,18.9463122396071
0.00210090981707187,18.9498934123611
0.00220766356244924,18.953682120786
0.00233894022363108,18.9574764451343
0.00249064197072082,18.9612499595853
0.00265907940042273,18.9650543551097
0.00284096677965419,18.9689299520131
0.00303428802521473,18.9729108295656
0.00323847830828698,18.9770282720535
0.00345431328478973,18.9813129834006
0.00368370356991846,18.9857965942988
0.00392951767367762,18.9905130336657
0.00419553900802622,18.9954999668262
0.00448665826297493,19.0008001126087
0.00480853028008158,19.0064471743322
0.00513287833944842,19.0118813577096
0.00547125629313746,19.0172631483862
0.00582256307602401,19.0225264834566
0.00619150187888287,19.0276984399578
0.00658164012868153,19.0327839727611
0.00699727828946595,19.0377942205159
0.00744277083615184,19.0427356705308
0.00792279007778024,19.0476127879401
0.00844237057807239,19.0524275955907
0.00900704528812594,19.0571803093976
0.00962295029938477,19.0618696336156
0.0102969352245286,19.0664931980536
0.011047068672861,19.0711088852149
0.0118924289597764,19.0757485415543
0.0128515103212515,19.0804161597827
0.0139509576702248,19.0851342674534
0.0152314619154245,19.0899542571672
0.0167685023527777,19.0950046332171
0.0187623052451689,19.1006929226981
0.020685382093836,19.1055589705065
0.022303699653194,19.1093739811235
0.0239637970778841,19.1131889917405
0.02539300649373,19.116551228527
0.0265998875301571,19.1196258065526
0.0276000254703374,19.1225847022812
0.028342963980252,19.1254043346443
0.0288191527178474,19.1281494775513
0.0290179659581993,19.1309455896233
0.0288883331148891,19.1339831785777
0.0282216303772515,19.1378373077074
0.0273925761552816,19.1407323429251
0.0263338921862577,19.1436273781429
0.0252617530014441,19.1461589143063
0.0241927599268098,19.1484757678223
0.0231218479909819,19.1506802787957
0.0220501902353678,19.1528223665091
0.0209811479357802,19.1549306489544
0.0199184540580388,19.1570241050286
0.0188657162894556,19.1591165908987
0.0178262838322223,19.1612189507877
0.0168032190221966,19.1633401538232
0.0157993008814648,19.1654879721025
0.0148170357153309,19.1676694238461
0.013858673077025,19.1698910749859
0.0129262159886705,19.1721592744673
0.0120214331295526,19.1744803380859
0.0111458722468997,19.1768607010266
0.0103008646721663,19.179307080889
0.00948754256647193,19.1818266043179
0.00869315540867876,19.1844743629926
0.00791065428552795,19.1873002837856
0.00714379853501247,19.1903254064403
0.00639646564097204,19.1935745452691
0.00567277826812945,19.1970764529054
0.00497706798077123,19.2008645957248
0.00431381873275057,19.2049780994919
0.0036875620650956,19.2094630808952
0.00310268574157014,19.2143749312236
0.0025631567674269,19.2197824621585
0.00207218839659982,19.2257755898124
0.00163651253691326,19.2324010647351
0.00126892789584425,19.2395127612703
0.00104529460094426,19.2452837584429
0.0008146429825638,19.2531600200176
0.000629516243693521,19.2617211795085
0.000483427822816691,19.2710041719614
0.000372765929594743,19.2810041719614
0.000297239805813308,19.2910041719614
0.000246617892836892,19.3010041719614
0.000213460584285515,19.3110041719614
0.000192493512137465,19.3210041719614
0.000180086388269743,19.3310041719614
0.000173788499687328,19.3410041719614
0.000171960413035764,19.3510041719614
0.000173513896994656,19.3610041719614
0.000177740989089816,19.3710041719614
0.000184204491877768,19.3810041719614
0.000192667666222056,19.3910041719614
0.00020304934528649,19.4010041719614
0.000215397008349185,19.4110041719614
0.000229874009573572,19.4210041719614
0.000246759254997212,19.4310041719614
0.000266459206366248,19.4410041719614
0.00028953380717467,19.4510041719614
0.000316740218789361,19.4610041719614
0.000349101677331922,19.4710041719614
0.000388014326591499,19.4810041719614
0.000435414466568376,19.4910041719614
0.000491538303333531,19.5006131314055
0.000555678815595622,19.5094924270287
0.000628801357618122,19.5176845159628
0.000712122924390982,19.5252428247727
0.000807045264940137,19.5322174204354
0.000915160622725222,19.5386547635677
0.00103827181773865,19.5445979782237
0.00117841904401228,19.5500871057138
0.00133791184109363,19.5551593289926
0.00151936523487129,19.5598491825812
0.00172574277617298,19.5641887539607
0.00196040703030354,19.5682078775636
0.00222718152441229,19.5719343192547
0.00253042577378445,19.5753939592887
0.00287513093169302,19.5786109815731
0.00326704219513102,19.5816080725598
0.00371282024016476,19.5844066364264
0.00422026148561293,19.5870270442144
0.00479860814188899,19.5894889403848
0.00545900393238666,19.5918116465613
0.00619870292797329,19.5939708242947
0.00701719099985922,19.5959687231715
0.00792663728972811,19.5978406228419
0.00894566945607535,19.5996228277267
0.0101052554554667,19.601357850677
0.0114665199651049,19.6031101627992
0.0132735616482267,19.6051104019913
0.0149931553494342,19.6067852801033
0.0168712092621251,19.6084601582153
0.0185344646593601,19.6098772097856
0.0199786340741803,19.6111071519155
0.021269535742788,19.6122523100311
0.0224212957617443,19.6133657421499
0.0234241614234896,19.614486462613
0.0242515854043526,19.6156569857548
0.0248526221181754,19.6169434239068
0.0251102124684157,19.6185044775491
0.0247642852724912,19.6203455031418
0.0238139118656821,19.6221865287344
0.0227073511295036,19.6236754215875
0.0214705673029241,19.6250812406757
0.0200970609171174,19.6265050382954
0.0185948074152922,19.6279916670824
0.0169711583483096,19.6295784824091
0.0152574735112498,19.6313113856566
0.0138757941637436,19.6328154980079
0.0114847391389203,19.6357235553728
0.00950867698214214,19.6385258913422
0.00794157101706157,19.6411156738933
0.00664129617597901,19.6436101786827
0.00550411361947004,19.6461467926274
0.00450419631461741,19.6487543592908
0.00362333633039457,19.6514561572264
0.00284676697358354,19.6542757130995
0.0022077538078731,19.6570231253558
0.00169257889115239,19.6596228003257
0.00126668154270756,19.6621184049048
0.000905373923052632,19.6645557746635
0.000591980043437043,19.6669733230959
0.00031493686626977,19.669403774021
6.32844466265652e-05,19.6719042197915
-0.000181423391373453,19.6746585565223
-0.000373958614387973,19.6770891528813
-0.000548394689633396,19.6795197492403
-0.000679669944386888,19.6815059695915
-0.000787912381774261,19.6832513430264
-0.000886802602597423,19.6849338510488
-0.00098343346874969,19.6866603197315
-0.00108449533629876,19.688553137578
-0.0012022146656944,19.6908684130302
-0.00141272821690092,19.6952884661015
-0.00159487480884501,19.699381045191
-0.00174008305030825,19.7028093730325
-0.00188684180119464,19.7064242987056
-0.00206017525262838,19.7109282936191
-0.00225686549510074,19.7166017248339
-0.00238925611855832,19.7214941302416
-0.00245405954910537,19.7258991382379
-0.00243941433608697,19.7298409608233
-0.00233740929103305,19.733393742543
-0.0021413336537637,19.7366431235695
-0.00184448577279399,19.7396572466086
-0.00144058048836659,19.7424835099719
-0.000920657199510332,19.7451723832629
-0.000264262236938418,19.7478004149256
0.000578624774872308,19.7504972128698
0.0017459510758554,19.7535408278094
0.00322298511639725,19.7567599165591
0.00504944648742559,19.7601851069927
0.00631046497101596,19.7622962919967
0.00769693667737384,19.7644074770007
0.00912476236466067,19.7663630401017
0.0105644168944443,19.7681223152528
0.012096385496134,19.7697806934806
0.0137681591169957,19.7713709176922
0.0155930633865937,19.7728860935361
0.0176195724555953,19.774347645272
0.0198678872988153,19.7757509366086
0.0223773564972702,19.7771033224964
0.0251772919072063,19.7784042347639
0.0283061947858285,19.7796566944234
0.0318074785821617,19.780863802448
0.0357288803398464,19.7820282118619
0.040123295778125,19.7831523104547
0.0450585638562991,19.7842402159736
0.0506114027297524,19.7852953670746
0.0568729407456551,19.7863213783636
0.0639526713153584,19.7873220956323
0.0719827982647633,19.7883015556921
0.0811283150676892,19.7892644419768
0.0915958460951293,19.7902159737849
0.103650821226094,19.7911622940403
0.11764449303389,19.7921109998897
0.134059655278679,19.7930720253183
0.153597863920366,19.7940594353544
0.176363754885691,19.79505460459
0.202803610858874,19.7960598976407
0.233691785358464,19.7970890177112
0.270135105307758,19.7981631541585
0.313214114674803,19.7993029969242
0.356025730740582,19.8003525243628
0.391368958516714,19.8011935541933
0.421730504095305,19.8019261315659
0.448274778852728,19.8026029803873
0.471260072083138,19.8032533480031
0.490492084129804,19.8038995254509
0.505367905456925,19.8045639777994
0.514666824556436,19.8052762195591
0.515802580789949,19.8060877615885
0.5060181806723,19.806911220127
0.484159605310749,19.8077633146855
0.448667187465046,19.8086568438175
0.397740081479275,19.809600904396
0.352853395804023,19.810284331531
0.302125865657566,19.8109677586659
0.256919364261436,19.81153174814
0.218483934649153,19.811995129643
0.184894361303771,19.8123981285578
0.154888431750787,19.8127641201884
0.127730875342786,19.8131068531775
0.102936024806521,19.8134357949388
0.0801272210947158,19.8137588299574
0.0589434791350525,19.8140843523881
0.0388998135248915,19.8144249685214
0.0188385099187048,19.8148127160761
0.0102409351641631,19.814999098284
0.00230621714050929,19.8151854804919
-0.0063016894420765,19.8154073254116
-0.0129807776364018,19.8155973165882
-0.0188658604159735,19.8157811635952
-0.0248308262132851,19.8159874532276
-0.0306167460840389,19.816212382163
-0.0360533097407506,19.8164534667747
-0.0410457640088763,19.8167097525027
-0.0455444106027386,19.8169812884767
-0.0495265121681805,19.8172688290713
-0.0531495432205591,19.8175910106249
-0.0560134202233425,19.8179133918699
-0.0583619156190043,19.8182568641026
-0.0602106994367016,19.8186245797544
-0.0615739699642197,19.8190201031954
-0.0624654302943535,19.8194478300264
-0.0628968015596161,19.8199132321009
-0.0628761983540483,19.8204232189766
-0.062406111616233,19.8209866967493
-0.0614779921033624,19.8216169483002
-0.0600689338313432,19.8223311219682
-0.0581321019235162,19.8231547701922
-0.0555714381301929,19.8241309797688
-0.0521526899032748,19.8253522364984
-0.0481138421384413,19.8267526535432
-0.0442028440045,19.8281054653305
-0.0404714472113372,19.8294163275399
-0.0369447890588944,19.8306879472798
-0.0336355242023089,19.8319213988343
-0.0305490835897877,19.8331169263352
-0.0276860408799477,19.8342743680598
-0.0250433891302511,19.8353933795923
-0.0226153738203119,19.8364735491686
-0.0203941293053047,19.8375144527201
-0.0183702148920936,19.8385156732951
-0.0165330855832273,19.8394767980978
-0.0148715087846454,19.8403974003988
-0.0133062763404542,19.8413180238
-0.0118008463126689,19.8422622522087
-0.0103596440929558,19.843231728449
-0.00898659848607749,19.8442285932966
-0.00768543777449681,19.8452553605809
-0.00645963748595336,19.84631501152
-0.00531236847063068,19.8474111172567
-0.00424644271200055,19.8485480041815
-0.00326425678095162,19.8497309822741
-0.00236773239731033,19.8509666693102
-0.00155825285186448,19.8522634665306
-0.000836592771517003,19.8536322847537
-0.000202836302947749,19.8550877084138
0.000343726199053057,19.8566499814759
0.000789335411977165,19.8582835801623
0.00113716010014173,19.8599661449838
0.00140321049379821,19.8617160302271
0.00160193664779572,19.8635552053525
0.00174694492759091,19.8655132154588
0.00185143666560724,19.8676323343073
0.00192888203870928,19.869978483375
0.0019943738670236,19.8726687303124
0.00206871455614906,19.8759660300961
0.0021671990743563,19.8797127171904
0.0022915598528137,19.8835300352215
0.00243716014312726,19.8873043044616
0.00260054749130002,19.8910927204786
0.00277818267565834,19.8949391093817
0.00296762481437303,19.8988792464033
0.00316787100943798,19.9029451048586
0.00337930269274375,19.907167395409
0.00360349455233036,19.9115772700689
0.00384301541858145,19.9162076844625
0.00410133029288332,19.9210948315591
0.00438290050552492,19.9262794860081
0.004693601501036,19.9318084236657
0.00501682872539496,19.93731918546
0.005350023091329,19.9427232259673
0.00569628973114349,19.9480275968408
0.00605849766256669,19.9532312334506
0.00644058722077856,19.9583462862897
0.00684663340589834,19.9633824393631
0.00728095863991656,19.9683477399347
0.00774811488448162,19.9732474020512
0.00825299399940971,19.9780842611081
0.00880093868380419,19.9828591367869
0.00939785826992484,19.9875712308553
0.0100503349245971,19.9922184923453
0.010653396799599,19.9961092461726
0.0113156355794105,20
