ecg,time
9.78166876156075e-05,15.0004426560329
7.78920234886635e-05,15.0104426560329
6.45475799140488e-05,15.0204426560329
5.5827988122439e-05,15.0304426560329
5.03253803619389e-05,15.0404426560329
4.70608453332914e-05,15.0504426560329
4.53677322557928e-05,15.0604426560329
4.47941244214744e-05,15.0704426560329
4.50323556095821e-05,15.0804426560329
4.58722222541826e-05,15.0904426560329
4.71706612720536e-05,15.1004426560329
4.88316832618473e-05,15.1104426560329
5.07926234622472e-05,15.1204426560329
5.30145177598236e-05,15.1304426560329
5.54753608099111e-05,15.1404426560329
5.81654453588231e-05,15.1504426560329
6.10842038644428e-05,15.1604426560329
6.42381219221621e-05,15.1704426560329
6.76394125099558e-05,15.1804426560329
7.1305235888824e-05,15.1904426560329
7.52573218511095e-05,15.2004426560329
7.95219022014994e-05,15.2104426560329
8.4129897495382e-05,15.2204426560329
8.91173285148035e-05,15.2304426560329
9.45259437646301e-05,15.2404426560329
0.000100404072217579,15.2504426560329
0.000106807727696691,15.2604426560329
0.000113802009468927,15.2704426560329
0.000121462864725928,15.2804426560329
0.000129879304901581,15.2904426560329
0.000139156202156317,15.3004426560329
0.000149417838911934,15.3104426560329
0.000160812447931084,15.3204426560329
0.000173518071879609,15.3304426560329
0.000187750203002417,15.3404426560329
0.000203771856424069,15.3504426560329
0.000221907018010541,15.3604426560329
0.000242558843964134,15.3704426560329
0.0002662346646402,15.3804426560329
0.00029358091331156,15.3904426560329
0.000325432830951839,15.4004426560329
0.000362886675476913,15.4104426560329
0.000407407090361115,15.4204426560329
0.000456698710638503,15.4296923063892
0.000510670034310277,15.4381839761351
0.000569550632319986,15.4459807202707
0.000633617086072435,15.4531428349816
0.000703156121939671,15.4597253589297
0.000778454101805255,15.4657786262224
0.000859795489971983,15.4713489348726
0.000947457951843712,15.4764784969359
0.0010417209783519,15.4812061975055
0.0011428643871362,15.4855677352668
0.001251174511096,15.4895959138
0.00136695410534135,15.4933210020954
0.00149052564077038,15.4967708901511
0.00162225505375811,15.4999714159973
0.00176256528148346,15.5029465647696
0.00191196698428639,15.5057187370916
0.00207110362037348,15.5083090337015
0.00224080549884328,15.5107375438413
0.00242218229976623,15.5130237713987
0.00261676430315335,15.5151871415856
0.00282673230060508,15.5172478202325
0.00305532631118455,15.5192280594789
0.00330764699479031,15.5211547521969
0.00359243738288455,15.5230651223024
0.00392694849625105,15.5250223677343
0.0043562301836405,15.5271786036756
0.00490608736989181,15.5294974497829
0.00533748480245982,15.531050895997
0.00583018938503675,15.5326043422111
0.00634440950928268,15.5340256381626
0.00690535932639838,15.5353906602829
0.00755701161189918,15.536783371773
0.00837241002295955,15.5382976519401
0.00936786869796186,15.539884009419
0.0104765713652569,15.5413973801412
0.0117262042166499,15.5428670133107
0.0132149795316857,15.5443800095511
0.0151321586655152,15.5460602858416
0.0173645490505491,15.5477632345603
0.0192231885618632,15.5490492238952
0.0211859059484213,15.5503352132301
0.022949428517408,15.5514710208537
0.0245314574775029,15.5525130925936
0.0259608877863695,15.5535161665041
0.0272364564054929,15.554518102261
0.028337731296711,15.5555563304939
0.0292227184136168,15.5566841582328
0.0298022231830464,15.5580147755273
0.0297210089971371,15.5600606862391
0.0290620125210777,15.5614675865413
0.028031021677645,15.5628744868436
0.0268206813704327,15.5641947004047
0.0254372559961852,15.5655341004476
0.0238911513290606,15.5669410596417
0.022191595885141,15.5684548241493
0.0207772311269455,15.5697248483907
0.0194154423871029,15.5709948726321
0.0177994806220704,15.5726164579338
0.0150767421324377,15.5757414113975
0.0129026807593735,15.5787820840665
0.0113270791076412,15.5815071286669
0.0101628196213502,15.5840253133098
0.00927347288631486,15.586506321173
0.00861806493980731,15.5890395547795
0.00821118136174169,15.591594176119
0.00806597254207068,15.5939359985234
0.00813608005938763,15.5961169117694
0.00839884626966379,15.5981888029279
0.00885339277458776,15.6002100407277
0.00953098364378153,15.6022684586125
0.0105284579545438,15.6045152134345
0.0120448644281165,15.6071508142221
0.0140083536998481,15.6098776199622
0.0155468771866384,15.6116847947933
0.0173086010308941,15.6134919696243
0.0191282994459426,15.6151168089614
0.0210450475813991,15.6166067638491
0.0231240909628069,15.618010322597
0.0254152084629148,15.6193488384302
0.0279607666303562,15.6206316824438
0.0308049791885347,15.6218651568104
0.0339921357438285,15.6230527551492
0.0375698499735315,15.6241972460808
0.0415905720108182,15.625301169001
0.0461133622387509,15.6263671000133
0.0512057848994144,15.6273977396707
0.0569460951332792,15.6283959340816
0.0634258932739872,15.6293646780123
0.0707533373616239,15.6303071077547
0.0790573223751426,15.6312265188577
0.0884927079109417,15.63212637937
0.0992479218070997,15.6330104252721
0.111554599368693,15.6338827179732
0.125701104619839,15.6347477575798
0.142052068330475,15.6356106679742
0.161077589234258,15.6364774877439
0.183401733615614,15.6373557511943
0.209898343309188,15.6382558978228
0.2405855307799,15.6391584813753
0.276142385414709,15.6400694712035
0.317587891109734,15.6410024899255
0.366620757676452,15.6419859760234
0.404264764141512,15.642685628756
0.443200843677929,15.6433852814886
0.477813463352514,15.6440095554772
0.508239121351347,15.6445838400164
0.535012222937475,15.6451382010844
0.558075320492162,15.6456960344424
0.576857937673295,15.646282942327
0.589985912852554,15.6469401995678
0.593896283508321,15.647675443826
0.585888547660498,15.6484367382034
0.564651592207622,15.6492465356768
0.530702117906727,15.6500710914475
0.483693893782598,15.6509228599132
0.421148973554132,15.6518320970736
0.369282407255184,15.6524824079867
0.312425657201408,15.6531327188999
0.263197944251733,15.6536658887914
0.222040808006546,15.6541034950014
0.186419036076062,15.6544849055995
0.154792788471193,15.6548325339551
0.12628611666603,15.6551595362732
0.100322577056829,15.6554751744778
0.0764459846528546,15.6557876156264
0.054187255406244,15.656106567256
0.0327975682490449,15.6564496630809
0.0095287746237041,15.6568851767344
0.000305140932865745,15.6570843155621
-0.00807175725213797,15.6572834543898
-0.0147068741657197,15.6574568485433
-0.0208868308594842,15.657634057242
-0.0271154163607599,15.6578320700249
-0.0331356314488102,15.6580474514838
-0.0387837648589879,15.6582781421201
-0.0439682770087413,15.658523411603
-0.0486412240165413,15.6587834212031
-0.0527811557028729,15.6590589785827
-0.0563829746591063,15.6593514206377
-0.0594517042892249,15.6596625761121
-0.0619984686096532,15.6599947841667
-0.0641438459576364,15.6603759811406
-0.0656177814756463,15.6607581668939
-0.0666095455168438,15.6611719342879
-0.0671337614228814,15.6616231967316
-0.0671996358167549,15.6621190727908
-0.0668102408661768,15.662668826882
-0.0659571226802045,15.6632861967085
-0.0646153711747524,15.6639895883114
-0.0627322003029726,15.664807039978
-0.0601941968977994,15.665788014319
-0.0566967363357854,15.6670499747701
-0.0526492807057469,15.6684650472054
-0.0487156964423628,15.6698361540656
-0.0449507527480805,15.6711681814623
-0.041382331868775,15.6724631374002
-0.038025427459482,15.6737216320033
-0.0348876238678409,15.674943576875
-0.0319714732530438,15.6761285573521
-0.0292757294572204,15.6772760293644
-0.0267961379555757,15.6783854216134
-0.0245260441048532,15.6794561845428
-0.0224569177990263,15.6804878076122
-0.0205788293080344,15.6814798163998
-0.0188808828722468,15.6824317559245
-0.0173516070514904,15.6833431637278
-0.0158958031943106,15.6842683376239
-0.0145030594157676,15.6852173873521
-0.0131775952343419,15.6861921288537
-0.0119233433397487,15.6871947694932
-0.0107440207070636,15.6882279086424
-0.00964307490961297,15.6892946362828
-0.00862362837034653,15.6903986631198
-0.00768841943454659,15.6915444969826
-0.00683973977348596,15.692737687827
-0.00607936702756134,15.6939851778631
-0.00540849065511949,15.6952958192365
-0.00482762727529183,15.6966811717327
-0.00433651894705523,15.6981567967263
-0.00393400200056101,15.6997444986444
-0.00363154751087598,15.7013864038835
-0.0034162464323784,15.7030812672872
-0.00327179743360285,15.7048476050278
-0.00318284432212623,15.7067086980036
-0.00313438992001328,15.7086962091882
-0.00311111595542435,15.7108561655907
-0.00309620540363477,15.7132619828654
-0.00306866518155105,15.7160489705158
-0.00299409962966822,15.7195457936445
-0.00286483381299187,15.7230481488025
-0.00270240191203056,15.7262192457872
-0.00251375021053481,15.7292410123132
-0.00230391810612071,15.7322028706035
-0.00207690682696632,15.73515531491
-0.00183578578851751,15.7381324435395
-0.00158282259751876,15.7411602600276
-0.00131961041728899,15.744260396358
-0.00104717025482206,15.7474521136758
-0.000766035990281264,15.7507534676032
-0.00047632765497241,15.75418205189
-0.000177805858744154,15.7577556167374
0.000130096497898698,15.761492674306
0.000448282498400783,15.7654132923147
0.000778068010057561,15.7695403897581
0.00112137326284774,15.7739020724103
0.00148106836604561,15.7785354382441
0.00186153220474527,15.7834924103858
0.00225352588284451,15.7886360464615
0.00261660586323116,15.7934040712336
0.0029411130694325,15.7976482268287
0.0032520491484715,15.8016836125663
0.00356083414453155,15.8056440477144
0.00387451833943639,15.8096033991018
0.00419864182070741,15.8136119248719
0.00453835567898992,15.8177095233746
0.00489892563627981,15.8219306474034
0.005286132029694,15.8263073392646
0.00570668331749002,15.8308714231022
0.00616871146110683,15.835655933717
0.00667819236946761,15.8406548876123
0.00720733528516651,15.8455426604648
0.00776941617518533,15.8504071694798
0.00836495574403351,15.8552065008413
0.00899987028361907,15.8599408470234
0.00968039403526538,15.8646053564342
0.010419058465409,15.8692281833863
0.0112394223192498,15.8738808735446
0.0121573003381009,15.8785609012626
0.0131965494268079,15.8832888579737
0.0143908726651898,15.8881030092074
0.0157966483772449,15.8930920947787
0.0175370098867242,15.8984987085012
0.019965295332278,15.9050680888561
0.0215781221809028,15.9090473085795
0.023243886231503,15.9130265283029
0.0246941838336779,15.9165454177441
0.0259152316448704,15.919726515871
0.0269296832219873,15.9227610131887
0.0277019942378549,15.9256776143018
0.0282073349420663,15.92849688671
0.0284389834903011,15.9313437115895
0.0283550528810623,15.9343951174184
0.0277963528107609,15.9381092346186
0.0269801351946377,15.9412212057475
0.025902052992027,15.9443331768765
0.0248197600813053,15.9469918837971
0.0237467512042411,15.9493978171153
0.0226736831719927,15.9516771290922
0.0216006592305668,15.9538873656879
0.0205308241636745,15.9560603417698
0.0194679046763384,15.9582167632033
0.0184155683703366,15.9603715677048
0.0173772528451543,15.9625363341549
0.0163561180789058,15.9647205653964
0.0153550488437223,15.9669324231635
0.0143766557080548,15.9691792197473
0.013423293306198,15.9714677269019
0.0124970674337952,15.9738044200927
0.0115998423544718,15.9761956689158
0.0107332556445581,15.9786478740617
0.00989872164940007,15.9811676139322
0.00909744037181787,15.9837617693198
0.00832492264495386,15.9864575444087
0.00756540537461681,15.9893333743188
0.00682271467616731,15.9924096471418
0.00610063308232664,15.9957108464959
0.00540314358417845,15.9992652336702
0.00473438904467455,16.0031055476757
0.00409859423373092,16.0072699634355
0.00349994186526103,16.0118035012243
0.00294238370179523,16.0167603852027
0.00242937664066531,16.0222083734107
0.00196363637457773,16.0282359506706
0.00154712636291232,16.0349620445443
0.0011942506616272,16.042243187299
0.000901140767830957,16.0501375029352
0.000661156065888686,16.0587810827794
0.000468167656231114,16.0683536851934
0.000329034655146114,16.0783536851934
0.000237177287300182,16.0883536851934
0.000174432930124734,16.0983536851934
0.000130771855625683,16.1083536851934
0.000100437521203693,16.1183536851934
7.96659904095135e-05,16.1283536851934
6.57250568744933e-05,16.1383536851934
5.65887644345909e-05,16.1483536851934
5.07957703389061e-05,16.1583536851934
4.73278952907806e-05,16.1683536851934
4.54908815161107e-05,16.1783536851934
4.48139328720565e-05,16.1883536851934
4.49765468316435e-05,16.1983536851934
4.57597104054126e-05,16.2083536851934
4.70142321607939e-05,16.2183536851934
4.86398148315503e-05,16.2283536851934
5.05707459938233e-05,16.2383536851934
5.27658924299514e-05,16.2483536851934
5.52016888660591e-05,16.2583536851934
5.78672848204267e-05,16.2683536851934
6.07612490778611e-05,16.2783536851934
6.38893857586373e-05,16.2883536851934
6.72633390997825e-05,16.2983536851934
7.08997628590817e-05,16.3083536851934
7.48199045803595e-05,16.3183536851934
7.90495080174655e-05,16.3283536851934
8.36189744279472e-05,16.3383536851934
8.8563750701644e-05,16.3483536851934
9.39249335463942e-05,16.3583536851934
9.97500971024329e-05,16.3683536851934
0.000106094368515723,16.3783536851934
0.000113021793988906,16.3883536851934
0.000120607058517786,16.3983536851934
0.000128937648113324,16.4083536851934
0.000138116576648224,16.4183536851934
0.000148265844470946,16.4283536851934
0.00015953085824335,16.4383536851934
0.000172086129478548,16.4483536851934
0.000186142695787288,16.4583536851934
0.000201957893826256,16.4683536851934
0.000219848388079087,16.4783536851934
0.000240207776339227,16.4883536851934
0.000263530736477426,16.4983536851934
0.000290446694867859,16.5083536851934
0.00032176763786667,16.5183536851934
0.000358557408525911,16.5283536851934
0.000402234473813251,16.5383536851934
0.000451001547037963,16.5476884220875
0.000504441704659496,16.5562613007216
0.000562764480492268,16.564132327573
0.000626242642322781,16.5713622767713
0.000695162193873519,16.57800675361
0.00076980939558976,16.5841165712386
0.000850469314557935,16.5897384785921
0.000937420167633739,16.5949151287459
0.00103094131989629,16.5996857357935
0.00113131226830995,16.6040863665586
0.00123881865281174,16.6081501056498
0.00135376102253601,16.6119075151964
0.00147645870322771,16.6153867189221
0.00160727314718828,16.6186137865811
0.00174661835518348,16.6216128855515
0.00189499460075125,16.6244065870306
0.00205302836632686,16.6270161192735
0.00222152482931159,16.6294616676529
0.00240155776114256,16.6317627801796
0.00259460194248258,16.6339388544777
0.00280275010590193,16.6360099235792
0.00302909553328031,16.6379979124908
0.00327847245073955,16.6399290032288
0.00355907178290956,16.6418387963514
0.0038867329845605,16.6437860879371
0.00430102644341504,16.6459052382162
0.00484330966030236,16.6482384419326
0.00527449170417592,16.6498211477112
0.00576784761108594,16.6514038534897
0.00627918199626759,16.6528399355233
0.00683229306020227,16.6542071673665
0.00746969812125552,16.6555919588659
0.008258697478976,16.6570842449819
0.00924164117400652,16.6586809709516
0.010335542524002,16.6602019081402
0.0115659499979342,16.6616748391758
0.0130182435270177,16.6631769127398
0.0148660122793362,16.6648259952382
0.0177080342039573,16.666992911269
0.0195191265446176,16.6682314668107
0.0214185906057553,16.6694700223524
0.0231536932093643,16.6705882582643
0.0247160029689976,16.6716230114993
0.0261269707700779,16.672624034876
0.0273825110491171,16.673628281645
0.0284599453282405,16.6746741053487
0.0293136499627723,16.6758186172772
0.0298434363441223,16.6771907786199
0.0296129962660886,16.6793635663754
0.0288750562966459,16.6807475209677
0.0277993699484766,16.6821314755601
0.026551453133233,16.6834512987797
0.0251331339332331,16.6848015453839
0.0235544239363208,16.6862273837821
0.0218235302925388,16.6877686934811
0.0206584090169243,16.6888180656931
0.0195323391960659,16.6898674379052
0.0174039754181012,16.6920209524137
0.0146191882967794,16.6953159559944
0.0125604714387993,16.6983111912532
0.0110747015258801,16.700990544209
0.00997520256236516,16.7034793347624
0.0091307031344222,16.705967618327
0.00852006851183062,16.7085138951193
0.00816622240682421,16.7110246623408
0.00806331049621464,16.7133341504226
0.00817012440054991,16.7154923894953
0.00846831426139303,16.7175531791848
0.00896297401995613,16.7195809549689
0.009691786446211,16.7216628540677
0.0107725408940069,16.7239736467488
0.0123703265527098,16.726630924767
0.0144097104694997,16.7293589142356
0.0159507669274664,16.7311080816173
0.0177111785119157,16.7328572489991
0.0195438886933221,16.7344438892685
0.0214909754545463,16.735911071659
0.0236094771505119,16.7372965769564
0.0259549751352591,16.7386231362893
0.0285627996336759,16.7398946069477
0.0314788618969419,16.7411176113056
0.0347481035814937,16.7422954258088
0.0384190373366285,16.7434307144325
0.0425454255750665,16.744526006786
0.0471880287004602,16.7455838965289
0.0524165691897575,16.7466071132502
0.0583119937550889,16.7475985332973
0.0649692533551136,16.748561182152
0.0725007098846955,16.7494982317426
0.0810405443931682,16.7504130182974
0.0907502411740383,16.7513090528075
0.101826866806622,16.7521901394969
0.11451327406332,16.7530604254012
0.129112756896996,16.7539245303551
0.146010294754713,16.7547877493676
0.165704865142947,16.7556563855832
0.188864839204594,16.7565384459019
0.216276377345832,16.7574403000349
0.24796503182715,16.7583439114989
0.284716774508089,16.7592582952495
0.327647086703865,16.7601991090015
0.378742621519643,16.7612011606544
0.415349305980179,16.761872187333
0.452806909085217,16.7625432140116
0.486197144082312,16.7631501940894
0.515635346643572,16.7637167295744
0.541457304551595,16.7642698072244
0.56347171618803,16.7648325050618
0.580948094705867,16.7654327473625
0.592144713002664,16.7661209197822
0.592964724751703,16.7668609051647
0.581589927546137,16.7676329936853
0.55650227554911,16.768459300451
0.519326023598864,16.7692839135992
0.468158297830989,16.7701522476827
0.402045350024926,16.7710657799537
0.352482093575093,16.77166587648
0.299002491922393,16.7722659730063
0.252319017265622,16.7727677567807
0.212762463075609,16.7731882155047
0.178242906621493,16.773559626824
0.147456493602871,16.77390112442
0.11962753736764,16.7742245258358
0.0942223480540136,16.774538602925
0.0707948907474189,16.7748516140653
0.048844330577758,16.7751743097539
0.0274394796136351,16.7755290851686
0.0103020843853337,16.7758552971067
0.000872792351470797,16.7760575097607
-0.00768106447985737,16.7762597224147
-0.0143736103968354,16.7764337665983
-0.0205405289958819,16.7766096774489
-0.0267737292645089,16.7768066313894
-0.032810582241954,16.7770211205401
-0.0384822088317597,16.7772509933182
-0.0436939427229521,16.7774954590666
-0.0483959565724775,16.7777546375746
-0.0525656452590029,16.7780293046721
-0.0561971951518328,16.7783207695121
-0.0592951895591222,16.7786308335962
-0.0618704947664867,16.7789618064719
-0.0640161852595802,16.7793351880198
-0.0655256659892514,16.7797151421274
-0.0665522408170377,16.7801263920125
-0.0671104197516521,16.7805746813593
-0.0672097600467311,16.7810669980001
-0.0668538777437311,16.7816124197423
-0.0660354006108662,16.7822242818826
-0.064730854492476,16.7829205667559
-0.0628902077564323,16.7837283461192
-0.0604066942861949,16.7846947260243
-0.0570014325602084,16.7859280049253
-0.0529482202873148,16.7873469972705
-0.0490037585105086,16.7887211656932
-0.0452250522724182,16.7900560152606
-0.0416413365786937,16.7913537035092
-0.0382683164969471,16.7926149153098
-0.0351140252424212,16.7938395985798
-0.0321813393577804,16.7950273546242
-0.0294692655245168,16.7961776446319
-0.0269737511607187,16.7972898971419
-0.0246883017918258,16.7983635600683
-0.022604510446779,16.7993981198545
-0.0207125361824862,16.8003930998139
-0.0190015412963404,16.80134804433
-0.0174600847909604,16.8022624926243
-0.0159999012329895,16.8031859559619
-0.0146024064594114,16.8041332086952
-0.0132718977080385,16.805106005071
-0.0120123209724102,16.8061065273185
-0.0108274107835617,16.8071373431659
-0.00972063623307035,16.8082015028525
-0.00869514543187213,16.8093026664904
-0.00775370682819029,16.8104452764579
-0.0068986469113534,16.8116347963822
-0.00613178325423454,16.8128780518975
-0.00545435094755538,16.8141837331115
-0.0048669189142644,16.8155631663038
-0.0043692897294989,16.8170315604881
-0.00396037123657888,16.8186101551218
-0.00365073340360259,16.8202489304336
-0.00342954656182554,16.8219392578886
-0.00328037859127591,16.8236995741129
-0.00318782668066577,16.8255526804362
-0.00313688681615763,16.8275294628896
-0.00311229583930309,16.8296745649435
-0.00309741006856863,16.8320586147894
-0.00307171523780604,16.8348100234334
-0.00300258680896037,16.838231664757
-0.00287631742486775,16.8417734417369
-0.00271618883071381,16.8449625482286
-0.00252940079564127,16.8479920565198
-0.00232107579872646,16.8509564963872
-0.00209529280314025,16.853908300649
-0.00185518971576047,16.8568824642973
-0.00160309230792625,16.8599054582328
-0.00134064239657489,16.8629991746127
-0.00106890295037351,16.866183007855
-0.000788443088548061,16.8694750804191
-0.00049941319525872,16.8728929984138
-0.000201600593812301,16.8764544787699
0.000105536391154348,16.8801779486739
0.000422872810132365,16.8840833161133
0.000751686883451979,16.8881932076583
0.00109384106342225,16.8925352046886
0.00145211401131917,16.8971455195758
0.00183073770138197,16.9020746186406
0.0022217401474025,16.9072032410945
0.00259012072794302,16.9120418170797
0.00291647985394604,16.9163119393655
0.00322797952254956,16.9203575817459
0.0035366541581384,16.9243207759017
0.00384975240990832,16.9282782242906
0.0041728822973101,16.9322814163836
0.00451120036950855,16.9363707887863
0.00486995160463495,16.9405811305024
0.00525486097215681,16.9449445700599
0.00567254903186939,16.9494928939225
0.00613101476547039,16.9542589981073
0.00663919265301735,16.959266990391
0.00716592988660584,16.9641554800667
0.00772565263335501,16.9690246125905
0.00831842169363337,16.9738285502165
0.00895016506275281,16.9785681646851
0.00962696522119343,16.9832379525402
0.0103599547683961,16.9878582953806
0.0111736847425911,16.9925094810063
0.0120833605577828,16.9971867504917
0.0131123457365739,17.0019100848351
0.0142932740269539,17.006715479122
0.015679964280215,17.0116858633217
0.0173867787950942,17.0170435204669
0.0198135146122931,17.0236657079842
0.0214463924024483,17.0277133958414
0.0231392420810119,17.0317610836985
0.024607711060205,17.0353146043404
0.025842588169223,17.0385111296902
0.0268704044112427,17.0415506338036
0.0276602269657072,17.0444776466813
0.028182764384235,17.0472996842282
0.0284328110448828,17.0501403807216
0.0283718007322716,17.0531704987822
0.0278559925004307,17.0568084992614
0.027048406171886,17.0599810159696
0.0259643271560239,17.0631535326778
0.0248795687818961,17.0658364373225
0.0238062848901323,17.0682524196411
0.0227332607607402,17.0705369052958
0.0216601629806985,17.0727499983422
0.0205900546117258,17.0749244285243
0.019526653466663,17.0770813375658
0.0184736374483789,17.0792359036762
0.0174344582544713,17.0813998528591
0.016412291803155,17.0835827797188
0.0154100380415043,17.0857929059902
0.0144303221835233,17.0880375821869
0.0134755136480098,17.0903236011957
0.0125477304361838,17.0926574529427
0.011648850543704,17.0950455073907
0.010780524663861,17.09749415776
0.00994417821150897,17.10000997231
0.00914102346005359,17.1025998101125
0.0083678824697818,17.1052860631284
0.00760753014628455,17.108151324331
0.0068637992360425,17.1112157558997
0.00614045973402599,17.1145036500759
0.00544148457289355,17.1180430382771
0.00477100937327435,17.1218663861727
0.00413325696419532,17.1260115334151
0.00353241669526705,17.1305230671812
0.0029724595539127,17.1354546070734
0.0024568780830884,17.1408729868999
0.00198843319088022,17.1468652924747
0.00156911850783122,17.1535484753625
0.00121264946829704,17.1607978770003
0.000916324013799004,17.1686540257358
0.000673487696309901,17.1772506536649
0.000477982956775634,17.1867646212695
0.00033556737458448,17.1967646212695
0.00024160682359047,17.2067646212695
0.000177480286166269,17.2167646212695
0.000132876489296889,17.2267646212695
0.000101881518610776,17.2367646212695
8.06434055273533e-05,17.2467646212695
6.63744047345138e-05,17.2567646212695
5.70089071349921e-05,17.2667646212695
5.10560784566204e-05,17.2767646212695
4.74762525973548e-05,17.2867646212695
4.55600600979724e-05,17.2967646212695
4.48263292884906e-05,17.3067646212695
4.49474768299983e-05,17.3167646212695
4.56996226440841e-05,17.3267646212695
4.69301911773852e-05,17.3367646212695
4.85365097572097e-05,17.3467646212695
5.0451187812138e-05,17.3567646212695
5.26318990392541e-05,17.3667646212695
5.50542210397336e-05,17.3767646212695
5.77066761069452e-05,17.3867646212695
6.05873603008984e-05,17.3967646212695
6.37017060187666e-05,17.4067646212695
6.70610486068852e-05,17.4167646212695
7.06817680420482e-05,17.4267646212695
7.45848523949336e-05,17.4367646212695
7.87957838612095e-05,17.4467646212695
8.33446862542821e-05,17.4567646212695
8.82667005487968e-05,17.4667646212695
9.36025765763249e-05,17.4767646212695
9.93994872427552e-05,17.4867646212695
0.000105712088803154,17.4967646212695
0.000112603868620811,17.5067646212695
0.000120148842313845,17.5167646212695
0.0001284336874309,17.5267646212695
0.000137560433594056,17.5367646212695
0.000147649873242626,17.5467646212695
0.000158845918227426,17.5567646212695
0.000171321213742181,17.5667646212695
0.000185284444925187,17.5767646212695
0.000200989952346856,17.5867646212695
0.000218750541360636,17.5967646212695
0.000238954776934181,17.6067646212695
0.000262090682951768,17.6167646212695
0.000288778753709686,17.6267646212695
0.000319818780360146,17.6367646212695
0.000356257635440715,17.6467646212695
0.000399489656588985,17.6567646212695
0.00044797698530828,17.666145042056
0.000501133421684408,17.6747615259053
0.000559157967139228,17.6826724404464
0.000622321261308776,17.6899388162689
0.000690908861549962,17.6966165630745
0.00076520693076886,17.7027567523926
0.000845500768310339,17.7084063732891
0.000932068876699887,17.7136083172947
0.00102519043106075,17.7184019739897
0.00112514475340536,17.7228236069354
0.00123221705450636,17.7269064534139
0.00134670658078616,17.7306812314182
0.0014689310879929,17.7341761916304
0.00159924945900073,17.7374175274238
0.00173807106906829,17.7404295051142
0.00188589072795604,17.7432347881423
0.00204332581324761,17.7458546732118
0.00221116842489557,17.748309399211
0.00239047359499419,17.7506185396369
0.00258268721283437,17.7528014815939
0.00278985638877174,17.7548781928272
0.00301499915644595,17.7568704346518
0.00326281423582715,17.7588040338451
0.00354121577002273,17.7607137862052
0.00386535292584693,17.7626563511614
0.00427225679585065,17.7647579014211
0.00481061345097549,17.7670987889627
0.00524263350186987,17.7687004185252
0.00573757003518654,17.7703020480877
0.00624777301522329,17.7717461693665
0.00679729852234548,17.7731149065474
0.00742817491223979,17.7744963921427
0.00820524928986213,17.77597902477
0.00918234717533792,17.7775808011261
0.0102693675434426,17.7791054835373
0.0114909032194462,17.7805801911561
0.0129265691758882,17.7820775132426
0.0147437472387908,17.7837132781364
0.0175157451773149,17.7858455771665
0.0193383053262167,17.7871003016254
0.0212568069803928,17.7883550260842
0.0230099452509318,17.7894842761337
0.0245860760796767,17.7905240603527
0.0260101021832142,17.7915264700287
0.0272798332844296,17.7925290208307
0.0283741840035057,17.7935693922984
0.0292501280084254,17.7947019473321
0.0298154516157465,17.7960441631594
0.0296931987366385,17.798124343717
0.0290119480660669,17.7995235760668
0.0279690267831257,17.8009228084166
0.0267485180049176,17.8022425006227
0.025355573964273,17.8035846595989
0.0238005700710218,17.8049965874945
0.0220925104321882,17.8065176111942
0.0207855762792329,17.807691650617
0.0195233092726436,17.8088656900398
0.0180075813097721,17.8103737810748
0.0153105139905685,17.8134227549239
0.013075524327798,17.8164894539138
0.0114537681959879,17.8192387473479
0.010256960106563,17.8217720950107
0.00934568334695008,17.8242499612134
0.00866862671237109,17.8267771704542
0.00823556782137318,17.8293526670431
0.00806951656187359,17.8317112156756
0.00812187652107445,17.8339047294128
0.00836818614811944,17.8359848987201
0.00880581345127974,17.8380097211178
0.00946156448919563,17.8400602054558
0.0104249298110858,17.8422827283907
0.011905825023159,17.8449085564077
0.013834479845539,17.8476323228397
0.0153730036070552,17.8494669126416
0.017137060611227,17.8513015024436
0.0189522383690234,17.8529438037103
0.0208563768922631,17.8544436801618
0.0229155547042536,17.8558528705162
0.0251858908915883,17.8571979193629
0.0277050544568096,17.8584856603912
0.0305187124024072,17.859723635475
0.0336710301152778,17.8609154886363
0.0372091768094774,17.8620639948082
0.0411850479310883,17.8631716917873
0.0456569841723349,17.8642411440769
0.0506916551155992,17.8652750408315
0.056366200204864,17.8662762160389
0.0627708462041839,17.8672476541414
0.0700118969267668,17.8681924619128
0.078216166554278,17.8691139343028
0.0875356566599907,17.8700155098249
0.098155266889719,17.8709009025226
0.110301958285828,17.8717741360959
0.12425793466809,17.8726396621003
0.140379479620054,17.873502535692
0.159124907965968,17.8743686887861
0.181100530545482,17.8752454721399
0.207149552010891,17.8761429392803
0.237406292058103,17.8770451946616
0.272451746471041,17.8779548996156
0.313267761503038,17.8788849068407
0.361449521854049,17.8798613649291
0.399550269146933,17.8805743104965
0.439140111634924,17.881287256064
0.474290581382303,17.8819197241247
0.505131711896871,17.8824977859875
0.532292833096908,17.8830531308431
0.55577414918857,17.883609476021
0.57506531780453,17.884191718216
0.58891472436866,17.8848382682873
0.594027259335729,17.8855721111968
0.587317155447332,17.8863296050595
0.567551859581698,17.8871333129918
0.534790404077175,17.8879596098206
0.489312897902515,17.8888056264036
0.428315536555492,17.8897107404693
0.375557102820508,17.8903817660545
0.3173463079549,17.8910527916397
0.267124652188795,17.8915984923533
0.225361128341677,17.8920427545181
0.189332596518338,17.8924279716523
0.157400901452563,17.8927779243516
0.12864942197643,17.893106315331
0.102484377160516,17.8934226153625
0.078444244396822,17.8937349953521
0.0560676084615907,17.8940528804746
0.0346526509645519,17.8943926555596
0.0118860099888749,17.8948116808657
0.00163365316274825,17.8950290241378
-0.00760385941204311,17.8952463674098
-0.0143350448517635,17.8954212804951
-0.0205013905200379,17.8955970688811
-0.0267351031146364,17.8957939023294
-0.0327738241938028,17.8960082893672
-0.0384481069603683,17.8962380686432
-0.0436629262871944,17.8964824426184
-0.0483682383800847,17.8967415263457
-0.0525413054570436,17.8970160920315
-0.0561762313675566,17.8973074456541
-0.0592775493510753,17.8976173856624
-0.0618560962235934,17.8979482182924
-0.0640016912204568,17.8983207023331
-0.0655152314121455,17.8987004026788
-0.0665457814084241,17.8991113665532
-0.0671078367608217,17.8995593184728
-0.0672109939379896,17.9000512315938
-0.0668589298273917,17.9005961628243
-0.0660443927973911,17.9012074023965
-0.0647440688612574,17.9019028857344
-0.0629082302089978,17.9027095779687
-0.0604308344029597,17.9036743285241
-0.0570357224978611,17.9049044663683
-0.0529818752959816,17.9063239075202
-0.0490362016263062,17.9076984208139
-0.045255951852052,17.9090335878865
-0.0416705167917547,17.9103315833539
-0.0382956829987044,17.9115931006183
-0.0351395347428695,17.9128180917427
-0.0322049854731096,17.914006159856
-0.0294910704303191,17.9151567667493
-0.0269937600592074,17.9162693409445
-0.0247065781049509,17.9173433300668
-0.0226211313946879,17.9183782202125
-0.0207275893393599,17.9193735344297
-0.0190151208824727,17.9203288170178
-0.0174722886169491,17.9212436073731
-0.0160116116946787,17.9221668781012
-0.014613581713053,17.9231139285619
-0.0132825047231759,17.9240865060475
-0.0120223282318457,17.9250867899741
-0.0108367887787349,17.9261173445292
-0.00972935790200923,17.9271812155077
-0.00870318663819885,17.9282820573669
-0.00776104686902533,17.9294243051752
-0.00690526905541664,17.9306134129267
-0.00613767533095784,17.931856193261
-0.00545950601386607,17.9331613182469
-0.00487133599492684,17.9345400882123
-0.00437297477611921,17.9360076730925
-0.00396333839434717,17.9375852498661
-0.00365289185561809,17.9392236779999
-0.00343104395751484,17.94091350069
-0.00328134749938654,17.9426731466137
-0.00318839427496366,17.9445253640748
-0.0031371792808909,17.946500953507
-0.00311244519524852,17.9486444065721
-0.00309756707689665,17.9510260475522
-0.00307208227093046,17.9537735437775
-0.00300355294931022,17.9571870595676
-0.00287761840387261,17.9607335679451
-0.00271774665303574,17.9639247995484
-0.00253116654935386,17.9669552208393
-0.00232300999773597,17.9699199732857
-0.00209736466873376,17.9728717182538
-0.00185737605714304,17.9758455556354
-0.00160537633094823,17.9788680108218
-0.00134301263798041,17.9819610062467
-0.00107135254229327,17.9851439519218
-0.000790969030507399,17.9884349781882
-0.000502015833392913,17.9918516927933
-0.000204283237249844,17.9954118091213
0.000102767599483525,17.99913374501
0.000420008597851096,18.0030373907841
0.000748713786852563,18.0071453406935
0.00109073919620264,18.0114851180346
0.0014488533182242,18.0160928367875
0.00182727183109178,18.0210188015824
0.00221817274028177,18.0261458381694
0.00258718320045255,18.0309927685452
0.00291375968893155,18.0352659030814
0.00322532758890499,18.0393127344885
0.00353399395233837,18.043276262242
0.00384703057934304,18.0472335170642
0.00417005349655428,18.0512361301157
0.00450822007502217,18.0553245994614
0.00486677321058723,18.0595337529496
0.00525143191311902,18.0638957293283
0.00566880722170948,18.0684423113689
0.0061268836851901,18.0732063799894
0.00663492087379211,18.0782153641698
0.00716139603807889,18.083103921904
0.00772086270781373,18.0879735573058
0.00831333092932922,18.0927779969317
0.0089447302191779,18.0975181891603
0.00962112620076022,18.1021885567135
0.0103534992278738,18.1068086283974
0.0111665088083015,18.1114596530911
0.0120752940196967,18.1161366260937
0.0131031657986283,18.1208594658817
0.0142826443370214,18.125663927621
0.0156672797758299,18.1306323324477
0.0173705323327578,18.1359848751305
0.0197970845465377,18.1426128555232
0.0214321991234234,18.1466682133048
0.0231280614958282,18.1507235710863
0.0245984976428974,18.1542808980068
0.0258348470452438,18.1574791087501
0.0268640758387314,18.1605191764425
0.0276557518931907,18.1634473224313
0.0281801040229184,18.1662696825555
0.0284320842908441,18.1691097713546
0.0283734646317708,18.172137727674
0.0278620095234204,18.1757681649653
0.0270553220335175,18.1789471720734
0.0259705662592814,18.1821261791815
0.0248855343267596,18.1848116136487
0.023812218930011,18.1872286242809
0.0227391991503386,18.1895136352928
0.0216660945970573,18.1917270182726
0.0205959596605344,18.1939015967752
0.0195325111598022,18.1960585568484
0.0184794280097749,18.1982131010456
0.0174401632887994,18.2003769702832
0.0164178945158668,18.2025597684121
0.0154155231435742,18.2047697232462
0.0144356758628639,18.2070141891296
0.0134807235690947,18.2092999610904
0.0125527854665042,18.2116335305612
0.0116537409312102,18.2140212675412
0.0107852419677602,18.2164695645188
0.00994871509160187,18.2189849887706
0.00914537380358813,18.2215743972107
0.00837217119526987,18.2242597032953
0.00761173616286813,18.2271239135693
0.00686790211491931,18.230187167773
0.00614443778571369,18.2334737391763
0.0054453151034177,18.2370116363562
0.00477466895183001,18.2408332978759
0.00413672194461125,18.2449765301759
0.00353566405821975,18.2494858776381
0.0029754681608439,18.2544149001971
0.00245963030231791,18.2598303407062
0.00199091588899247,18.2658191471094
0.00157132177986922,18.2724980755984
0.0012144933240493,18.2797443339874
0.000917846263433949,18.2875967038548
0.000674724736328277,18.2961886849362
0.000478968292469682,18.3056968526586
0.000336222823893698,18.3156968526586
0.000242050996720278,18.3256968526586
0.000177785676427477,18.3356968526586
0.000133087252000093,18.3456968526586
0.000102025975917211,18.3556968526586
8.07410338822886e-05,18.3656968526586
6.64391063557631e-05,18.3756968526586
5.70506055540314e-05,18.3856968526586
5.10817372177509e-05,18.3956968526586
4.74906779245376e-05,18.4056968526586
4.55665407083793e-05,18.4156968526586
4.48271120053318e-05,18.4256968526586
4.49440975091242e-05,18.4356968526586
4.56931284977452e-05,18.4456968526586
4.69212896685342e-05,18.4556968526587
4.8525669851532e-05,18.4656968526587
5.0438709955095e-05,18.4756968526587
5.26179638311163e-05,18.4856968526587
5.50389229430481e-05,18.4956968526587
5.76900465057381e-05,18.5056968526587
6.05693829882563e-05,18.5156968526587
6.36823273107044e-05,18.5256968526587
6.70401836208081e-05,18.5356968526587
7.06593041878634e-05,18.5456968526587
7.45606507727026e-05,18.5556968526587
7.87696790068197e-05,18.5656968526587
8.33164844919262e-05,18.5756968526587
8.82361770705714e-05,18.5856968526587
9.35694712563269e-05,18.5956968526587
9.93634990919131e-05,18.6056968526587
0.000105672868870481,18.6156968526587
0.00011256101103621,18.6256968526587
0.000120101873035412,18.6356968526587
0.000128382050091532,18.6456968526587
0.000137503471619051,18.6556968526587
0.000147586807104956,18.6656968526587
0.00015877581628105,18.6756968526587
0.000171242954467061,18.6856968526587
0.000185196667539236,18.6956968526587
0.000200890991446942,18.7056968526587
0.000218638339317409,18.7156968526587
0.000238826764808437,18.7256968526587
0.000261943616094283,18.7356968526587
0.000288608480872228,18.7456968526587
0.000319619913178505,18.7556968526587
0.000356023065091034,18.7656968526587
0.000399209829768332,18.7756968526587
0.000447668430058735,18.7850819198484
0.000500795659820455,18.7937028393641
0.000558789450607488,18.8016178119548
0.000621920213619431,18.8088878941688
0.000690473448592338,18.8155690265767
0.000764735296044898,18.8217123069565
0.000844991062989248,18.8273647486564
0.000931519268097672,18.8325692674207
0.00102459904850092,18.8373652706849
0.00112450969343325,18.8417890419
0.00123153635018174,18.8458738339196
0.0013459781097466,18.8496503804821
0.00146815255417147,18.8531469452555
0.00159841827484489,18.8563897341131
0.00173718416048349,18.8594030234587
0.00188494443827192,18.8622094861147
0.00204231552573698,18.8648304257247
0.00221008816884721,18.8672860866579
0.00238931545902311,18.8695960450303
0.00258144031129906,18.8717796869794
0.00278850516163435,18.8738569737482
0.00301352037874127,18.8758496502938
0.00326117095054019,18.8777835079717
0.00353934318171399,18.8796932626291
0.0038631175963534,18.8816353631339
0.00426927817296229,18.8837351902861
0.00480722915945674,18.8860768817686
0.00523933414221555,18.8876804829541
0.00573443261030106,18.8892840841396
0.00624451443120986,18.890729034045
0.00679367076542471,18.8920979343087
0.00742388594889012,18.8934791052401
0.00819977033357224,18.8949608042662
0.00917627029987376,18.8965631046855
0.0102625875973148,18.8980881771255
0.0114832189516519,18.8995630740063
0.0129171969226186,18.9010599206227
0.0147313030822654,18.9026943617922
0.0174964131189942,18.9048232914991
0.0193200913706592,18.9060796489036
0.0212404790660853,18.9073360063082
0.0229954655225293,18.9084664026856
0.0245729957435445,18.9095067130471
0.0259983320651421,18.9105092764288
0.0272694795264774,18.9115116718714
0.0283655113965684,18.9125515175824
0.0292436524268058,18.9136829168329
0.0298124325044145,18.9150222869571
0.0297002809285126,18.9170939859877
0.0290244687659277,18.9184949940559
0.0279845180277289,18.9198960021242
0.0267665268337322,18.9212157900647
0.0253759300869337,18.9225572542695
0.0238231175175166,18.9239679451992
0.0221171605353023,18.9254871560307
0.0207868926529844,18.9266819956154
0.0195028562954115,18.9278768352001
0.0179741612689465,18.9294000200054
0.0152734772246199,18.9324603842828
0.0130482713133279,18.9355227933205
0.0114338484590171,18.9382681973211
0.010242178116467,18.9407991356951
0.00933433925150427,18.9432774745565
0.00866066795571401,18.9458056103645
0.00823175790961087,18.9483775882756
0.00806896004921479,18.9507335655619
0.0081241016060613,18.9529252520613
0.00837304534800482,18.9550044390863
0.00881356175111129,18.9570294745434
0.00947288171255463,18.9590813081027
0.0104418985631563,18.9613080139589
0.0119286294345652,18.9639354484762
0.013863091902756,18.9666598186025
0.0154015521320312,18.968489777346
0.0171651283250388,18.9703197360895
0.01898084390755,18.9719589946885
0.0208868104292675,18.9734570935056
0.0229485854696756,18.9748649838818
0.0252225543464075,18.97620917966
0.0277459489247472,18.9774961411796
0.0305644850609628,18.9787333920426
0.0337223620339976,18.9799245597766
0.0372668206020528,18.9810724186863
0.0412498462096827,18.9821795073483
0.0457298950571109,18.9832483922525
0.0507737789212413,18.9842817642071
0.0564588139278482,18.9852824589231
0.062875445507541,18.9862534625098
0.0701302747575514,18.9871978867579
0.078350445060249,18.9881190263886
0.0876884094714314,18.9890203243551
0.0983296274464263,18.9899054982086
0.110501804319372,18.9907785778644
0.124488118201274,18.9916440223952
0.140646173674058,18.9925068978
0.159436148074334,18.9933731528223
0.181467145136522,18.9942501668363
0.207587155109527,18.995148053131
0.237912361954775,18.9960503556587
0.273039084073624,18.9969602578113
0.313954912048793,18.9978907307328
0.362270789694309,18.9988682714459
0.400298612739112,18.9995790646379
0.439783861661278,19.00028985783
0.474848131627925,19.0009209900151
0.505623441411618,19.001498433076
0.532723583180044,19.0020536051553
0.556139544673834,19.0026101652325
0.575351693036777,19.0031931123088
0.58909002116028,19.0038412802124
0.594015729216466,19.0045753235337
0.587104410392282,19.0053333925557
0.567111379648423,19.0061380337693
0.53416780393946,19.0069639877736
0.488456000823264,19.0078108666487
0.427214893201056,19.0087166860887
0.374594103350159,19.0093844616414
0.316594258191926,19.0100522371941
0.266526701315496,19.0105959855146
0.224856563502781,19.0110392171436
0.188890287540421,19.0114238476789
0.157005179840488,19.0117734426456
0.128290977109061,19.012101619234
0.102156604482052,19.0124178153293
0.0781414047872483,19.012730200115
0.0557829041593693,19.013048239061
0.0343726206376499,19.0133884948278
0.0115388961144074,19.0138097911086
0.00145667041292016,19.0140240752592
-0.00763985962035839,19.0142383594098
-0.0143603971344046,19.0144130674857
-0.0205276021998653,19.0145889500191
-0.0267609981093225,19.0147858640915
-0.0327984804614875,19.0150003190038
-0.0384709953924091,19.0152301603355
-0.0436837584944225,19.0154745951765
-0.0483868709726792,19.0157337417559
-0.0525576839112577,19.0160083747077
-0.056190356275196,19.016299802119
-0.0592894551618426,19.0166098244988
-0.0618658372785566,19.016940750317
-0.0640113647811577,19.0173138047811
-0.0655222326916005,19.0176936713148
-0.0665501665185829,19.0181048228547
-0.0671096701855807,19.0185529962937
-0.0672103143413067,19.0190451744588
-0.0668557357748488,19.0195904280365
-0.0660386033887965,19.0202020769532
-0.064735497551697,19.0208980875713
-0.0628964900235348,19.0217054953184
-0.0604150611093775,19.0226713187601
-0.0570132582676163,19.0239035253109
-0.0529598193172423,19.0253226714838
-0.0490149332760963,19.0266969586121
-0.0452356892843122,19.0280319177033
-0.0416513755915078,19.0293297120828
-0.0382777252389067,19.0305910295072
-0.0351227889692436,19.0318158192907
-0.0321894560989555,19.0330036833476
-0.0294767431077356,19.0341540830615
-0.0269806054378342,19.0352664469571
-0.0246945549362706,19.0363402228433
-0.0226101892804527,19.0373748970396
-0.0207176712295345,19.0383699927655
-0.0190061653673646,19.0393250543738
-0.0174642319623237,19.040239621146
-0.016003877206385,19.0411630177496
-0.014606196918344,19.0421102004012
-0.0132754914036926,19.0430829209382
-0.0120157072148145,19.044083360615
-0.01083057962473,19.0451140859326
-0.00972357861689079,19.0461781455899
-0.00869785337002454,19.047279197739
-0.00775617358676915,19.0484216822246
-0.00690086720717163,19.0496110593348
-0.00613375347358646,19.0508541501994
-0.00545606940126617,19.0521596386724
-0.00486838610096203,19.0535388420357
-0.00437050870479992,19.0550069557525
-0.00396134809626485,19.0565851976113
-0.00365143782119249,19.0582238525229
-0.00343003065066741,19.0599140049727
-0.00328068927271125,19.0616740888094
-0.00318800902286783,19.0635268869715
-0.00313698555509416,19.0655032557954
-0.00311235774452507,19.0676477860735
-0.00309748843643581,19.0700310004971
-0.00307188137907675,19.0727810517219
-0.00300297737503461,19.0761998708028
-0.00287682908716544,19.0797434891809
-0.00271679216215105,19.0829334163917
-0.00253007834980776,19.0859632770782
-0.00232181388494809,19.0889278373892
-0.002096080922838,19.09187961837
-0.00185602002727721,19.0948536555195
-0.00160395915085376,19.0978764407878
-0.00134154190575082,19.1009698780197
-0.00106983281057845,19.1041533676625
-0.000789402299133669,19.107445035216
-0.000500401914633716,19.110862487417
-0.000202620034070808,19.1144234398183
0.000104483977721697,19.1181463159819
0.000421783989135566,19.1220510170501
0.000750556610024246,19.126160157067
0.00109266181155163,19.1305012949054
0.00145087432665781,19.1351106048178
0.00182941984002622,19.14003849048
0.00222038423128927,19.1451664963873
0.00258900935191661,19.1500082956562
0.00291545390454234,19.1542795815723
0.00322698141863088,19.1583256831616
0.00353565439858525,19.1622890056461
0.00384873047657662,19.1662463783231
0.00417182080442606,19.1702493454248
0.00451008229208425,19.1743383673154
0.00486875916298623,19.1785482479944
0.00525357414505472,19.1829111199109
0.00567114419664659,19.1874587680556
0.00612946282253012,19.192224082546
0.00663758980529629,19.197232449783
0.00716422983084218,19.2021209595236
0.00772385815492927,19.2069902793004
0.00831651610359863,19.2117944040758
0.00894813229289141,19.2165342347726
0.00962478277840742,19.2212042394716
0.0103575433309896,19.2258244816454
0.0111710054497505,19.2304756074169
0.0120803497850013,19.235152766193
0.0131089202349493,19.2398759156629
0.0142893081527708,19.244680961363
0.0156752319800593,19.2496506057494
0.017380716465095,19.2550063504067
0.019807384501268,19.2616306969731
0.0214410953548751,19.2656812399929
0.0231350671624233,19.2697317830127
0.0246042701003467,19.2732867222809
0.0258396970909776,19.2764838760546
0.0268680411085052,19.279523589973
0.0276585560683947,19.2824510254076
0.0281817715093668,19.2852731827823
0.0284325407730367,19.2881136513858
0.0283724242387942,19.2911429599987
0.0278582459663106,19.29477812509
0.0270509957092773,19.2979530641888
0.0259666648754104,19.3011280032876
0.0248818046183413,19.3038118535425
0.0238085090228712,19.3062282207215
0.0227354865347698,19.3085129030825
0.0216623862115494,19.3107261046828
0.0205922678771232,19.3129005903729
0.0195288489748252,19.315057518472
0.0184758077878383,19.3172120763058
0.0174365965325245,19.3193759954615
0.0164143917274291,19.3215588740061
0.0154120938847919,19.323768935949
0.0144323287723352,19.3260135332375
0.0134774663629691,19.3282994595573
0.0125496251096819,19.3306332053945
0.0116506835258933,19.3330211407213
0.0107822927969831,19.3354696584779
0.00994587875079394,19.3379853265485
0.00914265412125477,19.3405750031875
0.00836949003148829,19.3432609011252
0.00760910670281982,19.3461257682497
0.00686533712934693,19.3491897583284
0.00614195083375404,19.3524771564878
0.00544292037218649,19.3560159855813
0.00477238108936142,19.359838701114
0.00413455573393139,19.3639831302847
0.00353363389100673,19.3684938442231
0.00297358725345862,19.3734244401589
0.00245790967949386,19.3788417177928
0.00198936376330588,19.3848327112469
0.00156994431081797,19.3915142988531
0.00121334054067815,19.3987625215611
0.000916894549060587,19.4066172529639
0.000673951350299092,19.4152121380023
0.000478352296031933,19.4247239302308
0.000335812683285608,19.4347239302308
0.000241772755698985,19.4447239302308
0.000177594137157019,19.4547239302308
0.000132954859385458,19.4647239302308
0.000101935033198786,19.4747239302308
8.06793626888588e-05,19.4847239302308
6.63980133737949e-05,19.4947239302308
5.70238867782286e-05,19.5047239302308
5.10650397358569e-05,19.5147239302308
4.74809969897385e-05,19.5247239302308
4.55618194434776e-05,19.5347239302308
4.4825944212389e-05,19.5447239302308
4.49455210108992e-05,19.5547239302308
4.56964862979762e-05,19.5647239302308
4.69261369325522e-05,19.5747239302308
4.85317106205526e-05,19.5847239302308
5.04457533901542e-05,19.5947239302308
5.26258937643874e-05,19.6047239302308
5.50476767791697e-05,19.6147239302308
5.76996007721745e-05,19.6247239302308
6.05797436101888e-05,19.6347239302308
6.36935232354947e-05,19.6447239302308
6.70522628293287e-05,19.6547239302308
7.06723314360256e-05,19.6647239302308
7.45747066272883e-05,19.6747239302308
7.87848598967696e-05,19.6847239302308
8.33329036095751e-05,19.6947239302308
8.82539660428276e-05,19.7047239302308
9.3588782575035e-05,19.7147239302308
9.93845093541063e-05,19.7247239302308
0.000105695782939754,19.7347239302308
0.000112586067302444,19.7447239302308
0.000120129350028516,19.7547239302308
0.000128412274804249,19.7647239302308
0.000137536830025445,19.7747239302308
0.000147623757540853,19.7847239302308
0.000158816906603626,19.7947239302308
0.000171288844267742,19.8047239302308
0.000185248157200827,19.8147239302308
0.000200949060596471,19.8247239302308
0.000218704198365588,19.8347239302308
0.000238901925005626,19.8447239302308
0.000262029986241229,19.8547239302309
0.000288708503136355,19.8647239302309
0.000319736757502556,19.8747239302309
0.000356160913474222,19.8847239302309
0.000399374302070175,19.8947239302309
0.000447849582721706,19.9041062228774
0.000500993701213054,19.9127244944233
0.000559005217810355,19.9206370451152
0.000622154668240251,19.9279049158407
0.000690727573367551,19.9345840286076
0.000765010072459187,19.9407254654137
0.000845287451942438,19.9463762250208
0.000931838203392941,19.9515792086449
0.00102494146773416,19.9563738129998
0.00112487653311594,19.9607963096138
0.00123192856243209,19.964879942001
0.00134639671506165,19.968655434465
0.00146859864977544,19.9721510428877
0.00159889310222048,19.9753929656518
0.00173768921760435,19.9784054731091
0.00188548153191229,19.9812112324512
0.00204288698961177,19.983831543144
0.00221069708822376,19.9862866462417
0.00238996600590602,19.9885961162392
0.00258213833821006,19.9907793397687
0.00278925917934061,19.9928562818288
0.00301434327827318,19.9948486969358
0.00326208350816596,19.9967823972182
0.0034940692676364,19.9983911986091
0.00375353173850034,20
