ecg,time
0.000777627591187176,15.0037090543759
0.000613125942982237,15.0121547844667
0.000482705782245073,15.0214238883143
0.00038503010178508,15.0314238883143
0.000320056753157118,15.0414238883143
0.000278646789917305,15.0514238883143
0.000254157991196531,15.0614238883143
0.000241881855380029,15.0714238883143
0.000238625381521066,15.0814238883143
0.000242327237336138,15.0914238883143
0.000251741967001551,15.1014238883143
0.000266217955090248,15.1114238883143
0.000285563854157362,15.1214238883143
0.00030998544976691,15.1314238883143
0.000340079006455852,15.1414238883143
0.000376878275379625,15.1514238883143
0.000421965753710313,15.1614238883143
0.000477651905720199,15.171419939036
0.000541636995845338,15.1806632177203
0.000614691725953144,15.1891846768566
0.000697956978947406,15.197041392824
0.000792798164776976,15.2042869899591
0.000900788083967396,15.2109709500723
0.00102371680406861,15.2171389906758
0.00116361549398893,15.2228334159243
0.00132278744583459,15.2280934131629
0.00150384507959656,15.232955310764
0.00170975249802748,15.2374528173135
0.00194387786512049,15.2416172472529
0.00221005584532737,15.245477733141
0.00251266550561546,15.2490614291701
0.00285672887051473,15.252393719535
0.00324803818939226,15.2554984397542
0.00369332621012121,15.2583981173155
0.00420049905449327,15.261114251853
0.00477896896256271,15.2636676676062
0.00544015088409981,15.2660789892308
0.00618203284409255,15.2683245844865
0.00700501231459239,15.2704079084018
0.00792295457345798,15.2723676086277
0.00895787097862139,15.2742452270786
0.0101487347578644,15.2760936818391
0.0115818073154513,15.2780063474869
0.0136726890224606,15.2803949035432
0.0151784293411127,15.2819281477271
0.0167775350675417,15.2834613919111
0.0182399627837934,15.284831855652
0.019537305386016,15.2860698818938
0.0206970665821514,15.2872453105356
0.0217201705632248,15.2884034758088
0.0225901727072881,15.2895840004436
0.0232733319316656,15.2908363557413
0.0237035437628485,15.2922492187712
0.023695547479187,15.2940968059037
0.0231319279747304,15.2958394296622
0.0221230109112225,15.2975820534207
0.0210006921021753,15.299065593784
0.0197558111260683,15.3005031224722
0.0183886884491557,15.3019691994888
0.0169083062070711,15.3035036212233
0.01600229718233,15.3044372189855
0.0151117335644036,15.3053708167478
0.0141485586932914,15.3064259406891
0.0118664633393305,15.3091673282336
0.00982810255215214,15.3119984691762
0.00820196274272385,15.3146254837942
0.00686706454853737,15.3171248807681
0.00569963729075846,15.3196605225525
0.00467219356050039,15.3222631438307
0.00376592112047647,15.3249563331149
0.00300272981615084,15.3276225915108
0.00238675437631942,15.3301364831677
0.00188078676130801,15.3325240804957
0.00145650475872576,15.3348182169524
0.00109239716415774,15.337057509576
0.000771440502683686,15.3392906235106
0.000478024500431304,15.3415941948164
0.000190320783221393,15.3441502486973
-4.10527984166923e-05,15.3464628799628
-0.000249355361351914,15.3487755112283
-0.000404382421044388,15.350657759056
-0.000531164997542355,15.3523095896678
-0.000646068709334211,15.3539004171769
-0.000757342049157202,15.3555306463935
-0.000872435535295164,15.357313713804
-0.00100431979176967,15.3594821397473
-0.00122387037767656,15.3633949848491
-0.0014137277742996,15.3670890533536
-0.00156411366750288,15.3702219724337
-0.00171313765463445,15.3735133113537
-0.00188422590980317,15.3775486888787
-0.0021049185509233,15.3833319844371
-0.00226224561861499,15.3884412091275
-0.00235183288739545,15.3930627645239
-0.00236161087544708,15.3972083872737
-0.00228332966556474,15.4009297781248
-0.00211238686517921,15.4042823209275
-0.00184620815778289,15.4073293186921
-0.00148193189882801,15.4101327258645
-0.00101311700251959,15.4127571260703
-0.000426669295852924,15.4152684330517
0.000304277677033979,15.4177474422533
0.00124549075266133,15.420337089729
0.00253562188390655,15.4232635798918
0.00416533699032338,15.4263829548335
0.00615626017304046,15.4296793262584
0.00751481150837951,15.4316874747824
0.00901139728198093,15.4336956233064
0.0105551314323216,15.4355534264939
0.0121154472627136,15.4372240832734
0.0138036691112439,15.4388212123592
0.0156270358469515,15.4403335859021
0.0176443354994932,15.4417920673295
0.0198765948582423,15.4431920929395
0.0223659429053705,15.4445421978595
0.025139972828657,15.4458404588466
0.0282414776267679,15.4470915515133
0.0317121681270598,15.4482974831992
0.0355961290283727,15.4494597356014
0.039950791355766,15.4505821399565
0.0448409359275633,15.4516680238614
0.0503416021826239,15.4527206605988
0.056541781407393,15.4537435395268
0.0635472952338441,15.4547402696546
0.0714868153986186,15.4557148277132
0.0805196585109317,15.4566717102315
0.0908434663920086,15.4576158122904
0.102709852412304,15.4585528166199
0.116447442091306,15.4594895991653
0.132499461022991,15.4604348879227
0.151493084329408,15.461400606556
0.17386117022913,15.4623834489434
0.199792212163221,15.4633722798467
0.229995334739439,15.4643786608943
0.265445842151466,15.4654196905173
0.307685993438849,15.4665260996354
0.343607631110857,15.4673927458894
0.381177817507672,15.4682593921434
0.414502693983953,15.4690214435671
0.44358026329302,15.4697077722332
0.4689883176918,15.4703544729728
0.490779465780667,15.4709867058282
0.508586019316773,15.4716265811236
0.521544690799618,15.4722998685175
0.527865111563747,15.4730468973616
0.52435010599646,15.4738522398522
0.509263899347925,15.4746801584293
0.481202267536811,15.475546566517
0.438363517542169,15.4764628805401
0.378775488338522,15.4774375902545
0.334861283436405,15.478047235751
0.286746591166222,15.4786568812474
0.243852840708492,15.4791713941269
0.206916383784586,15.4796056109572
0.174367274611456,15.4799901771193
0.145161183959862,15.4803437781401
0.118655901873745,15.4806781384179
0.0944025731050379,15.4810019086712
0.0720281776214463,15.4813229521453
0.0511330543705451,15.4816507571526
0.0310649596005295,15.4820024819776
0.00950782226515814,15.4824414277621
0.00033988132857406,15.4826563061615
-0.00795882395276345,15.4828711845609
-0.0144310350216436,15.4830559574953
-0.0204129571874865,15.483243755674
-0.0264049746538546,15.4834527491365
-0.0321692534757098,15.4836794971052
-0.0375553770669654,15.483921957653
-0.0424803736878497,15.4841794530657
-0.0469015504717978,15.4844522136879
-0.0507997711801847,15.4847411262267
-0.0544058671865178,15.485072997783
-0.0571688231114969,15.4853980738314
-0.0594156905400658,15.4857446911857
-0.0611636489151324,15.4861162517648
-0.0624271287737087,15.4865165059968
-0.0632196713603521,15.4869500886124
-0.063552422939276,15.4874227922008
-0.0634324158485318,15.4879419726811
-0.0628600285912383,15.4885174304855
-0.0618233667875534,15.489163371819
-0.0602943767697728,15.4898986663238
-0.0582162080474212,15.490752284338
-0.0554688092775507,15.4917755585571
-0.0517287005131346,15.4930919653503
-0.047687279488162,15.4944822340942
-0.0437874094528758,15.4958277175309
-0.0400738990106576,15.4971325957766
-0.0365685179045735,15.4983989569874
-0.0332822265703666,15.4996275432027
-0.0302194783585547,15.5008184161353
-0.0273802160868139,15.5019713125189
-0.0247609934441628,15.5030858309262
-0.0223557378241744,15.5041615273039
-0.02015635245249,15.5051979587668
-0.018153233558608,15.5061946963455
-0.0163357291294202,15.5071513178746
-0.0146925466457439,15.5080673871666
-0.0131334440518537,15.5089904282173
-0.0116347100225088,15.5099372035296
-0.0102006451552969,15.5109094454091
-0.00883515815770693,15.511909329587
-0.00754195170838061,15.5129394142658
-0.0063244707857615,15.5140027366304
-0.00518585047618071,15.515102939225
-0.00412886155686736,15.5162444408647
-0.00315585372383724,15.5174326733526
-0.00226869588650914,15.5186744186772
-0.00146871220301947,15.5199783056714
-0.000756611191571855,15.5213555717747
-0.000132402708087609,15.5228212915018
0.000404707759641487,15.5243964884559
0.00083864911456411,15.5260343591404
0.00117664260475677,15.5277232198462
0.00143442796028505,15.5294814974574
0.00162633232798613,15.5313318204156
0.00176587318880778,15.5333047916799
0.00186621022184525,15.5354445486509
0.00194085141675639,15.5378207025994
0.00200512068317555,15.5405591736976
0.00208084334074747,15.5439537869929
0.00218011514184614,15.5477124838425
0.00231551489433121,15.5518236546523
0.00247620262239107,15.5559396550432
0.00264444393130682,15.559820871778
0.0028183930897878,15.5636035764645
0.00299742724177289,15.5673672811797
0.00318190316785001,15.5711640976724
0.00337303341661918,15.5750336892801
0.00357272069517043,15.579009725198
0.00378341768889967,15.5831232236412
0.00400803555540802,15.5874046805781
0.00424991108410467,15.5918855365667
0.00451287733506701,15.5965995369316
0.00480149986073846,15.6015841789853
0.0051215446535949,15.6068819265792
0.00546312464249801,15.6122668430285
0.00581623230938411,15.6175380767079
0.0061860887628356,15.6227377271214
0.00657440684403071,15.6278459481795
0.00698549241085053,15.6328749338693
0.00742367899772304,15.6378310670039
0.00789385572424942,15.642721587669
0.00840123404627726,15.6475509073471
0.00895148138769578,15.6523213777434
0.00955079624093398,15.6570333230507
0.0102060411916552,15.6616856508715
0.0109326073970503,15.6663234243723
0.0117509276036828,15.6709937037123
0.0126782961030762,15.6756979038844
0.0137401501633263,15.6804583777621
0.0149745537869907,15.6853233065545
0.0164502447953044,15.6904109921199
0.0183399032349917,15.6960812084276
0.0207582922286447,15.7024332617891
0.0222990958894111,15.7061826866086
0.0238653141505849,15.7099321114281
0.0252279384257318,15.7133023326986
0.0263768231077635,15.7164128233133
0.0273202520232805,15.7194255473791
0.028002581798758,15.7222939813812
0.0284187419731545,15.7251033232019
0.028553393432631,15.7279876771586
0.0283437221534971,15.7311670683581
0.0274992346580626,15.7354415067501
0.0266331808031582,15.7382679096312
0.0255724875176132,15.7410943125124
0.024497666583625,15.7436215252221
0.0234240212178609,15.7459655221522
0.0223494201507553,15.7482107445254
0.0212758355126699,15.7504013433141
0.0202067480943649,15.7525638405303
0.0191458634819952,15.7547163377313
0.0180967352965178,15.7568723313441
0.0170626618324026,15.7590425673381
0.0160466623884768,15.7612360715401
0.0150514799079886,15.7634607771239
0.0140795926799565,15.7657239350275
0.0131332231818444,15.7680324134993
0.012214351243167,15.7703929167077
0.0113247242472772,15.7728121669159
0.0104658620198386,15.7752970780379
0.00963907436788222,15.7778548838762
0.00884546206234206,15.7804933131548
0.00807567898421338,15.7832590855296
0.00732030646260145,15.7862132039662
0.00658318262198229,15.7893776668034
0.00586818515086267,15.7927785502839
0.0051793820298243,15.7964460296516
0.00452098569924258,15.8004151468447
0.00389726073922084,15.8047269131965
0.00331237851576117,15.8094300053843
0.0027702089245378,15.814583633574
0.00227401825394208,15.8202631446131
0.00182628852116868,15.8265683459831
0.00143387997916176,15.8335314698817
0.00117729312368511,15.8392245118179
0.000976176916951822,15.8449175537541
0.000775358870840881,15.8525637846094
0.00061547302751696,15.8608588168438
0.000485382465483857,15.8701798795122
0.000388844662209671,15.8801798795122
0.000324921616311502,15.8901798795122
0.000284535471557101,15.9001798795122
0.000261091693694557,15.9101798795122
0.000249928282992689,15.9201798795122
0.000247900479828723,15.9301798795122
0.000252998868318712,15.9401798795122
0.000264037203199969,15.9501798795122
0.000280435959880071,15.9601798795122
0.00030209647628361,15.9701798795122
0.000329348602097808,15.9801798795122
0.000362959947119522,15.9901798795122
0.000404207561398582,16.0001798795122
0.000455029088535795,16.0101798795122
0.000515622867921139,16.0197933584704
0.000585043690265979,16.0286679750396
0.000664242417249833,16.0368484080842
0.000754483894461911,16.0443903398268
0.000857253460044433,16.051345586651
0.00097425229693213,16.0577619670946
0.00110741475262919,16.0636836774769
0.00125893592207284,16.0691516232538
0.00143130633710422,16.0742036994359
0.00162735204361523,16.0788750441104
0.00185028340260166,16.0831982754802
0.00210375322052988,16.0872037161582
0.00239192948085352,16.0909196039959
0.00271958501175732,16.0943723020891
0.00309221443051824,16.0975865196923
0.00351618766997552,16.1005855507956
0.00399895832322494,16.103391543511
0.00454935810725488,16.1060258308846
0.00517802904841973,16.1085093678987
0.00589232777054577,16.1108461650433
0.00668435256849337,16.113005988742
0.00756616118600001,16.1150277830739
0.00855683210079363,16.1169527602195
0.00968874644930266,16.118830008923
0.0110282101066514,16.1207369620409
0.0128245939834048,16.1229320850735
0.0143565572714197,16.1245888874038
0.0160122939408568,16.1262456897341
0.0175388837326953,16.1277142067142
0.0188747466613463,16.1290036879481
0.0200668282259336,16.1302071300808
0.0211252662832102,16.1313777509447
0.0220393438438542,16.1325557003796
0.0227824748656014,16.133785001997
0.0233042109879522,16.1351342161563
0.0234884211492014,16.1367680213431
0.0230997509619987,16.1386660516158
0.0221521181230861,16.1405640818885
0.0210680115306234,16.1421033657984
0.0198685412987283,16.1435514601346
0.0185475838311514,16.1450105204611
0.0171132833734191,16.1465254931213
0.0155735933507326,16.1481326940227
0.0141737933750347,16.1496517686983
0.0119005595612976,16.1523836356699
0.00985816420096112,16.1552186614832
0.0082277301104378,16.1578497340672
0.00688993685790814,16.1603508312964
0.00571973095729763,16.1628877142128
0.00468955480110596,16.165491294772
0.00378058520468012,16.1681852105901
0.00302359038432571,16.1708190196785
0.00240962989181634,16.1733091076158
0.001902605040946,16.1756831891385
0.00147484834441752,16.177976354945
0.00110490381749906,16.1802322317906
0.000774619180347034,16.1825138406114
0.000464293891522409,16.184942466097
0.000129351396031939,16.1879479425587
-6.18401090100091e-05,16.1898795808758
-0.000237126207482191,16.1918112191929
-0.000383623412335122,16.1935570120099
-0.000511275364741349,16.1951847835105
-0.000630762576564119,16.1968048943271
-0.000749777199142789,16.1985167949509
-0.000877818589336172,16.2004733733398
-0.0010397330766676,16.2031250540146
-0.00126970068309637,16.2072423698069
-0.0014461870002227,16.2106909574743
-0.00159745286062185,16.2138528500502
-0.00175755569004439,16.2174220687922
-0.00194841767541379,16.2220406314796
-0.00214984876542449,16.2276590820428
-0.0022795928316698,16.232531028131
-0.00233611256164086,16.236946415009
-0.00230819024445551,16.2409131471969
-0.00218920652767718,16.2444804338043
-0.00197568119482697,16.2477080537765
-0.00166546056764434,16.2506555028658
-0.00125484619810401,16.253384843084
-0.000734911308211835,16.2559626263826
-8.77925810537032e-05,16.2584598107312
0.000727462315882445,16.2609819872781
0.00181399205189238,16.263729148854
0.00324612502051939,16.2667447218846
0.00503609271890405,16.2699630747919
0.00648019259808385,16.2722650172777
0.00808070007492706,16.2745669597634
0.00958786431919297,16.2765101694978
0.0111290690214613,16.2782855658308
0.0127326520277577,16.2799243355558
0.0144664344920085,16.2814849275809
0.016363575920682,16.2829785709164
0.0184608174249005,16.2844149573498
0.0207910501116947,16.2857976712834
0.0233865917482023,16.2871283754147
0.0262862244650093,16.2884106381615
0.0295239163439161,16.2896444309199
0.0331480117609083,16.2908340722001
0.0372089603605011,16.2919822478898
0.0417648294044724,16.2930918608935
0.0468811423842825,16.2941656005615
0.0526407941304375,16.2952075129473
0.0591394753346412,16.2962211966867
0.0664921916224464,16.2972104780227
0.074839015811668,16.2981795033572
0.0843524727706279,16.2991328026553
0.0952506842821248,16.300075644043
0.107814626716494,16.3010142542048
0.122416309965751,16.3019563039671
0.139568141367401,16.3029118525765
0.16001532769179,16.3038951289673
0.183745033545353,16.3048824899006
0.211309624332832,16.3058808121702
0.243519541657513,16.3069039039755
0.281545380200954,16.3079736436208
0.326319378385073,16.3091071188529
0.36858068201061,16.3101042894263
0.403482918066364,16.310909403776
0.433547694767014,16.3116172417855
0.459832633925148,16.3122760672261
0.482535247591778,16.3129136271624
0.501401051756289,16.3135521258249
0.515731299115647,16.3142153386316
0.524094420655462,16.3149370533589
0.523556158121101,16.3157418679491
0.511795442937634,16.3165636230723
0.487550538828702,16.3174190351162
0.449135729337389,16.3183206207764
0.394636872035046,16.3192771131482
0.349466561243891,16.3199364602753
0.298999947830432,16.3205958074024
0.2541208437634,16.3211431650291
0.215867225166487,16.3215963361791
0.1823819909247,16.3219925141483
0.152447736163276,16.3223535987752
0.125345306798994,16.3226927030725
0.100592678230503,16.323019033029
0.0778091847166508,16.323340452913
0.0566185762262565,16.3236656599896
0.0364856377782442,16.3240084929842
0.0159783648740619,16.3244081138952
0.00835365652352572,16.3245750014412
0.0012677248575524,16.3247418889872
-0.00667094638655998,16.3249455172061
-0.0132932316107666,16.3251321990613
-0.0192226644146283,16.3253157371121
-0.0252216564847997,16.3255214213817
-0.0310326730398077,16.3257455000676
-0.0364882175279579,16.3259855850588
-0.0414951745105552,16.326240777895
-0.0460048197593294,16.3265111607516
-0.0499949940092126,16.3267975088982
-0.0537003071601849,16.3271261408567
-0.0565549657869381,16.3274479648398
-0.0588917200655847,16.3277908494064
-0.0607275193825251,16.328158080392
-0.062076734787213,16.3285532639667
-0.062953137131039,16.3289808499027
-0.0633684051434028,16.3294463852422
-0.0633304670509015,16.3299568877107
-0.0628414185806589,16.3305214253722
-0.0618918390017961,16.3311535939676
-0.0604574681962449,16.3318709497511
-0.0584887427335184,16.3326999210441
-0.055883153644775,16.3336856825306
-0.052384112211207,16.3349281515244
-0.0483286231274742,16.3363278868338
-0.0444028375155394,16.3376810101729
-0.0406574681520979,16.3389927366001
-0.037117201613721,16.3402655783131
-0.0337945641629301,16.3415004963538
-0.0306949942335298,16.3426976649869
-0.0278191289933882,16.3438568769877
-0.025164043394962,16.3449777568892
-0.0227240639097369,16.3460598710292
-0.0204913952020866,16.3471027797118
-0.0184566513399756,16.3481060550505
-0.0166093247947368,16.3490692771563
-0.0149382032492032,16.3499920156212
-0.013369595247109,16.3509113370218
-0.0118605193060929,16.3518542064377
-0.0104154604193257,16.3528222207535
-0.00903835487121148,16.353817502229
-0.00773294180608139,16.3548425416678
-0.00650271062209538,16.3559002916512
-0.00535084913285971,16.3569942871565
-0.00428018947160147,16.3581288081152
-0.00329315165929437,16.3593091036329
-0.00239168434327521,16.3605417098396
-0.00157720150601785,16.3618349153365
-0.000850512725388928,16.3631994700368
-0.000211742256246743,16.364649718181
0.000339772566533634,16.3662055239975
0.000791459911914308,16.3678369349064
0.00114439524469004,16.3695163052523
0.0014147195358217,16.3712619595946
0.00161693266231522,16.3730955430559
0.00176466864903275,16.3750460851389
0.00187112392063303,16.3771549595846
0.00194970828045537,16.3794863283092
0.00201532794849797,16.3821531247324
0.0020881518783014,16.3854045139496
0.00218482840701785,16.3891464315481
0.00231443094154371,16.3931723670678
0.00246801602082392,16.3971692166415
0.00263280533403859,16.4009999178654
0.00280601615824521,16.404768882478
0.00298620814398424,16.4085418372052
0.00317315874514737,16.4123648133285
0.00336770003605443,16.4162745571649
0.00357151673397707,16.4203033966783
0.00378697173014966,16.4244819678492
0.00401698119668481,16.428841019401
0.00426496396745483,16.4334127735759
0.00453492484616088,16.4382323514689
0.00483173310703649,16.4433391530179
0.005161682230751,16.4487780957472
0.00550208711138406,16.454116486101
0.00585750913274447,16.4593927970566
0.00622860094946445,16.4645741285553
0.00661917361465197,16.4696705511419
0.00703314730353013,16.4746878198638
0.00747508968571873,16.4796346928962
0.00794984541824504,16.4845172564809
0.00846264935394232,16.4893395530956
0.00901917980246151,16.4941033541233
0.00962567468255113,16.4988086038845
0.0102890626206568,16.5034539798946
0.0110270284063055,16.5080969391918
0.011858510834468,16.5127709023766
0.0128018618816119,16.5174809556993
0.0138836208576865,16.5222513516613
0.0151443632754567,16.5271359264397
0.0166596294850241,16.5322687175377
0.0186320748617341,16.5380793031211
0.0205034526144073,16.5429815023712
0.0220846933136783,16.5468520742612
0.0237021217067748,16.5507226461512
0.0250919188045046,16.5541388412796
0.0262628049834425,16.5572686784944
0.0272286278185365,16.5602853331033
0.0279399064762443,16.5631669367889
0.0283852407209901,16.5659768053959
0.0285522788744807,16.5688451584074
0.0283861033522164,16.5719748085654
0.0276543623870944,16.5760128189934
0.0268057325092791,16.5789316320631
0.0257406026072548,16.5818504451327
0.0246634334807199,16.5844228023333
0.0235896927147556,16.5867887257774
0.0225151356907041,16.5890458982971
0.0214411344250867,16.5912430970665
0.0203710498250133,16.5934087785148
0.0193085879626871,16.5955620319664
0.0182573359658895,16.5977169221661
0.0172206333725045,16.5998845476396
0.0162015426764895,16.6020741592254
0.0152028482894708,16.6042938371987
0.0142270677884433,16.6065509274504
0.0132764626497178,16.6088523516219
0.0123530480249147,16.6112048431049
0.0114586068958046,16.6136151255767
0.0105946935286306,16.616090092875
0.00976264916526494,16.6186369447326
0.00896360599540367,16.6212633536958
0.00819191649480033,16.6240019296963
0.00743403552468856,16.6269258300607
0.00669382096962938,16.6300563884235
0.00597511504135469,16.6334191230862
0.00528196007390322,16.6370435260031
0.00461854938483428,16.6409638348858
0.00398914624344458,16.6452200561076
0.00339794822964005,16.6498595322522
0.00284888648338207,16.6549395865581
0.00234533644003918,16.6605325927891
0.00188990462113983,16.6667338860824
0.00148700952502815,16.6736224498779
0.00114913973002132,16.6810443563873
0.000926670773245645,16.6877242799833
0.00073491442015071,16.6955769116313
0.00057782637758632,16.7043674814091
0.000457687113710026,16.7137704401305
0.00036984423548209,16.7237704401305
0.000312122484265252,16.7337704401305
0.000276098775170847,16.7437704401305
0.000255664862929153,16.7537704401305
0.000246547481478018,16.7637704401305
0.000245897026562691,16.7737704401305
0.000251912889611205,16.7837704401305
0.000263549726564983,16.7937704401305
0.000280321664856891,16.8037704401305
0.000302192815711671,16.8137704401305
0.00032953578413487,16.8237704401305
0.000363147695120942,16.8337704401305
0.000404326351947766,16.8437704401305
0.0004550248860782,16.8537704401305
0.000515182432263957,16.8633432113575
0.000584049988953827,16.8721808157997
0.000662587306900483,16.8803289411457
0.000752052843498024,16.8878426511689
0.000853919905404335,16.8947731766465
0.000969873857520423,16.9011678303566
0.0011018299923958,16.9070703687893
0.00125196101379941,16.9125213108209
0.00142273128228514,16.9175582086119
0.00161693617280468,16.9222158936135
0.00183775000204013,16.9265267068573
0.00208878282232135,16.9305207168065
0.00237415137962965,16.9342259242739
0.00269856635639362,16.9376684665609
0.00306744560319921,16.9408728313794
0.00348706233996461,16.9438620864395
0.00396474512113323,16.9466581370107
0.00450915885778469,16.9492820392157
0.00513071432255195,16.9517544089269
0.00583874329360232,16.9540856368633
0.00662322431134533,16.9562370992499
0.00749541575489278,16.9582468423189
0.00847300003781085,16.9601546502942
0.00958524191361421,16.9620062680504
0.0108894644515204,16.9638695287417
0.0125800020008837,16.9659449950781
0.0142434866563,16.9677394685709
0.0160652993116651,16.9695339420636
0.017649092218342,16.9710229234526
0.0190173047008029,16.9723091216143
0.0202371304130517,16.9735042942382
0.0213222733449648,16.9746641544413
0.0222632496563285,16.9758289082731
0.0230345460545796,16.9770415918379
0.0235876665618716,16.9783677278343
0.0238135992340611,16.9799594013272
0.0234621402555003,16.9818732006714
0.0225204926499629,16.9837870000156
0.0214345534647675,16.9853247883202
0.0202319406797936,16.98676533337
0.0189048861186175,16.9882159376603
0.017461232189221,16.9897224859034
0.0159089615617675,16.9913214756227
0.0142899550209659,16.9930562392018
0.0121902036561527,16.9955440101782
0.0101048945469969,16.9983789159052
0.00842695602410642,17.0010315871119
0.00706448491302952,17.0035281853784
0.00587461195524725,17.006055748449
0.00482801113669325,17.0086466363042
0.00390516583724531,17.0113246243405
0.00310868775592819,17.0140453866333
0.00246833679375324,17.0166097855425
0.00194475603503938,17.019042234732
0.00150747982463999,17.0213770819315
0.00113366426138566,17.0236537064521
0.000805339426067875,17.025921755104
0.000506375344076813,17.0282577986834
0.000215167731778245,17.030838350678
-2.35545528349218e-05,17.0332256197385
-0.000237622452129766,17.035612888799
-0.000394888957082501,17.0375363979304
-0.000522747304950073,17.0392172852712
-0.000638307817943817,17.0408335742441
-0.000749974690374289,17.0424879634131
-0.000865207011280307,17.0442948695086
-0.000996785868836915,17.0464863383662
-0.00121186341071071,17.0503699518284
-0.00139790980246044,17.054037429352
-0.00154519307891892,17.0571473321916
-0.00169079884384313,17.0604092994898
-0.00185614830190474,17.0643695705841
-0.00206536352008726,17.069939447073
-0.00222154058104105,17.0750864395182
-0.00230957389422152,17.0797184696745
-0.00231843945635961,17.0838818459313
-0.00223954275159656,17.0876208845481
-0.00206792855150562,17.090992809375
-0.00180080938586255,17.0940586912216
-0.00143513079509799,17.0968806614759
-0.000964370835943721,17.0995230275195
-0.000375810472380959,17.1020498901146
0.000355815370520933,17.1045375400385
0.00129010105294865,17.1071153767419
0.00257986294790003,17.1100453536503
0.00419910243021989,17.1131379834432
0.00616852409452755,17.1163767362685
0.00754134613657686,17.1183845201834
0.00905803542677239,17.1203923040983
0.0106275617881049,17.1222522990516
0.012213129938025,17.1239225219105
0.0139271731953058,17.1255174336641
0.0157777899421202,17.127027414953
0.0178232308999363,17.1284826439248
0.020084873762862,17.1298790733045
0.0226054377527482,17.1312254824188
0.0254142853107607,17.1325207194709
0.0285530094442517,17.1337686378309
0.0320650479131722,17.1349717675143
0.0359962655945778,17.136131882492
0.0404037930346219,17.1372523977683
0.0453543313061432,17.1383368477724
0.0509245839969742,17.1393885369434
0.0572056257495654,17.1404109913521
0.0643058321835574,17.1414078550787
0.0723578448403704,17.1423832332903
0.0815258010704209,17.1433417126665
0.0920144286682147,17.144288360229
0.104085836578811,17.1452291187626
0.118084929108407,17.1461712684309
0.134481770247868,17.1471242006518
0.153951760160068,17.1481010234109
0.176730777655182,17.1490891896103
0.203165240655843,17.1500857459443
0.23400607879691,17.1511034157715
0.270309168156634,17.1521615501905
0.313785345040785,17.1532957704217
0.3486193268272,17.1541385631875
0.384732692713506,17.1549813559534
0.416856351832962,17.1557308616776
0.444968050574927,17.1564135670265
0.469474962634135,17.1570617240398
0.490330719620843,17.1576991411948
0.507083974554333,17.1583478820055
0.518754039023213,17.15903481378
0.52330455855171,17.1598037454542
0.517583837288081,17.1606157578655
0.500135762986115,17.1614524893148
0.469494815976058,17.162328749925
0.423854722759596,17.1632548990908
0.376425083888511,17.1640202958563
0.321120066599103,17.1647856926218
0.282340701933013,17.1652757201809
0.241771390862383,17.1657657477399
0.205356211196249,17.1661973182945
0.173087975733567,17.1665817062357
0.144098212518958,17.166935595484
0.117772807230757,17.16727045169
0.093673487185394,17.1675948594247
0.0714334294470642,17.1679166643173
0.0506569599626735,17.1682453777124
0.0306934251466101,17.1685982842209
0.00920786243001469,17.1690397055588
0.000163027681802654,17.1692536074348
-0.00803005549532034,17.1694675093109
-0.0144779076438566,17.169653049448
-0.0204448544988702,17.16984190005
-0.026417111015482,17.1700519512281
-0.0321589635987533,17.1702797689804
-0.0375216633739822,17.1705233252675
-0.0424232731383138,17.1707819546773
-0.0468217221911208,17.1710558986085
-0.0506968755959796,17.1713460543526
-0.0542622372708812,17.171677671548
-0.0570065219896626,17.172004015075
-0.0592362752655693,17.17235200548
-0.0609683712593593,17.1727250340048
-0.062217152869839,17.1731268638521
-0.06299605727989,17.173562144855
-0.0633161147729649,17.174036687263
-0.0631842359955171,17.17455786792
-0.0626006265567168,17.175135549509
-0.0615532428616468,17.1757839534718
-0.0600139161613165,17.1765220024081
-0.057925681224838,17.1773787523027
-0.055168309519926,17.1784057122235
-0.0514175221510512,17.1797269509561
-0.0473882980394474,17.1811150614551
-0.0435025844464949,17.1824583007022
-0.039804337473469,17.1837608191224
-0.0363148394834672,17.1850247074472
-0.033044717384306,17.1862507167235
-0.0299981607052144,17.1874389201987
-0.0271748913443815,17.1885890666349
-0.0245712771973354,17.1897007659879
-0.0221810930786558,17.1907735842309
-0.0199961221677841,17.1918070866374
-0.0180066721809813,17.1928008501132
-0.0162020323075545,17.193754455712
-0.0145708784224162,17.1946674674436
-0.0130153453452999,17.195592275594
-0.0115205466815556,17.1965409036984
-0.0100906991338711,17.1975151472839
-0.00872969762848399,17.1985172078875
-0.00744122643663608,17.1995496760772
-0.00622870787259584,17.2006156295752
-0.00509524987141582,17.2017187624241
-0.00404359131063875,17.2028635599507
-0.00307604490376115,17.2040555415624
-0.00219443701876522,17.205301607393
-0.00140004298159837,17.2066105502815
-0.000693514989108459,17.2079938436701
-7.47970063891816e-05,17.2094669176011
0.000456984801421101,17.2110513645005
0.000884182459188786,17.2126924217081
0.00121674809229227,17.2143858972542
0.00147026327823991,17.2161502941142
0.00165899926034254,17.21800872467
0.00179645221382193,17.2199925736628
0.00189581256003011,17.2221473664897
0.00197071235744599,17.2245454985087
0.0020368251997866,17.2273197275102
0.00211720805029325,17.230789005735
0.00222124070655845,17.2345588567358
0.00236342575179537,17.2387147274491
0.00252170208901958,17.242656179571
0.00269019508238879,17.2464622779369
0.00286660099786971,17.2502268509654
0.00304983648151966,17.2540088660137
0.00323999905620652,17.2578512039153
0.00343818715619583,17.2617890937196
0.00364630275912729,17.265854184666
0.00386689102427255,17.2700769787719
0.00410303262054923,17.2744884632956
0.00435832406433544,17.2791214508865
0.00463700995444306,17.2840120310409
0.0049443281052461,17.2892008656427
0.00528286424925284,17.2946657797251
0.00562822717830388,17.2999595536926
0.00599054782407118,17.3052077923307
0.0063691400756559,17.3103554134675
0.00676865756143019,17.3154224932957
0.00719303347391088,17.3204127764043
0.00764702984875566,17.3253350800122
0.00813563019091781,17.3301945735322
0.00866425460034809,17.3349946005029
0.00923879576697625,17.339736257466
0.00986575026275632,17.3444189919055
0.0105523592959009,17.3490412376611
0.0113237993720981,17.353698899455
0.0121942081691656,17.3583838349516
0.0131853802787265,17.3631124998993
0.0143277197508962,17.3679163197926
0.0156709446932302,17.3728698900299
0.0173177505038568,17.3781701937623
0.0196237955302716,17.3846037088364
0.0212933495273299,17.3888056688874
0.0230402221495518,17.3930076289384
0.0245413521427709,17.3966321656933
0.0258001676718114,17.3998573678376
0.0268517799239335,17.4029037965836
0.0276755068684948,17.4058502122952
0.0282317611536449,17.4086757238294
0.0285181629853604,17.4115015925675
0.0285023908159199,17.4144868477304
0.0280672339341756,17.4179816031306
0.0272755761657064,17.4212863988978
0.0261742263560518,17.424591194665
0.0250819471776567,17.4273215956966
0.0240066322078038,17.4297545826501
0.0229323968104041,17.4320465251548
0.0218578536849288,17.4342628260891
0.0207858406252419,17.4364380245398
0.0197200165921219,17.4385941265751
0.0186640400878455,17.4407468222964
0.0176213542616925,17.442908189477
0.0165951300246085,17.4450880957107
0.0155882599078789,17.447295007947
0.0146033640353905,17.4495365096782
0.0136428018300506,17.451819650837
0.0127086851679886,17.4541512004657
0.0118028845691186,17.4565378597209
0.0109270431721261,17.4589864229182
0.0100825839379055,17.461503938123
0.00927071970144437,17.4640978554166
0.00849246152948035,17.4667761848806
0.00772869337577339,17.4696251766518
0.00698111716586955,17.4726718757899
0.00625351998390979,17.4759403024419
0.00554987005547929,17.4794583058239
0.00487430958094088,17.4832581504895
0.00423108706759513,17.4873774243474
0.00362444613721858,17.4918603389069
0.00305845106800487,17.4967598564741
0.002536728797634,17.5021416341585
0.00206220216566597,17.5080908091995
0.00163699064232772,17.5147216264981
0.00127436176851015,17.5219219248856
0.00098095934207763,17.5297175883179
0.000766141772567734,17.5378659265546
0.000612913664446699,17.545860892968
0.000481363181386171,17.5552691809583
0.000384619818391276,17.5652691809583
0.000320301673706628,17.5752691809583
0.000279376931702224,17.5852691809583
0.000255266651494655,17.5952691809583
0.000243300882215484,17.6052691809583
0.000240313141630157,17.6152691809583
0.000244262787569491,17.6252691809583
0.000253921903566259,17.6352691809583
0.00026865483624911,17.6452691809583
0.00028828616222657,17.6552691809583
0.000313039394808747,17.6652691809583
0.000343532664533698,17.6752691809583
0.00038082893291996,17.6852691809583
0.00042655207435465,17.6952691809583
0.000482697768900922,17.7052042266665
0.000547172088910002,17.7143894996599
0.000620767679759365,17.7228579873202
0.000704637476274026,17.7306663767701
0.000800156926601866,17.7378678642683
0.000908908744334964,17.7445115500709
0.00103269388988754,17.7506428115525
0.0011735557772981,17.756303647223
0.00133381157710469,17.7615329675868
0.00151608934621016,17.7663668496682
0.001723371023765,17.7708387735436
0.00195904507628338,17.7749798457253
0.00222696965343784,17.7788190091282
0.0025315510105853,17.7823832452483
0.00287784323229692,17.7856977817999
0.00327167685036981,17.7887863133916
0.00371983109252382,17.7916712418144
0.00423026995292804,17.7943739569408
0.00481247970981952,17.7969151909464
0.00547797353383991,17.7993154977171
0.00622348863859405,17.8015478899229
0.00705050560657253,17.8036198625484
0.00797309953129621,17.8055699578055
0.00901362016151704,17.8074396733112
0.0102118125784547,17.8092822551403
0.0116563772170987,17.8111927813246
0.0137868745511385,17.8136035759724
0.0152932783656909,17.815124008408
0.0168901692459145,17.8166444408437
0.0183482709244787,17.8180037710966
0.0196431844107333,17.8192351725707
0.0208008075462083,17.8204065176221
0.0218211563150485,17.8215624378371
0.02268709918997,17.8227426033975
0.0233639066553938,17.8239973287954
0.023783064603025,17.8254184672879
0.0237461185950966,17.8273013502603
0.0231699077815453,17.829004270714
0.0221703797350057,17.8307071911676
0.0210476168096831,17.8321823978356
0.0197990088108836,17.8336178992324
0.0184273933192796,17.8350835064911
0.0169420378581575,17.8366184619777
0.0160323134555832,17.8375534622786
0.015138749095308,17.8384884625796
0.0141405308499964,17.8395811440732
0.0118497969694269,17.8423345726523
0.00981463697225135,17.8451645315434
0.00819183858009867,17.8477895245415
0.00685893891221015,17.8502886632925
0.00569327873656283,17.8528243749393
0.00466746622744552,17.8554272867974
0.00376272477815062,17.8581209692007
0.00299585374157758,17.8608071190425
0.00237786445258517,17.8633391185962
0.00187102510918606,17.8657429650076
0.00144656965171328,17.8680520200572
0.00108273849822451,17.8703052677161
0.000762459990181421,17.8725510146902
0.000470329027805914,17.8748637504304
0.000185477265331332,17.8774160856209
-4.92581799295161e-05,17.8797851336866
-0.000260085112164896,17.8821541817523
-0.000414841300987464,17.8840585608142
-0.000540767713962608,17.8857219853727
-0.000654711083172587,17.8873214308627
-0.00076493430126206,17.8889585411612
-0.000878797726502428,17.8907464887117
-0.00100894663082726,17.8929145512262
-0.00122151649583387,17.8967466945838
-0.00140648330768254,17.9003795006549
-0.00155335718764426,17.9034641656111
-0.00169875024966922,17.9066982336638
-0.00186439026242943,17.9106268587653
-0.00207586925461869,17.9161694306921
-0.00223818230956587,17.9213627069232
-0.00233273724725208,17.9260249798807
-0.00234879302909112,17.930213331516
-0.00227753890564495,17.9339734634105
-0.00211400062982209,17.937359286148
-0.00185533516433941,17.9404351728421
-0.00149864585845788,17.9432630504771
-0.00103794905316171,17.9459062236617
-0.000461183430916088,17.9484288908504
0.000256007787639239,17.9509073972041
0.00117137329495367,17.9534701138339
0.00243738057319655,17.9563847383375
0.00403315962238147,17.95947207336
0.00599075580677685,17.9627369908558
0.00735796769869456,17.9647696080402
0.00886519852703192,17.9668022252247
0.0104207161013449,17.9686835987098
0.0119822661347516,17.9703648154865
0.0136676397397272,17.9719694787953
0.0154842417197876,17.9734872877379
0.0174917818092803,17.9749505240988
0.0197110131821715,17.9763546214282
0.0221845469955917,17.9777086318221
0.0249400261780351,17.9790106840756
0.0280200548679159,17.980265447441
0.0314661983654776,17.9814749384023
0.0353219039117167,17.9826405096792
0.0396449046572117,17.983766197389
0.0444991008072918,17.9848552018828
0.0499588495299358,17.9859107821587
0.0561123235038088,17.986936421816
0.0630633933019772,17.9879355977387
0.0709411346558549,17.988912530989
0.0799025226644279,17.989871604433
0.0901430888798607,17.9908177066857
0.101911722342987,17.9917565159141
0.115533204180063,17.9926948877778
0.131446101850367,17.9936415647272
0.150270417440258,17.99460845235
0.172454887647662,17.99559311259
0.198172727006125,17.9965836225463
0.228127190980852,17.9975915507441
0.263284652069673,17.998633952173
0.305166348760933,17.9997412336988
0.34111909840795,18.0006160203004
0.378766027532784,18.0014908069019
0.412143381456224,18.0022587661956
0.441258695766524,18.0029494049544
0.466702057907442,18.0035993068221
0.488536023103453,18.0042337959083
0.506405355569563,18.0048749097354
0.519469657454737,18.0055480047644
0.525997451800325,18.0062920756443
0.522830303070169,18.0070984631826
0.508159677611748,18.0079263927842
0.480605868140026,18.0087917840637
0.438394402118688,18.0097061095138
0.379576182671375,18.0106779076526
0.335683357736437,18.0112920438137
0.287494662374499,18.0119061799747
0.244525135919592,18.0124238300756
0.207542072922094,18.0128600371895
0.174962400841747,18.0132459572659
0.145733526407387,18.0136005315631
0.11921011933285,18.0139355973736
0.094942706004299,18.0142598473387
0.0725595776519151,18.0145811305057
0.0516659339171844,18.0149088241519
0.0316277155218041,18.0152596264573
0.0102765212617256,18.0156929564319
0.000743673331060988,18.0159155685317
-0.00785810081699316,18.0161381806315
-0.0143529933712926,18.0163238562572
-0.0203268205184084,18.016511670434
-0.0263133548214063,18.0167207401494
-0.0320744198421958,18.01694761807
-0.0374588001836513,18.0171902395842
-0.0423830551357261,18.0174479132486
-0.0468042140998207,18.0177208609886
-0.0507026293148171,18.0180099638231
-0.0543124725684907,18.0183424008871
-0.057075531842407,18.0186676901136
-0.0593227776602377,18.0190145099284
-0.0610713919640775,18.0193862629178
-0.062335774513082,18.0197866938379
-0.0631294488557275,18.0202204294832
-0.0634635604732443,18.0206932510452
-0.0633451644443155,18.0212124975146
-0.0627747055194566,18.0217879378399
-0.0617404119021298,18.0224337401658
-0.0602144649848402,18.0231686963737
-0.0581405097269433,18.0240216185507
-0.0553997588266268,18.0250434327199
-0.0516738391822504,18.026355917881
-0.0476353570907255,18.0277461083897
-0.0437382452663919,18.0290913818923
-0.0400274699163418,18.0303959583226
-0.0365248332397479,18.0316619551374
-0.0332412903221548,18.0328901322186
-0.0301812739155344,18.0340805627595
-0.0273447009120327,18.035232991308
-0.0247280988693598,18.0363470219983
-0.0223253715949536,18.0374222148363
-0.0201284027573265,18.0384581298966
-0.0181275736681064,18.0394543402813
-0.0163122221883431,18.0404104251122
-0.0146710502566047,18.0413259487438
-0.0131124242731072,18.0422493153824
-0.0116142301773922,18.0431964313083
-0.0101807533097791,18.0441690403512
-0.00881589976640248,18.0451693229694
-0.00752336868730447,18.0461998432659
-0.00630660064369975,18.0472636457907
-0.00516872539358717,18.0483643824213
-0.00411250739726555,18.0495064840028
-0.00314028895353626,18.0506953981573
-0.00225393036353517,18.0519379281756
-0.00145474576612477,18.053242732419
-0.000743431926571567,18.0546210907506
-0.000119984666991916,18.0560881414769
0.000416407831408739,18.0576650100273
0.000849377764833028,18.0593034583845
0.00118664377617549,18.0609931547095
0.00144391950477415,18.0627525387983
0.00163552539173827,18.0646043259225
0.00177497957703879,18.0665792588462
0.00187545373091399,18.0687217223391
0.00195048825968241,18.0711018213948
0.00201548766694387,18.073846678438
0.00209253487867344,18.077254452768
0.00219322039753492,18.0810150310044
0.00233045779740857,18.0851340854327
0.0024901431729273,18.0891889991409
0.00265836546262422,18.0930433595047
0.00283306529074135,18.0968178096797
0.00301343084899587,18.1005846615417
0.00319971108865378,18.1043928833929
0.00339306509530714,18.108280633902
0.00359538306062948,18.1122808720249
0.00380913790869708,18.1164243826296
0.00403728704410517,18.1207417391903
0.00428323984886617,18.1252647087127
0.00455094250663364,18.1300276376772
0.00484514229861984,18.1350688758327
0.00517190550748273,18.1404319801838
0.00551459018587037,18.1457835903958
0.00587088313642407,18.1510498793797
0.00624355653186834,18.1562324507396
0.00663547490416682,18.1613276198236
0.00705076837268109,18.166343997453
0.00749393710783337,18.1712891335088
0.00796989917449581,18.1761695646378
0.00848393691220976,18.1809893982505
0.00904179070544661,18.1857505864673
0.00964975392235454,18.1904531658686
0.010314807287006,18.1950958690992
0.0110553444428155,18.1997399233473
0.0118898274754212,18.2044145622213
0.0128369151997318,18.2091259425704
0.0139234422506514,18.2138988014726
0.0151906591560226,18.2187884774587
0.0167159701583923,18.2239333084974
0.0187107484196182,18.2297831877694
0.0205618304798712,18.2346162975107
0.0221377877503186,18.2384684770005
0.0237474481557563,18.2423206564904
0.025130186258808,18.2457250081422
0.0262950516144259,18.2488494334075
0.0272547609105545,18.2518648619968
0.0279581281452339,18.2547426939462
0.0283955231749631,18.2575522167808
0.0285538018222646,18.2604246326536
0.0283760091186943,18.263567117825
0.0276159287701696,18.2676631015569
0.0267627221054626,18.2705565939477
0.0256989928202992,18.2734500863385
0.024622529774212,18.2760103379724
0.0235488384651965,18.2783704409699
0.0224742806926938,18.2806244132247
0.0214003965438137,18.2828197883373
0.020330580855356,18.2849845112611
0.0192685407534623,18.2871374111687
0.0182178557334907,18.2892924017821
0.0171818554096732,18.2914604865492
0.0161635921006954,18.2936508528651
0.0151658403301671,18.2958715369354
0.0141911081998115,18.2981298530515
0.0132416482311057,18.3004326992701
0.0123194668947298,18.3027867911827
0.0114263388124764,18.3051988383646
0.0105638102250164,18.3076757227431
0.00973321440009976,18.3102246339114
0.00893567582521073,18.3128532344555
0.00816443870533491,18.3155982751139
0.00740715989147611,18.3185293448201
0.00666769035051415,18.3216679422632
0.00594988106162107,18.3250397169791
0.00525778182348055,18.3286743160978
0.00459559108694095,18.3326061632116
0.00396757323517032,18.3368754948955
0.00337792038732701,18.3415299584896
0.00283054950874463,18.3466273108745
0.00232881040495042,18.3522406099044
0.00187527982514826,18.3584662265698
0.00147495788328162,18.3653723285223
0.00113942008014361,18.3728152872022
0.000900143216117152,18.3801340545354
0.000722880777631222,18.3876096512439
0.000565745702054732,18.396605776468
0.000449278568753618,18.4059830107303
0.000363927345016297,18.4159830107303
0.000307972601818503,18.4259830107303
0.000273217811087565,18.4359830107303
0.00025371931202162,18.4459830107303
0.000245322126600281,18.4559830107303
0.000245261270552352,18.4659830107303
0.000251797896413236,18.4759830107303
0.000263934191951466,18.4859830107303
0.000281224172429649,18.4959830107303
0.00030366940654145,18.5059830107303
0.000331682254626854,18.5159830107303
0.000366107083846207,18.5259830107303
0.000408303207400523,18.5359830107303
0.000460309584953891,18.5459830107303
0.000521680105848365,18.5554952561352
0.000591915346909323,18.5642735271614
0.000672016805577917,18.5723658840069
0.000763275038399741,18.5798273862205
0.000867196139912558,18.5867091608906
0.000985501423826358,18.5930584103619
0.00112014672430954,18.5989187791377
0.00127335087299954,18.6043306740869
0.00144763098011872,18.609331536984
0.0016458429043517,18.6139560931995
0.00187123094594327,18.6182365847832
0.00212748665750957,18.6222029907948
0.00241882273953325,18.6258832350512
0.00275006437946497,18.6293033947554
0.00312676811395463,18.632487920483
0.00355537867324904,18.6354598737356
0.00404344174796134,18.6382411969226
0.00459990555373167,18.640853046581
0.00523556469477226,18.6433162350675
0.00595575978591586,18.6456284802278
0.0067542958339373,18.6477671040671
0.00764353468449588,18.6497708102704
0.00864300688359807,18.6516805931354
0.00978606214478112,18.6535457892417
0.0111417345534599,18.6554455282577
0.0129813229027339,18.6576576379228
0.0145117431806989,18.6592882304411
0.0161615664837504,18.6609188229594
0.0176840539046195,18.6623686180843
0.019019771204859,18.6636472689515
0.0202124631234649,18.6648435004384
0.0212709696768447,18.666009135591
0.0221838311928663,18.6671840738386
0.0229235765538633,18.6684128295185
0.0234379592100458,18.6697659900236
0.0236042314114199,18.6714180451918
0.023193920924868,18.6732935602599
0.0222370129280683,18.6751690753279
0.0211472848235316,18.6766977127312
0.0199404529416605,18.6781417964986
0.0186111958420062,18.6795995068457
0.0171678186325283,18.6811149942129
0.015618107570049,18.6827246841241
0.0143220901614279,18.684122750699
0.0120467171596174,18.6868308407971
0.00997295664774,18.689679841129
0.00831890553946523,18.6923229021636
0.00696922618559934,18.6948220519737
0.0057894861090962,18.6973546460251
0.00475127272150104,18.6999523361592
0.00383543918322192,18.7026388261591
0.00306351963459905,18.7052991471659
0.0024394807146169,18.7078105148215
0.00192610429474237,18.7101990594659
0.00149483960542558,18.7124985711001
0.00112383207678605,18.7147497468884
0.000795284897944327,18.7170074032388
0.000491737874008473,18.719366039128
0.000183844306681208,18.7220880359003
-2.89745362178603e-05,18.7242033591577
-0.000222276373522994,18.7263186824151
-0.000375576234735324,18.7281442527099
-0.00050448899520845,18.7297907742481
-0.000622637721378262,18.7313958389486
-0.000738043354396499,18.7330575336774
-0.000858772935406735,18.7348999722725
-0.00100070297376952,18.73720739203
-0.00124347546210546,18.7415182329573
-0.00144580610426403,18.7454721532656
-0.00160746260882151,18.7488742701693
-0.00177020622191162,18.7525327363693
-0.00196322905851559,18.7572418863206
-0.00216245582740568,18.7628433291773
-0.00229110009202443,18.7677139898517
-0.00234662378352438,18.7721231881435
-0.00231789160120904,18.7760819384872
-0.00219827282689088,18.7796418892327
-0.00198432223165477,18.7828617365266
-0.00167395830824138,18.7858010708437
-0.0012629402373976,18.7885257351694
-0.000742106976157727,18.7911011309787
-9.25516603188766e-05,18.7936002532307
0.000724417325598599,18.7961193886847
0.001814482154233,18.7988658964448
0.0032493505969099,18.8018766394661
0.00504476099066631,18.8050943742298
0.00647090880112223,18.8073629356029
0.00804875390184815,18.8096314969761
0.00956588645106589,18.8115890019002
0.011130927757918,18.8133924927039
0.0127256426161776,18.815022071754
0.0144652816238625,18.816588444054
0.0163572995429078,18.8180786609659
0.0184530882666603,18.8195150147799
0.0207807030420906,18.8208972109353
0.0233736951592753,18.8222276709129
0.0262707331360168,18.8235098204709
0.0295054888037136,18.8247434747126
0.033126387551461,18.8259329884431
0.0371838575268042,18.8270810416603
0.0417358587298559,18.8281905170659
0.0468478112865032,18.8292640949267
0.052602326381053,18.8303057867216
0.0590949608056515,18.8313191981741
0.0664404458740131,18.8323081455554
0.0747784668454379,18.8332767617054
0.0842811595367211,18.8342295740899
0.0951655427974427,18.8351717958052
0.10771139423996,18.8361096241335
0.122288580681575,18.8370506654693
0.139405732936785,18.8380048700088
0.159800843327476,18.8389862687017
0.183492061171869,18.839972586527
0.211007413000346,18.8409695003473
0.243151032349733,18.8419906215079
0.281080016615815,18.8430574224581
0.325863423888028,18.8441901393486
0.368432665087341,18.8451925231761
0.403513715519882,18.8459992505148
0.433700492983519,18.8467071601758
0.460092047067569,18.8473654561028
0.482900541599793,18.8480021420481
0.501880035813198,18.8486394830001
0.516340799371579,18.8493012263606
0.524865970374678,18.8500210354592
0.524531427311062,18.850824950849
0.512978927948641,18.8516456843759
0.48895171299094,18.8525000697493
0.450763098182587,18.8534007566003
0.396491021680544,18.8543565068634
0.351104212144067,18.8550202828599
0.3003193163173,18.8556840588563
0.255185130984738,18.8562341763201
0.216761338054536,18.8566887903838
0.183154405437529,18.8570857449199
0.153125341301956,18.8574472533279
0.12594506537874,18.8577865608531
0.101126756793996,18.8581129284534
0.0782875463964505,18.8584342314432
0.0570512019992213,18.8587591279877
0.0368873892532458,18.8591012829219
0.0163999882543893,18.8594988051012
0.00832858305354529,18.8596749414406
0.00085839334062443,18.8598510777801
-0.00703019454257856,18.8600541039388
-0.0136039204695038,18.8602400326843
-0.0195493758073212,18.8604247436277
-0.0255477829690225,18.8606313340176
-0.031346947265701,18.860856134578
-0.0367841927086132,18.8610968551091
-0.0417692677006328,18.8613526594128
-0.0462551479542116,18.8616236711412
-0.0502205508592057,18.8619106964171
-0.0538989130014412,18.8622401651744
-0.0567288148150612,18.8625628469486
-0.0590412749110421,18.8629067175881
-0.0608533104907466,18.8632750937673
-0.0621793158917463,18.8636716202464
-0.0630330064513649,18.8641007961782
-0.0634259234833886,18.8645682340366
-0.0633657603259405,18.8650810414685
-0.0628541711237378,18.8656484757423
-0.0618810674119781,18.866284302722
-0.0604211979105223,18.8670064178065
-0.0584231121406504,18.867841906753
-0.0557798569694388,18.8688375025114
-0.0522187379414685,18.8700987914128
-0.04816650881608,18.8714959662264
-0.044247095795213,18.8728470935929
-0.0405097207359258,18.8741570480784
-0.0369782725831795,18.8754282235978
-0.0336648550960621,18.8766615202405
-0.0305746447842197,18.8778570807519
-0.0277080961310156,18.8790146820135
-0.025062147828898,18.880133941005
-0.0226310223564197,18.8812144208663
-0.0204068458417412,18.8822556807704
-0.0183801754643194,18.8832572923822
-0.0165404657132099,18.8842188351552
-0.0148764828485161,18.8851398771988
-0.0133102938171581,18.8860601440052
-0.0118038514006778,18.8870040057974
-0.0103615931753705,18.8879730939644
-0.00898744849172515,18.8889695442351
-0.00768514730149672,18.8899958643907
-0.00645816779188728,18.8910550283124
-0.00530968445640733,18.892150598039
-0.00424251391869917,18.8932868884088
-0.00325905841596271,18.8944691943924
-0.00236124642931278,18.8957041137489
-0.00155046922912879,18.8970000202077
-0.000827510857679435,18.898367785378
-0.000192466704446724,18.8998219352387
0.000355359078848022,18.901382621374
0.000802477538751716,18.9030156374005
0.0011515628641422,18.9046973793423
0.00141865058890377,18.9064461905101
0.0016181955340655,18.9082839597224
0.00176380057179119,18.910240104367
0.00186865059741241,18.9123566756217
0.00194617645849458,18.9146991594268
0.00201138084410721,18.91738359644
0.00208481095367219,18.9206694838627
0.00218202978861867,18.9244148009534
0.00231296836953324,18.9284612055051
0.00246869248643327,18.9324986527727
0.00263451565418233,18.9363465142487
0.00280789536422919,18.9401194979157
0.00298762807561122,18.9438880428716
0.00317366402932633,18.9477003012046
0.00336694929226261,18.9515940410729
0.00356923213765304,18.9556020502798
0.00378289815008587,18.9597550771472
0.00401085506295586,18.9640837473033
0.00425648589122606,18.9686199552985
0.00452372455271067,18.9733982645799
0.00481731566791394,18.9784573216415
0.00514333575856139,18.9838410747179
0.00548418829839869,18.9891988093942
0.00583864784526654,18.9944740800439
0.00620914915714433,18.9996631147395
0.00659870127682326,19.004764577748
0.00701137851973856,19.0097867769299
0.00745166068907127,19.0147376149339
0.00792440810449893,19.0196236414552
0.00843484299689568,19.0244490494494
0.00898863503156169,19.0292158411936
0.00959200113853011,19.0339241085648
0.0102518377072269,19.038572615913
0.0109848022270022,19.0432133084586
0.0118105014845163,19.0478856547329
0.0127468143635615,19.052593109734
0.0138197830032169,19.0573590593111
0.0150688448101957,19.0622347735748
0.0165664233930858,19.0673470775786
0.0185010854705527,19.0730927333863
0.0204098519305843,19.078122202101
0.0219994837890479,19.0820232845134
0.0236295091560203,19.0859243669257
0.0250311020101376,19.0893608545459
0.0262119018419392,19.0925000019102
0.027187730272329,19.0955189034971
0.0279120153972778,19.09840687018
0.0283703808432068,19.1012174137553
0.0285517528667005,19.1040792338849
0.0284044282843372,19.1071883471674
0.0277165492724819,19.1111381471941
0.0268752608990182,19.1140991205898
0.0258074702577354,19.1170600939856
0.0247290290265398,19.1196520043512
0.0236552077560189,19.1220270376184
0.0225806979486246,19.1242890698451
0.0215065842549177,19.1264889131842
0.0204361701952101,19.1286558405229
0.0193731598824644,19.130809347861
0.0183211529936531,19.1329637302832
0.0172835056732549,19.1351302255773
0.0162632975506624,19.1373181716072
0.0152633298086988,19.1395357024298
0.0142861362987843,19.1417901945787
0.0133339937067477,19.1440885843356
0.0124089321455614,19.1464376052784
0.0115127487013756,19.1488439701866
0.0106470111054565,19.1513145512485
0.00981307364450081,19.153856515251
0.00901208073995288,19.1564774909141
0.00823966358314081,19.1592052527815
0.00748082158076475,19.1621171289484
0.00673941793098323,19.1652342000681
0.00601928188554646,19.1685817588443
0.00532444492076824,19.172189029866
0.00465909332375543,19.1760899297337
0.00402748971268291,19.1803240684211
0.00343384139253949,19.1849382697726
0.0028821030956576,19.189989131786
0.00237569314331607,19.1955478988631
0.00191726939506952,19.2017082037216
0.00151023614933358,19.2085675072085
0.00116866119201593,19.2159543990215
0.000894289406462952,19.224215525227
0.000731387963140855,19.2310988866526
0.000571581113393775,19.2401407401527
0.000455976989245956,19.2493149213112
0.000368816562750793,19.2593149213112
0.000311556927750763,19.2693149213112
0.000275879728013699,19.2793149213112
0.000255735409199172,19.2893149213112
0.000246881056398333,19.2993149213112
0.000246485743247314,19.3093149213112
0.000252764456954422,19.3193149213112
0.000264687414813116,19.3293149213112
0.00028178540252335,19.3393149213112
0.000304041477495408,19.3493149213112
0.000331851425637151,19.3593149213112
0.000366042766386472,19.3693149213112
0.000407955406760379,19.3793149213112
0.000459603370043964,19.3893149213112
0.000520608941389045,19.3988381501762
0.00059042694492547,19.4076275678365
0.000670046710446113,19.4157307275105
0.000760748236775845,19.4232026095641
0.000864026630970559,19.4300942922446
0.000981591100986387,19.4364529409532
0.00111538383067731,19.4423221722211
0.00126760812972982,19.4477423719872
0.00144076335625178,19.4527509664867
0.001637684975683,19.4573826692531
0.00186159365476965,19.4616697125647
0.00211615334052813,19.465642066253
0.00240554412326407,19.4693276438688
0.00273455213193437,19.4727525092844
0.00310868636713233,19.4759410940837
0.00353433247211983,19.4789164317254
0.00401896086463173,19.4817004225123
0.00457142084925699,19.4843141589597
0.00520237193576645,19.4867783546236
0.00591848622691956,19.4890948940391
0.0067122521138108,19.4912357942402
0.00759561922996074,19.4932394538876
0.00858740929248243,19.4951463203456
0.00971937765106291,19.4970042313038
0.0110558594689746,19.4988876343269
0.012836334102813,19.5010421234054
0.014405017770235,19.5027194506395
0.0161054659409989,19.5043967778737
0.0176547855221483,19.5058633268165
0.019007069546964,19.5071464044009
0.0202138701655107,19.5083426162364
0.0212863163002783,19.5095055951761
0.0222140243918651,19.5106753892164
0.0229706320794417,19.5118956689931
0.0235060546819545,19.5132341139695
0.0237056098348851,19.5148520965281
0.0233285163486027,19.5167475389988
0.0223822045947231,19.5186429814695
0.0212958034133662,19.5201771786817
0.0200923495704112,19.5216197172644
0.0187654162953977,19.5230736517673
0.0173230933504853,19.5245841081361
0.0157733064144377,19.5261875253179
0.0141604773697728,19.527927446933
0.0117458861482756,19.530841228537
0.00972101223612921,19.5336806528569
0.00811658995395588,19.5362982820321
0.00679372955532778,19.5387996333921
0.00563616270923104,19.5413394506263
0.00461715821232368,19.5439478498912
0.00371821268695272,19.5466483624621
0.00296408039465111,19.5493118064463
0.00235445474096185,19.5518264558409
0.0018526546681258,19.554219727874
0.00143061080899246,19.5565268389868
0.00106697401057099,19.558789419992
0.00074429045620494,19.5610639576464
0.00044525360637298,19.5634487878889
0.000139341802490813,19.5662280107517
-6.53647060804426e-05,19.5683186690694
-0.00025167702141467,19.570409327387
-0.000401015835418866,19.5722301958338
-0.000527370893008285,19.5738812986125
-0.000643573184847122,19.5754955631904
-0.000757428300705286,19.5771713237587
-0.000877027725686849,19.5790365335788
-0.00101889928267604,19.5813935741838
-0.00125711864506685,19.585712401472
-0.00145230994745937,19.5895977030859
-0.00160927020237771,19.5929553464171
-0.00176865067981422,19.5965938196392
-0.00195738270698215,19.6012698140836
-0.0021529108580643,19.6068638593208
-0.00227814564088494,19.6117262087478
-0.00233039858870128,19.6161279690483
-0.00229854104929779,19.6200802673839
-0.0021759171941004,19.6236350445224
-0.00195896996398492,19.6268517106616
-0.00164540876250055,19.6297902859538
-0.00123077776626785,19.632516310793
-0.000705845787508179,19.6350941404706
-5.21074814094431e-05,19.6375944698692
0.00076801790315952,19.6401103732107
0.00185650440383536,19.6428410248086
0.00329575077693381,19.6458469261311
0.00509063844241734,19.6490434585724
0.00653148338108107,19.6513158203806
0.008129211763111,19.6535881821889
0.00965421672068293,19.655531655774
0.0112298407430493,19.6573241361411
0.0128408976389248,19.6589490999401
0.014597104620495,19.6605097083937
0.0165124102906539,19.6619984510136
0.0186298985223619,19.6634305494138
0.0209829761076556,19.6648095766566
0.0236022765357158,19.6661360820915
0.0265284067574554,19.6674144836955
0.0297962738482254,19.6686449307841
0.0334537475031604,19.6698313246622
0.0375525466923742,19.6709765822241
0.0421515477657215,19.6720836062229
0.0473175167899191,19.6731551454465
0.053134004410494,19.6741951287308
0.0596984803148624,19.6752072260305
0.0671279308856947,19.6761952908405
0.0755650321331835,19.6771635095492
0.0851862240449783,19.67811650942
0.096213919022801,19.6790595820499
0.108936577592235,19.679999121979
0.123737236582258,19.6809430195079
0.141146309166304,19.6819017019137
0.161910542373477,19.6828887163344
0.185949458746275,19.6838777923474
0.213888878103129,19.6848791390217
0.246566481880441,19.6859072120921
0.285210287669185,19.6869853751242
0.330310045750851,19.6881206569292
0.37154722731174,19.6890928210337
0.405811540915378,19.6898862845501
0.435430806292247,19.6905891726607
0.461322041233191,19.691246224723
0.483625698630871,19.6918841562161
0.502047097350943,19.692525008302
0.515836372645188,19.6931929883278
0.523462748629289,19.6939233676009
0.521905230047753,19.6947298642801
0.509043838857078,19.6955547394279
0.483577735283511,19.6964143207053
0.44379845197687,19.6973206437541
0.387793846439401,19.698282333181
0.343285476241709,19.6989226026533
0.293910881851371,19.6995628721255
0.249932233893765,19.7000979284757
0.21227745235282,19.7005442932291
0.179218915889058,19.7009365071149
0.149616768086516,19.7012951800029
0.122786929072234,19.7016328737612
0.0982635017577677,19.7019585682466
0.0756717556956241,19.7022801005694
0.0546309950378731,19.7026063941172
0.0345746469707957,19.7029522503436
0.013850844229784,19.7033630010582
0.00189384560000061,19.7036364742513
-0.00548940229218419,19.7038240377041
-0.012236934289157,19.7040116011568
-0.0181048244425692,19.7041904018574
-0.0241071896962225,19.7043923824037
-0.029964773312656,19.7046134494089
-0.0354914150833812,19.7048508466051
-0.0405829077257341,19.7051034417354
-0.0451839551480266,19.7053711617352
-0.0492684723788298,19.7056546672482
-0.0529188188372132,19.7059646600985
-0.0558925135058706,19.7062817737303
-0.0583477322762381,19.7066195558904
-0.0602989379502609,19.7069809475896
-0.0617603688598925,19.7073693790042
-0.0627460490429119,19.7077890800843
-0.0632682771051205,19.7082453094538
-0.0633360232145086,19.7087446925784
-0.0629529844183849,19.7092957411541
-0.0621130168800964,19.7099108251414
-0.0607959196965398,19.7106063266539
-0.0589597256095157,19.7114060077959
-0.0565190759929405,19.7123489733378
-0.0532746062197899,19.7135148504183
-0.0491999983627787,19.7149274016395
-0.0452407946984309,19.7162902494133
-0.0414538811018282,19.7176107344995
-0.0378679265152546,19.7188919102734
-0.0344975595097679,19.7201350105598
-0.0313495278115625,19.7213403469359
-0.0284253916689003,19.7225077781538
-0.025722923165372,19.7236369571398
-0.0232369873768302,19.724727459445
-0.0209602005020564,19.7257788459455
-0.0188834785020133,19.726790687076
-0.0169965187726789,19.7277625631464
-0.0152882281481986,19.7286940487125
-0.01370723477479,19.7296084483508
-0.0121846510046523,19.7305461593386
-0.0107252124424148,19.7315085987853
-0.00933289024497125,19.7324978201641
-0.00801147045536438,19.7335162277276
-0.00676450009511166,19.7345666657133
-0.00559523582497009,19.7356525317649
-0.00450659029723465,19.736777929104
-0.00350107621501845,19.7379478753081
-0.00258074769663035,19.7391685964178
-0.00174713792323547,19.7404479544011
-0.00100119095911189,19.7417960922443
-0.000343183624046305,19.7432264534307
0.000227370786993757,19.7447574895683
0.00070295643460231,19.7463809540714
0.00107597091470841,19.7480484483701
0.00136313023306653,19.7497782768859
0.00157916700890574,19.7515908851651
0.00173787528165569,19.7535134147831
0.00185250832260478,19.7555839788861
0.00193636597312985,19.7578604737311
0.00200387689320367,19.7604415425823
0.00207347327464449,19.7635315429707
0.00216672067822525,19.7672648812048
0.00228850297196157,19.7711957576076
0.00244031076188748,19.7752534199153
0.00260392273806857,19.7791117916497
0.0027763001597813,19.7828880627352
0.00295578676894131,19.786655335036
0.00314194547512304,19.7904629727695
0.00333542747569145,19.7943493166323
0.00353777317873519,19.7983474260799
0.0037512308697706,19.8024881325363
0.00397862254455705,19.8068020174006
0.00422327485272398,19.8113208211421
0.00448906920063272,19.8160788352482
0.00478067322808558,19.8211143260651
0.00510402881942294,19.8264707615845
0.00544461027426527,19.8318463693788
0.005797677611105,19.8371263601507
0.0061667993021037,19.8423254662933
0.00655446035449194,19.8474349037219
0.00696482125674073,19.8524647160719
0.00740228731921753,19.857422374429
0.00787169625871986,19.8623147688758
0.00837822535842249,19.867146260078
0.00892749451800533,19.8719190565669
0.00952565764986714,19.8766334025281
0.0101795342274851,19.8812881562808
0.0109038730926147,19.885924830589
0.0117195513128093,19.8905944595825
0.0126435839373971,19.8952974433118
0.0137011553655025,19.9000557433035
0.0149297612837428,19.9049162794783
0.0163966476353689,19.909993909797
0.0182682917282588,19.915633944741
0.0206867248301394,19.9220075742922
0.0222335867102482,19.925777470297
0.0238087828362623,19.9295473663018
0.0251801005554739,19.9329315088925
0.0263365173891584,19.9360483564925
0.0272876741653186,19.9390622586592
0.027979980856679,19.9419350742233
0.0284062277046165,19.9447444426022
0.0285521277762269,19.9476230470488
0.0283577137674643,19.9507846304861
0.0275548576987054,19.9549702896718
0.0266950154706965,19.9578283988715
0.0256330387420841,19.9606865080712
0.0245574974743243,19.9632295684166
0.0234838450168036,19.9655813977732
0.0224092601074967,19.9678309242233
0.0213355144262768,19.9700239101445
0.0202660488918559,19.9721875636747
0.0192045703473225,19.9743403400927
0.0181546448472212,19.9764959410191
0.017119585964742,19.9786652401299
0.0161024286028826,19.9808573459496
0.0151059308368614,19.9830802461072
0.0141325854208897,19.9853412270832
0.0131846286580868,19.9876471791642
0.0122640536958811,19.9900048181967
0.0113726206176637,19.9924208702338
0.0105118615637384,19.9949022458067
0.00968467944615365,19.9974511229034
0.00891376180259568,20
