ecg,time
0.52396915252394,15.0002046584148
0.494255239124761,15.0010706544068
0.449022387639566,15.0019943673656
0.387498734121006,15.0029634567389
0.341699448655368,15.0035785125213
0.291586697391716,15.0041935683037
0.247198882400267,15.0047098836355
0.209217903645194,15.0051433295802
0.175886077984611,15.0055260048841
0.146055078593657,15.0058772564979
0.119029614841087,15.0062090758611
0.0943298616497237,15.0065302380755
0.0715609973901079,15.0068486917177
0.0503025009998106,15.0071740500658
0.0298655801664552,15.007523884547
0.00772427326717881,15.0079653703319
-0.0012526579227362,15.0081716274897
-0.00939901910695703,15.0083778846476
-0.0158927549228547,15.0085588453295
-0.0219286765939625,15.0087437189065
-0.0279813933319601,15.0089496219367
-0.0338086258515796,15.0091731254434
-0.0392572806963779,15.0094122031317
-0.0442425963880428,15.009666175063
-0.0487207524162228,15.0099352600556
-0.0526726525165888,15.0102203280893
-0.0560937342147367,15.01052278368
-0.0591720996393649,15.0108694592804
-0.0614716908806214,15.0112118597873
-0.0632652152828807,15.0115785857269
-0.0645699180134713,15.0119736806037
-0.0653996528433166,15.0124017441772
-0.0657658608973655,15.0128685260895
-0.0656758409521709,15.0133813351355
-0.065130310836122,15.0139498138275
-0.0641175363006212,15.0145881607874
-0.0626093190893747,15.0153151664897
-0.0605482347706673,15.0161597108444
-0.0578126841527024,15.0171730349103
-0.0540742254542726,15.018478704588
-0.0499735500198566,15.0198758179924
-0.0460085900754888,15.021228553808
-0.0422266647326165,15.0225411657761
-0.0386511043951438,15.0238156972303
-0.0352939839039068,15.0250528397862
-0.0321606675953217,15.0262526047789
-0.0292518775833263,15.0274146814296
-0.0265648327171709,15.0285386254043
-0.0240940132789006,15.0296239556104
-0.0218317630005028,15.03067019909
-0.0197688084787204,15.0316769048184
-0.0178947236254342,15.0326436376388
-0.0161983461175792,15.0335699585329
-0.0146151049917575,15.0344870556946
-0.0130907303691807,15.0354276072441
-0.0116298042522263,15.0363931319636
-0.0102362660353678,15.0373857208104
-0.00891386161020893,15.0384078257835
-0.0076660895076599,15.0394623513318
-0.00649614843949999,15.0405527717863
-0.00540688234757094,15.0416832893337
-0.00440072280288495,15.042859051427
-0.0034796281208314,15.0440864581594
-0.00264501776098044,15.0453736109256
-0.0018976991897641,15.0467309930153
-0.00123778172258234,15.0481725521425
-0.00066456635105287,15.0497175286842
-0.000188774794060516,15.0513453105583
0.000186677565504661,15.0530193595342
0.000478271825433804,15.0547579676274
0.000700711167151071,15.0565822462382
0.000867829490215928,15.0585203822033
0.000993025009660149,15.0606122883291
0.00108992240455654,15.0629192993761
0.0011736627996902,15.0655478197866
0.00126457691463719,15.0687260088839
0.00138080906609534,15.0724620775784
0.00152714164084946,15.0764445155215
0.00170041648013852,15.0805217932056
0.00188139458390786,15.0843976026466
0.00206794546923388,15.0881909491247
0.00225895861042358,15.0919753678632
0.00245430019073337,15.0958004771007
0.00265474499754012,15.0997048042645
0.0028618060973856,15.1037215527606
0.00307756604289588,15.1078816766984
0.00330454459136714,15.1122158623016
0.00354562507802495,15.1167559686792
0.0038040892973583,15.1215364391478
0.00408381420072359,15.1265956981152
0.00438969764711154,15.1319774122331
0.00472113108984837,15.1376092290667
0.00505553362015236,15.1430517418666
0.00540244288717159,15.1484247944518
0.00576195493764207,15.1536825858575
0.00613866108626955,15.1588485818665
0.00653632564498001,15.16392961886
0.00695927312462767,15.1689361948267
0.00741190348679179,15.1738746084703
0.00789891933777267,15.1787489926515
0.0084253967222744,15.1835611786213
0.00899691931837991,15.1883112631376
0.00961968233526128,15.1929978801936
0.0103006028776408,15.1976186335486
0.0110589229834993,15.2022371736139
0.0119130429348602,15.2068791623439
0.0128819753383214,15.2115502990247
0.013992945899962,15.2162741671794
0.015287954819502,15.2211050478311
0.0168460948287753,15.2261795598343
0.0188843145699115,15.2319428777966
0.0207684198585073,15.236680619745
0.0223770528489671,15.2404634349681
0.0240224397771744,15.2442462501912
0.0254380868347671,15.247588111553
0.0266334789508469,15.2506542493043
0.027622001111953,15.253612446965
0.0283499917995936,15.2564270239504
0.0288112035471518,15.2591733711544
0.0289935650440708,15.2619787526212
0.0288423609987535,15.2650414722737
0.0281255673305163,15.2689972486091
0.0272878066396879,15.2718467332324
0.0262320447828055,15.2746962178557
0.0251615003393088,15.2772072011361
0.0240927926531127,15.279515201585
0.0230220663795054,15.2817155934325
0.0219508280775695,15.2838560046857
0.0208825066281225,15.2859641380091
0.0198208392806096,15.2880585146202
0.0187694218980523,15.2901527270963
0.0177315880090315,15.2922574534018
0.0167103839282259,15.2943815505845
0.0157085735498208,15.2965327101977
0.0147286489524821,15.2987178892332
0.0137728463323365,15.3009436037514
0.0128431562937787,15.3032161582803
0.0119413353201235,15.3055418268789
0.0110689197816996,15.3079270002722
0.0102272296641983,15.310378347199
0.0094173859543614,15.3129029366746
0.00862451211176783,15.3155634895847
0.00784383546913719,15.3184034551864
0.00707910420751288,15.3214441358371
0.00633421277770296,15.3247105363137
0.00561329792263664,15.3282316205338
0.00492070116253192,15.3320410823246
0.00426090888102388,15.3361782918976
0.00363844329743159,15.3406896329982
0.00305766053786888,15.3456308615316
0.00252247308477768,15.3510713197303
0.00203601885258602,15.3571017473289
0.00160539751066804,15.3637608814422
0.00124233577505373,15.3709130306349
0.000950470119245698,15.37865657681
0.00073519416687295,15.3866407328933
0.000564422413654802,15.395254973378
0.000427265643238932,15.4047773072716
0.000325812251135439,15.4147773072716
0.00025577566506057,15.4247773072716
0.000208000978384745,15.4347773072716
0.000175811913989298,15.4447773072716
0.000154447890323337,15.4547773072716
0.000140612109905931,15.4647773072716
0.000132064270213927,15.4747773072716
0.000127291491665245,15.4847773072716
0.000125272280361314,15.4947773072716
0.000125319477214143,15.5047773072716
0.000126978320185726,15.5147773072716
0.000129959452687729,15.5247773072716
0.00013409392168203,15.5347773072716
0.000139302810632668,15.5447773072716
0.000145577338494067,15.5547773072716
0.000152966865244597,15.5647773072716
0.000161573147173488,15.5747773072716
0.000171549855294252,15.5847773072716
0.000183106987362743,15.5947773072716
0.000196520437055304,15.6047773072716
0.000212147703686044,15.6147773072716
0.000230451653302658,15.6247773072716
0.000252035580779925,15.6347773072716
0.000277694917813221,15.6447773072716
0.000308494395427429,15.6547773072716
0.000345885441428532,15.6647773072716
0.000391889293196583,15.6747773072716
0.000445130267505735,15.6841043899717
0.000506121013393861,15.6927205454869
0.000575880963343441,15.7006767022205
0.000655607526226666,15.7080236030179
0.000746666627779879,15.7148085738893
0.000850606727534335,15.7210756412072
0.00096918040529597,15.7268657567308
0.00110437018620191,15.7322170067995
0.0012584185541111,15.7371648049813
0.00143386184910659,15.7417420766747
0.00163357070661356,15.7459794383851
0.00186079715521195,15.7499053706861
0.00211923195414834,15.7535463849813
0.0024130740556211,15.7569271894411
0.00274711744352997,15.7600708588607
0.00312686167894507,15.7629990101351
0.0035586552730672,15.7657319896617
0.00404988800803394,15.768289084636
0.00460925652346379,15.7706887737858
0.00524714495058551,15.7729490451503
0.00596743854037677,15.7750643828291
0.00676256650695576,15.7770127093489
0.00764222163290215,15.778826376805
0.0086208879713929,15.7805375397909
0.00972084791931413,15.7821801184713
0.0109807682219708,15.7837970289542
0.0125273411638131,15.7855073264815
0.0147237363459815,15.7875888112791
0.0164099480554616,15.7890088411135
0.0182137393070443,15.7904288709478
0.0198855142818067,15.7917052808486
0.0213686742757863,15.7928494024942
0.0227013537533613,15.7939314280285
0.0238892901130764,15.7949957108867
0.0249177928307063,15.7960797134981
0.0257539022151946,15.7972292212702
0.0263327997828743,15.798524780604
0.0264795092058837,15.8002065131096
0.0259892591851747,15.8018770270681
0.0249763933239355,15.8035475410266
0.0238177505012962,15.8049575755152
0.022510745310132,15.8063282307639
0.0210541907356564,15.8077363054089
0.0194563288314661,15.8092226978407
0.0177222291888883,15.8108269679188
0.0158823457181139,15.812602494111
0.0139453404124545,15.8146459912873
0.011443972992855,15.8176470313114
0.00944394973957767,15.8204598606664
0.00786894981122284,15.823046890935
0.0065675368061985,15.8255315896442
0.00543061911515919,15.828057648717
0.00443187569493399,15.8306540128975
0.00355288820987193,15.8333438155108
0.00277876593665151,15.8361504069533
0.00214716647027116,15.8388628297493
0.0016388165952216,15.8414240718928
0.00121793690319918,15.8438857472925
0.000860728810478219,15.8462911807876
0.000554258862994654,15.8486501412655
0.000292758901466191,15.8509319436852
7.07904929008288e-05,15.8531054114571
-0.000119480135414843,15.8551735086649
-0.000286234947687905,15.8571656898747
-0.000436559452351864,15.8591237496658
-0.000577244390961281,15.8611099136978
-0.000717767532902079,15.8632542158851
-0.000853914395236741,15.8654935764244
-0.000949050180403425,15.8671557422134
-0.00103989137248425,15.8688179080025
-0.00111778731493787,15.8703006848677
-0.00118875979266346,15.8716964728562
-0.00125800191926608,15.8730976395942
-0.00132991262737588,15.8745916834296
-0.00141114270621964,15.8763233992196
-0.00152278890295772,15.8787713350109
-0.00166726482733711,15.8820358636717
-0.00178783017868094,15.8848259944467
-0.00190225635643658,15.8875171296327
-0.0020320730949893,15.8906111764651
-0.0022006590663199,15.8946839862026
-0.00244959842209056,15.9008306928055
-0.00265161898849748,15.9062159829326
-0.00279713063547049,15.9109503591522
-0.00287547843507754,15.9151328933432
-0.00287832444892805,15.9189097308776
-0.002796420326047,15.9223724884451
-0.00262354739014359,15.9255321173236
-0.00235922178359616,15.9283960574158
-0.00200189905334975,15.9310200040921
-0.00154324390431578,15.9334807962281
-0.000959842177670499,15.93588027895
-0.000184872820011248,15.9384032048724
0.000860607440128595,15.9411796747937
0.00178754467324851,15.9433237429578
0.00278921334372746,15.945467811122
0.00383385688971797,15.947602653166
0.00525066614005343,15.9503951867354
0.00629225108058467,15.9523593991346
0.00739748030038461,15.9543236115337
0.00848871087292977,15.9561075213114
0.00963167181898191,15.9577942073943
0.0108875114212432,15.9594395792584
0.0122764085106273,15.9610338166863
0.0138354530397149,15.9625872456651
0.0155824835213652,15.9640891013657
0.0175488730117622,15.9655426436489
0.0197501814861615,15.9669394796222
0.0222170329645621,15.9682827271634
0.0249804843404311,15.9695742000082
0.0280735686649037,15.9708154875665
0.031534811344573,15.9720090969844
0.0354054819249212,15.9731569861805
0.039741480779085,15.9742636306734
0.0446043629471265,15.9753324078097
0.0500661980717523,15.9763667171301
0.0562119697459,15.9773700049404
0.0631423173695548,15.9783457531477
0.0709784553636873,15.9792976588141
0.0798667068947095,15.9802295651205
0.089986262605538,15.9811456124824
0.101559714344893,15.9820503789438
0.114868236660476,15.9829490758104
0.130274760090929,15.9838478666468
0.148259830723208,15.9847543324146
0.169483588370649,15.9856783717348
0.194484122893029,15.9866193322759
0.223416651373282,15.9875642935878
0.257025013931027,15.9885230520614
0.29632972615801,15.9895108513432
0.343001842080282,15.9905578239395
0.37979428161169,15.9913221167045
0.417940841457079,15.9920864094695
0.451776614107573,15.9927648489467
0.481393571966243,15.9933841932846
0.50733687834236,15.9939767352711
0.529582834613375,15.9945664706891
0.547628207506216,15.9951774211681
0.560296588822118,15.9958435062429
0.564774290596259,15.9966074747787
0.557820093568906,15.9973893358236
0.538264232392716,15.9982096435054
0.504293705277907,15.9990859224771
0.45472219407944,16.0000114228244
0.391471155418126,16.0009453590722
0.344451124778074,16.0015466247808
0.293432913646262,16.0021478904894
0.248483845061947,16.0026531375488
0.210099854333511,16.0030783609711
0.176451743969068,16.0034546589961
0.146361661262219,16.0038007832152
0.11911599945933,16.0041284410461
0.0942192708988744,16.00444632444
0.0712576260115455,16.0047625149082
0.049774633392302,16.0050872280942
0.0289653245058634,16.0054405684917
0.0106012825597409,16.0057995637618
0.00118883673287474,16.0060081617956
-0.00733791575587236,16.0062167598294
-0.0139734273178024,16.0063955690817
-0.0200474221180253,16.0065752620312
-0.0261761178665054,16.0067762462156
-0.0321030776526043,16.006994981462
-0.0376633764341987,16.0072292880977
-0.0427649735763496,16.0074783741765
-0.0473596521445245,16.0077423721194
-0.0514256850570714,16.0080220780514
-0.0549576193113338,16.0083188265281
-0.0579588330970879,16.0086344486339
-0.0605884944142684,16.008996939406
-0.0624859342081462,16.0093567790065
-0.063887614146382,16.0097439549582
-0.0648099933752035,16.0101632587184
-0.0652652958915504,16.0106202748349
-0.065261797107642,16.011122091657
-0.0648016265844319,16.0116779131234
-0.0638751070032341,16.0123014513007
-0.0624564408241056,16.0130108164668
-0.0604923441632933,16.0138334877172
-0.0578705469483141,16.014817391266
-0.0542981199127659,16.0160733998546
-0.0501701246746674,16.0174823179762
-0.0461645893545218,16.0188462839763
-0.0423343038744615,16.0201702870529
-0.0387057514199407,16.021456521678
-0.03529292777251,16.0227057281544
-0.0321025992476732,16.0239179163343
-0.0291366161679269,16.0250927499938
-0.0263931349481154,16.0262297496099
-0.0238674098388284,16.0273283973035
-0.0215524042467831,16.0283881868414
-0.0194393160647887,16.0294086409739
-0.0175180496743109,16.0303893080612
-0.0157776428240873,16.0313297445977
-0.0141910463455005,16.032238699535
-0.0126617710419359,16.0331707404521
-0.0111948245726327,16.0341270901326
-0.00979421896532031,16.0351097283748
-0.00846379769298402,16.0361209679404
-0.00720718058874469,16.0371635397272
-0.00602771352880289,16.0382406989239
-0.00492841605022299,16.0393563668018
-0.00391192706794305,16.0405153241991
-0.00298044856177209,16.0417234823332
-0.0021356866582883,16.042988273382
-0.00137878879085387,16.044319234409
-0.000710274292947187,16.0457289195101
-0.000129953209508393,16.0472344051555
0.000360503342404424,16.0488498863476
0.000744142787238635,16.0505052921724
0.00103830153496918,16.0522190344683
0.00125779443009649,16.0540103803815
0.00141638653824639,16.0559046570012
0.00152713045925513,16.0579369042943
0.00160283997380004,16.0601592782124
0.0016568755058232,16.0626579258136
0.00170498349837214,16.0656014775833
0.00177028762060096,16.0693416717716
0.00185744481712455,16.0731873073778
0.00198011726908124,16.0774298157563
0.00213136178660757,16.0818428473894
0.00232151492668201,16.0868680633147
0.0025154198793305,16.0917446223506
0.00271540608504908,16.0966713887462
0.00289669236166778,16.1010770346321
0.00306264800237951,16.105059076014
0.00322394332878754,16.1088684830491
0.00338596451545863,16.1126177311789
0.00355229354803053,16.1163716523124
0.00372585665773068,16.1201758513869
0.00390936444407854,16.1240668067292
0.00410553903050925,16.1280764529986
0.00431729053334195,16.1322351945077
0.00454785316994971,16.1365735720527
0.00480094465349854,16.1411235908355
0.00508101361048735,16.1459200736278
0.00539366154543507,16.1510020710234
0.00574354700650349,16.1563719208691
0.00610438743563315,16.1615718834706
0.00648707717689051,16.1667327855538
0.00689075514965294,16.1717983601946
0.007320276436827,16.1767857050813
0.0077799370018937,16.1816966626551
0.00827508797366316,16.1865384003528
0.00881145476407242,16.191314658623
0.00939529209729576,16.1960270674767
0.0100334229297942,16.2006751129873
0.0107360913423662,16.205273903494
0.0115273985871108,16.2099030187025
0.0124222669534862,16.214554131138
0.0134436110103194,16.2192437501189
0.0146238144392288,16.2240052561808
0.0160169662356955,16.2289195737133
0.0177393902572201,16.2342068558757
0.0202022381050093,16.2407406029073
0.0218522226082933,16.2447015491683
0.0235670325839984,16.2486624954293
0.0250605373199385,16.2521447087838
0.0263200979560579,16.2552768978222
0.0273722217259418,16.2582542269115
0.0281838606723134,16.2611134720964
0.0287280351908217,16.2638683495136
0.029000350466821,16.2666385832319
0.0289640016923218,16.2695871177522
0.0284834504970029,16.2731029295545
0.0276907642659218,16.2762321197708
0.0266112386020851,16.2793613099871
0.0255297508767073,16.281992202273
0.0244597324699723,16.2843523541428
0.0233891029773448,16.2865798237549
0.0223173040599863,16.288734918953
0.0212473653629628,16.2908500809862
0.0201829957053187,16.2929461079224
0.0191278545860862,16.2950378557643
0.0180853649014655,16.29713675222
0.017058666923342,16.2992521106115
0.0160506158077461,16.3013918950383
0.0150637933181539,16.3035632024538
0.0141005187993347,16.3057725980397
0.0131628636111476,16.308026353312
0.0122526628783785,16.3103306346719
0.0113715224925471,16.3126916714794
0.0105208338665941,16.3151158870828
0.00970177988750631,16.3176100460709
0.00890555741546943,16.3202146252154
0.00812032459083438,16.3229923270697
0.00734983543916097,16.3259632023811
0.00659790569932343,16.3291510967819
0.00586860015740415,16.3325836125497
0.00516620248937291,16.3362928384314
0.00449516663779196,16.3403162337963
0.00386002328087001,16.3446978568415
0.00326521758429887,16.3494903227573
0.00271484832542858,16.3547584285446
0.00221234866412683,16.3605857875557
0.00176025367999179,16.3670856741667
0.0013771521140533,16.3740655082046
0.00112657321453692,16.3797880229455
0.000931685762833676,16.3855105376865
0.000722012808127436,16.3937469450954
0.00056035375931125,16.4025117108695
0.000433256738893506,16.4121508694503
0.000342300215608057,16.4221508694503
0.00028140967336728,16.4321508694503
0.000242011002609421,16.4421508694503
0.000217887287188638,16.4521508694503
0.000204644942082462,16.4621508694503
0.000199284499350522,16.4721508694503
0.000199818888756492,16.4821508694503
0.000204969577531811,16.4921508694503
0.000213952682933681,16.5021508694503
0.000226341428724301,16.5121508694503
0.000241983264287972,16.5221508694503
0.000260954206504407,16.5321508694503
0.000283540401468538,16.5421508694503
0.000310243133147507,16.5521508694503
0.000341808140435832,16.5621508694503
0.00037928440323214,16.5721508694504
0.000424123171458502,16.5821508694504
0.000478336978883216,16.5921508694504
0.000544754028539112,16.6021508694504
0.000622418660548161,16.6115969548805
0.000711062544039292,16.6202951342166
0.00081203281286753,16.628298969602
0.000926991653241735,16.6356667926894
0.00105785282598036,16.6424525848258
0.00120679468261942,16.6487061122363
0.00137629283593406,16.6544733546243
0.00156916306867967,16.6597968680192
0.00178861507944003,16.6647160857702
0.00203831388156034,16.669267619228
0.00232246206591079,16.6734855597604
0.00264589925269504,16.6774017774714
0.00301423620079265,16.6810462138914
0.00343403338226992,16.684447223752
0.00391305382890374,16.6876319990539
0.00446063631381964,16.6906271104406
0.00508826704149983,16.6934592740506
0.00580714472820694,16.6961450415485
0.00661252241776384,16.6986530711126
0.0075240952727574,16.7010402336872
0.00857814848273405,16.7033798493899
0.0098578451991319,16.70580218612
0.0116522099237907,16.7087011603745
0.0128751798800445,16.7104712518386
0.0141640549880274,16.7122413433028
0.0153323390407986,16.7138222035211
0.016364114676734,16.7152562692608
0.0172769051532318,16.7166182266858
0.0180682882778168,16.7179573717403
0.0187220642045422,16.719316940475
0.0192072562157287,16.7207501353772
0.0194646009747953,16.7223498248864
0.0193342808726445,16.7243871684744
0.0187643107325786,16.7263066957966
0.0178280109552182,16.7282262231189
0.0168038335552165,16.729868026576
0.0156940830951153,16.7314326165655
0.0144996922405533,16.7330007078217
0.0132292565405975,16.7346131240876
0.0127472600359674,16.7352214793039
0.0122765197101113,16.7358298345203
0.0103837639136863,16.7384723553892
0.00871023574853534,16.7411447691213
0.00733416470433726,16.7436698379861
0.00612573157951588,16.7462227047827
0.00520531812329346,16.7484503830903
0.00450505928581282,16.7503598766117
0.00390894448351164,16.7521702913079
0.00336503413106536,16.754006291738
0.00283815149421724,16.7559925278961
0.00228326411685384,16.7583627229644
0.00165152017331031,16.7615170986451
0.00108770557161757,16.7648925164325
0.000654927507242861,16.7679800376891
0.000274392910190926,16.7711809143403
-9.73994374478631e-05,16.7749047181376
-0.000466805251185489,16.7794263940225
-0.000793355392607242,16.7844772073279
-0.00103391403635379,16.7893952187616
-0.0011821691080051,16.7938217570097
-0.00124874362854718,16.7978470066355
-0.00123470570483701,16.8015098644527
-0.00113769579535959,16.8048640613354
-0.000952497967512543,16.8079687082078
-0.000669707280042936,16.8108943093815
-0.00027317311912375,16.8137186773071
0.000270465397787695,16.8165606655914
0.00104318026982577,16.8196461783276
0.0020723886459418,16.8229090556465
0.00341616469771811,16.8264326130738
0.00454208749205187,16.8289977351485
0.00580755221194248,16.8315628572232
0.00702423059299362,16.8337465338914
0.00822365790978379,16.8356509640979
0.00949592483839343,16.8374304162756
0.0108763388723684,16.839119571343
0.0123936226258769,16.8407345543367
0.0140828277683171,16.8422913375911
0.0159622609775004,16.8437861886657
0.0180636316119196,16.8452258666672
0.0204125804180174,16.8466104758881
0.0230351710368529,16.8479400521335
0.0259684392203726,16.8492191232831
0.0292497814724455,16.8504501140469
0.0329197890926099,16.8516350905927
0.03703149573104,16.8527782613489
0.0416438363229672,16.8538829727509
0.0468258023645847,16.8549526463536
0.0526584297226263,16.8559907328095
0.0592390267728661,16.8570009611633
0.0666853838698432,16.8579873299159
0.0751405331325829,16.8589540413382
0.0847815958477967,16.8599057459082
0.0958317696445559,16.86084773784
0.108579728741862,16.8617863511049
0.123409610973158,16.8627294757403
0.140853109410701,16.8636875242888
0.16164743621498,16.8646735314819
0.185719124046607,16.8656616873587
0.213694529921852,16.8666621718326
0.246411461599715,16.8676893837582
0.285097053263103,16.8687665820383
0.330336428959529,16.8699030404665
0.371657287374033,16.8708750908965
0.405965924569133,16.8716678914901
0.43561611803695,16.8723700477959
0.461533064787197,16.8730264157224
0.483859629781225,16.8736637449694
0.502301575916557,16.874304108693
0.516107758210697,16.8749717818856
0.523741889914004,16.8757022263111
0.522174063015822,16.8765082761551
0.509292555054004,16.8773328872084
0.483793062236901,16.878192419066
0.443961299874924,16.8790989316069
0.38787824771001,16.8800610351186
0.343303187532074,16.880701673085
0.293854923657403,16.8813423110514
0.249820854530961,16.8818775570521
0.212127963034475,16.882323979102
0.17904140183622,16.8827161887138
0.149417200990658,16.8830748296694
0.122569213013982,16.8834124784033
0.0980303688195741,16.8837381220565
0.0754251504692593,16.8840596026868
0.0543721804662717,16.884385849332
0.034303891564366,16.8847316765954
0.0135645174295218,16.8851424912378
0.00162166092033941,16.885415475899
-0.00576265383070635,16.8856029375685
-0.0125112047825243,16.885790399238
-0.018380098790444,16.8859691054114
-0.024381310033416,16.8861709005565
-0.0302386295696593,16.8863917869964
-0.0357656374513891,16.8866290069702
-0.0408578694563604,16.8868814242119
-0.0454598497504996,16.8871489621726
-0.04954536710749,16.8874322782578
-0.0531006118210373,16.8877326022046
-0.056178260612995,16.8880587742222
-0.0586391497561936,16.8883963889467
-0.0605947701194303,16.8887574647119
-0.062060340764335,16.8891455426881
-0.0630499034406037,16.8895648466627
-0.06357577573444,16.8900206256563
-0.0636469567163273,16.890519492433
-0.0632671841835752,16.891069941231
-0.0624304006815607,16.8916843011382
-0.0611164964779885,16.89237892186
-0.0592836693327241,16.8931774894517
-0.0568469319700175,16.8941189439696
-0.0536081464684532,16.8952824058586
-0.0495293603098927,16.8966955567104
-0.0455654476595724,16.8980588968967
-0.0417735142961813,16.8993798599966
-0.0381824053097187,16.900661514522
-0.0348068500151565,16.9019051010245
-0.031653665082336,16.90311093368
-0.0287244638269673,16.9042788717538
-0.0260170609288062,16.9054085676823
-0.0235263558300807,16.9064995961173
-0.0212449916441085,16.9075515169755
-0.0191639044224708,16.9085638998917
-0.0172728053736594,16.909536324689
-0.0155606095015745,16.9104683658644
-0.013977359028499,16.9113824461388
-0.0124524200257524,16.9123198231304
-0.0109905436173595,16.9132819023342
-0.00959570141145591,16.9142707328359
-0.00827168028449366,16.9152887133875
-0.00702202826847631,16.9163386813644
-0.00585000309606206,16.9174240257382
-0.00475851838795352,16.9185488386032
-0.00375008747747768,16.9197181230016
-0.00282676444038748,16.9209380855689
-0.00199008125750954,16.9222165616759
-0.00124097891049008,16.9235636566412
-0.000579728125122815,16.9249927583616
-5.83123628256272e-06,16.9265222319134
0.000473525364919295,16.9281452047855
0.000850091450714835,16.9298119574879
0.00114064805435185,16.931540797399
0.00135997184611661,16.9333520963832
0.00152190527149257,16.9352728812977
0.00163975807782958,16.9373410691658
0.00172690234625377,16.9396141850592
0.0017978699881098,16.9421900470009
0.00187126076053262,16.9452705562906
0.00196910777490209,16.9490038480627
0.0020899522042944,16.9527760704174
0.00223546739201515,16.9565865319181
0.00240307378589645,16.960473664227
0.00258881425738326,16.9644708836468
0.0027893476200613,16.9686092868562
0.00300278066173013,16.9729195838961
0.00322885258505293,16.9774336333377
0.00346883993934944,16.982185863257
0.00372541962002243,16.9872146954118
0.00400266718177891,16.9925638464611
0.00430636172067498,16.9982837999974
0.00461689512605661,17.0039315429066
0.00493456632269288,17.0094615568386
0.00526198887511061,17.0148707885255
0.00560253537545978,17.020169425001
0.0059599139288689,17.0253719049897
0.00633788334937186,17.0304906758181
0.00674024884071788,17.0355349665936
0.00717095318033683,17.040511052584
0.00763420931960969,17.0454229566255
0.00813461571293366,17.0502728109682
0.00867726410833562,17.0550611113407
0.00926784186155976,17.0597869479438
0.00991272868558364,17.0644482699719
0.0106198544099312,17.0690469903007
0.0114152697350406,17.073678082323
0.0123131086022298,17.0783298113488
0.013336039716767,17.0830188560722
0.0145159204259441,17.0877776837267
0.0159057326292664,17.092684891157
0.0176181278384443,17.0979522812293
0.0200740346834479,17.1044832362036
0.0217378220225949,17.1084819636036
0.0234700662690261,17.1124806910036
0.0249753784224187,17.1159819836497
0.0262440208408137,17.1191229404042
0.0273048354813715,17.1221035460363
0.0281276324608275,17.1249697796838
0.028682643333686,17.1277275754526
0.028966388757716,17.1304961235453
0.0289437853181088,17.133435509175
0.0284864482878592,17.1369174378965
0.0276998606171886,17.1400821902358
0.0266176422602354,17.1432469425751
0.0255352315736848,17.1458923245701
0.0244653316410977,17.1482592695266
0.0233947985067338,17.1504911843052
0.0223228501186916,17.1526497877502
0.0212524815991439,17.1547680364815
0.0201873983986397,17.15686700458
0.0191312618986991,17.1589617358931
0.018087495437661,17.1610638128548
0.0170592387325285,17.1631826915212
0.0160493443475994,17.165326482727
0.0150603903177728,17.1675024428088
0.0140946919183773,17.1697173163704
0.0131543152499038,17.1719775854567
0.0122410924883693,17.1742896595777
0.0113566260005393,17.1766600616728
0.0105023057412033,17.1790955658387
0.00967931625206469,17.1816033569762
0.00888312672331597,17.1842099504938
0.00809784188025492,17.1869900784673
0.0073272596290067,17.1899636786804
0.00657518537754932,17.1931546654819
0.00584567214182507,17.1965907282654
0.00514299175220676,17.2003040582687
0.00447158563058092,17.204332236518
0.00383597365997878,17.2087194430867
0.0032405914953921,17.2135183953176
0.00268953048758784,17.2187939117439
0.00218621511873714,17.2246294549981
0.00173316172390762,17.2311378469645
0.0014526785314268,17.2360662533751
0.00122511344366635,17.2409946597858
0.000976638455757705,17.2480068590487
0.000767772996500975,17.2558417567435
0.000591453083624882,17.2647392294291
0.000450225635092156,17.2747392294291
0.000353092899757247,17.2847392294291
0.000287290890041688,17.2947392294291
0.000243517386793673,17.3047392294291
0.000215086991426281,17.3147392294291
0.000197337901167694,17.3247392294291
0.000187096298038918,17.3347392294291
0.000182226497681213,17.3447392294291
0.000181298029306028,17.3547392294291
0.000183361044204995,17.3647392294291
0.000187801317558542,17.3747392294291
0.000194247039774352,17.3847392294291
0.000202508438773225,17.3947392294291
0.000212539419267118,17.4047392294291
0.000224415498025117,17.4147392294291
0.000238325108883706,17.4247392294291
0.000254573103319819,17.4347392294291
0.000273596843299485,17.4447392294291
0.00029599716810558,17.4547392294291
0.000322589146689849,17.4647392294291
0.000354481575257873,17.4747392294291
0.00039320091570964,17.4847392294291
0.000440726500732883,17.4947084764069
0.000495375391467512,17.5039424195277
0.000557958749941563,17.5124692201971
0.000629559166659382,17.5203420646438
0.000711428717159898,17.5276114477576
0.0008049896451137,17.5343243652223
0.000911850056485669,17.540524532958
0.00103382697956123,17.5462526175507
0.00117297376389719,17.5515464453748
0.0013316115597753,17.5564411953887
0.00151236510640551,17.5609695827684
0.00171820519789717,17.5651620367416
0.00195249859876787,17.5690468723782
0.00221906866914157,17.5726504583285
0.00252226964698657,17.5759973849036
0.00286707969595264,17.5791106370809
0.00325922032016937,17.5820117754619
0.00370531273171486,17.5847211329748
0.00421308945066177,17.5872580404503
0.00479169015974412,17.5896411001776
0.00545209190255261,17.5918885421013
0.00619121106027865,17.5939760837912
0.00700782033133962,17.5959046951119
0.00791304311051776,17.5977073180818
0.00892352767212661,17.5994170086432
0.0100658863390476,17.6010705720001
0.0113892529588828,17.6027190206728
0.0130802728282983,17.6045332109366
0.0156805256342968,17.606914914922
0.0172934561547353,17.6082433603292
0.0189780798890245,17.6095718057364
0.020512442678506,17.6107735395767
0.021888730302374,17.6118878929809
0.0231221480941993,17.6129662856898
0.0242057188433107,17.6140473934075
0.0251151775452192,17.615171538431
0.0258033515733404,17.6163986687854
0.0261664916345112,17.6178635091053
0.025765180656019,17.6201385580355
0.0249755905598835,17.621588436838
0.0238761002769526,17.6230383156405
0.0226264645042345,17.6244155229976
0.0212272773083992,17.6258129559488
0.0196873190888402,17.6272752207918
0.0180137767752124,17.6288401109171
0.0173994432452137,17.6294173158932
0.0167943601745729,17.6299945208694
0.0154319016330602,17.6313520711287
0.0128898200231056,17.6341524847975
0.0105718089672273,17.6371207094245
0.00876289120636285,17.639834210697
0.00732034611498753,17.6423533486715
0.00608787411651958,17.6448529489798
0.00500733554137248,17.6474071684393
0.00405657442675836,17.6500413568561
0.00321879173290129,17.6527785405978
0.00248009743262045,17.6556426886788
0.00183685712074611,17.6586179782388
0.0013162449846914,17.6614812751064
0.000874569201726177,17.6643457060227
0.000485838527782581,17.6673073561402
0.000150225040871416,17.6702967423421
-0.000122212781011106,17.6730950473838
-0.000342141044892899,17.6756469325212
-0.00052626829303029,17.6780146102814
-0.000686050759286669,17.6802570998343
-0.000828908039128858,17.6824186284012
-0.000960412861746874,17.6845420824315
-0.0010860476110235,17.6866890812628
-0.00121365444130119,17.6889823667466
-0.00136942436297508,17.6919198859255
-0.0014591559547646,17.693670806851
-0.00154714448857474,17.6954217277764
-0.00162607896063022,17.6970156179658
-0.00170008961232113,17.6985254340162
-0.00177418522277867,17.7000478284144
-0.00185325812709596,17.7016802826983
-0.00194563263796919,17.70359228695
-0.00208167228900358,17.7064073720055
-0.00224398866284537,17.7097518720501
-0.00238286770105874,17.7125976315184
-0.00252119192555424,17.7154232512552
-0.00268075655177122,17.7186915229602
-0.00288370426521358,17.7229297741476
-0.00311807274426833,17.728205166535
-0.00329517851599797,17.733187077308
-0.00338433188429729,17.737573702226
-0.003384443328233,17.7413652024129
-0.00329790262442423,17.7448976991073
-0.0031070097192454,17.748396872841
-0.00281157862199038,17.7516588160412
-0.00242509927577614,17.7546069503319
-0.00194833474273392,17.7573223806563
-0.00137327939369861,17.7598842847504
-0.000675874098394572,17.7623907035297
0.00021482129054196,17.765027230356
0.00140299795696778,17.7679790595742
0.00254897382721714,17.7704828581163
0.00379007214841633,17.7729866566585
0.00519520500105865,17.775662794207
0.00635956052540476,17.7777700809877
0.00759647180154622,17.7798773677685
0.00883211050899103,17.7818183459434
0.0100634282752118,17.7835713717561
0.0113775532557313,17.785243667412
0.0128202599998173,17.7868635540188
0.014412838404838,17.788425677706
0.0161945017065108,17.7899417815809
0.0181808592470139,17.7914013834674
0.0204065579802861,17.7928100344138
0.0228987393331238,17.794166610593
0.0256823836194954,17.7954692303227
0.0287979387748934,17.7967227537872
0.0322857881662838,17.7979296646516
0.0361926747886814,17.7990928974466
0.0405714586849762,17.8002152724964
0.0454877723901412,17.8013007094816
0.0510174437743739,17.8023528060598
0.0572503108204711,17.803375231873
0.0642940475080979,17.8043718184933
0.0722789135419288,17.8053466091037
0.0813658236613908,17.8063041036992
0.091755545827326,17.8072492983837
0.103704385288514,17.8081880099593
0.11754817702804,17.8091273031517
0.133742858517538,17.8100762555845
0.152937236945881,17.8110473255029
0.175473099877531,17.8120329030568
0.201610363079661,17.8130255976288
0.232076880334601,17.8140375203318
0.267883681563222,17.815086793509
0.310663784756211,17.8162067310593
0.346074980529505,17.8170632351982
0.382963777221162,17.8179197393372
0.41572891441217,17.8186767658695
0.444360895887484,17.8193621098907
0.469355654330088,17.8200100366174
0.490720377409266,17.8206450642819
0.508051026392743,17.821289249438
0.520435375297174,17.8219687740513
0.525984259189245,17.822725276465
0.521512366176266,17.8235338734347
0.505412136542219,17.824365882121
0.476254018096782,17.8252367171831
0.432236997596262,17.8261572983949
0.371408963377876,17.8271363642906
0.328321931446494,17.8277286591349
0.28140491607221,17.8283209539792
0.23949423812407,17.8288241207812
0.203236561967936,17.8292520002823
0.171187832922023,17.8296329189977
0.142378630470093,17.8299844099671
0.116202082578208,17.8303176955182
0.0922260190532874,17.8306412334679
0.0700828483360085,17.8309629158481
0.0493643891545407,17.8312926117577
0.0293644425585418,17.831649121651
0.00721912985371915,17.8321111311444
-0.000905094845665124,17.8323067841921
-0.00831882611814831,17.8325024372397
-0.0146437042681832,17.8326856057661
-0.0206308077917698,17.8328763868713
-0.0265965599711696,17.8330879550391
-0.0323133267887203,17.8333169867395
-0.0376404413676606,17.8335616216746
-0.0425007611740533,17.8338213020388
-0.0468550619766209,17.8340963418787
-0.0506870017081723,17.8343876936421
-0.0542159503992968,17.8347216203607
-0.056917969728339,17.8350495297701
-0.0591063267492639,17.8353993227305
-0.0607981358192998,17.8357744622035
-0.0620077885671479,17.8361787875937
-0.0627486293031852,17.8366170470206
-0.0630314454027908,17.8370951822381
-0.0628627204992926,17.8376207527699
-0.0622417801456197,17.8382040182409
-0.0611553671180195,17.8388595372412
-0.0595733136509777,17.8396069756267
-0.0574346419467839,17.8404768628325
-0.0546088129008263,17.8415244581184
-0.0507270108735251,17.842889853992
-0.0467155749069748,17.8442733478089
-0.0428534632446992,17.8456126417154
-0.0391812000416164,17.8469116223614
-0.0357186841805521,17.8481721689716
-0.0324757942630988,17.8493949204993
-0.0294562469272949,17.8505798918298
-0.0266594318385815,17.8517268020787
-0.0240814704552861,17.8528352469307
-0.0217159525773163,17.85390478609
-0.0195545256206852,17.8549349822856
-0.0175874034354119,17.8559254109842
-0.0158038177125955,17.8568756512036
-0.0141924182580391,17.8577852631204
-0.0126475044975839,17.8587119538301
-0.0111638087470095,17.859662562444
-0.00974546341275469,17.8606389527425
-0.00839635671931678,17.8616433541334
-0.00712016344063255,17.8626783923704
-0.00592029442889223,17.8637471894643
-0.0047998445483494,17.8648534959408
-0.00376153854897916,17.866001870315
-0.00280767477557692,17.8671979286791
-0.00194006617199641,17.8684487019412
-0.0011599773198777,17.8697631650461
-0.000468054976718752,17.8711530544319
0.0001357528887406,17.8726341980816
0.000652299724532453,17.8742288287578
0.00106266464228952,17.8758734036382
0.00137969073932101,17.8775719666672
0.00161869622256845,17.8793431199701
0.00179377452747737,17.8812105192356
0.0019182440054721,17.8832064336112
0.00200510773480843,17.8853779717803
0.00206778501746565,17.8878007450554
0.00212169790355845,17.8906155853033
0.00218977445059255,17.89417264803
0.00228057045884529,17.8979569975911
0.00241004430807012,17.9021654038329
0.00258637861984722,17.9069188131423
0.00275728610169545,17.9110454514657
0.00292666199271137,17.9149154908685
0.00309685715838233,17.9186853330392
0.0032697369517104,17.9224351354068
0.00344733900989466,17.9262169996134
0.00363197968853216,17.930070567847
0.00382624724966467,17.9340293902174
0.00403299715793521,17.9381242650319
0.00425538357062092,17.942385492894
0.00449692357106436,17.9468442849076
0.00476164786099537,17.9515340727594
0.00505440449501181,17.9564919462743
0.00538138748410771,17.9617598547863
0.00573087004735714,17.9670842753936
0.00609507044398269,17.9723052712562
0.00647861267754565,17.9774525084134
0.00688365615415435,17.9825106018146
0.00731470388261718,17.9874898991211
0.00777641924334492,17.992395767547
0.00827411362937854,17.9972343312441
0.00881348231726841,18.002008743111
0.00940072725727815,18.0067199803016
0.0100426301538629,18.0113670631387
0.0107498943235538,18.0159676897627
0.0115463280098937,18.0205982311898
0.0124470764063363,18.025251122319
0.0134753069867567,18.0299432531714
0.0146639608981481,18.0347092052385
0.0160684916695343,18.0396329390989
0.0178098672330806,18.044944960104
0.0202750187433146,18.0514509586156
0.0219152334751131,18.0553766327132
0.0236164365566284,18.0593023068107
0.0251009407300829,18.0627666709666
0.026353756514126,18.0658909019575
0.0273993685906115,18.0688655841157
0.0282023006467,18.0717194857947
0.0287379296878384,18.0744728612194
0.0290011131341098,18.0772459901395
0.0289534424242243,18.0802047294916
0.0284523367925121,18.083755749572
0.0276552233505303,18.0868538951723
0.0265789066438606,18.0899520407726
0.025498750552056,18.0925708239572
0.0244288580907925,18.0949261189126
0.0233581684665693,18.0971511322788
0.0222863559928534,18.0993048832702
0.0212164920785987,18.1014193676866
0.0201522888911428,18.1035151766508
0.0190974005255421,18.1056070525649
0.0180552420099076,18.1077063560335
0.017028945669438,18.1098223586393
0.0160213587288355,18.1119629992411
0.0150350554376571,18.114135360338
0.0140723481783785,18.1163460002531
0.013135301312397,18.1186011908936
0.0122257439854906,18.1209071028574
0.0113452760992352,18.1232699754484
0.0104952830302372,18.1256962479538
0.0096769429517761,18.1281927032203
0.00888090545036091,18.1308017553226
0.00809595285545416,18.1335844202364
0.0073258384527524,18.1365608448299
0.00657438456739666,18.139754960003
0.00584566240515849,18.1431944644624
0.00514396059190033,18.1469115588971
0.00447373653651159,18.1509438272041
0.00383952103451041,18.1553354697473
0.00324575327158924,18.1601392776739
0.00269651785441521,18.1654202860528
0.00219522389997103,18.1712624661285
0.00174437912264832,18.1777795586937
0.00136274752033275,18.1847731476306
0.00111145974367932,18.1905510414693
0.000916515791059099,18.1963289353081
0.000707871872450575,18.204597907573
0.000545907199979775,18.2134562162255
0.000419234155762799,18.2231537921184
0.000328879829103259,18.2331537921184
0.00026795558967172,18.2431537921184
0.000228017415102438,18.2531537921185
0.00020293675908604,18.2631537921185
0.000188376235786713,18.2731537921185
0.000181364691428024,18.2831537921185
0.000179919360326744,18.2931537921185
0.000182745242061977,18.3031537921185
0.000189022888750568,18.3131537921185
0.000198270495543274,18.3231537921185
0.000210258478725483,18.3331537921185
0.000224958903301809,18.3431537921185
0.000242519206054958,18.3531537921185
0.000263255334232952,18.3631537921185
0.000287663232668114,18.3731537921185
0.000316450598765761,18.3831537921185
0.000350594190622786,18.3931537921185
0.000391432908790054,18.4031537921185
0.00044081499758661,18.4131537921185
0.000501331967936592,18.4231537921185
0.000572017560283997,18.4325873210452
0.000652746231468038,18.4412783596966
0.000744771099417748,18.4492796586329
0.000849624773960833,18.4566482058327
0.000969067421218813,18.463436789186
0.00110509954429623,18.4696941120788
0.00125999086057894,18.475465180833
0.00143631746833538,18.4807916399537
0.0016370073169392,18.4857120581178
0.00186539208987334,18.4902622024329
0.00212527378229732,18.4944753048858
0.00242100435239781,18.4983823196354
0.00275758955208475,18.5020121716624
0.00314082291351568,18.5053920262179
0.00357746754369211,18.5085475966936
0.00407551118427305,18.5115035063263
0.00464453490874849,18.5142837514946
0.00529628014476469,18.5169123588869
0.00603278202066889,18.5193753842955
0.00685461950904841,18.521671576457
0.00777947232803612,18.5238490057643
0.0088379420061306,18.5259651861583
0.0100930949466749,18.528109718759
0.0117392063851912,18.5305189737696
0.0131246940192482,18.5323152225603
0.0146196322759469,18.534111471351
0.0159933595606497,18.5357011843107
0.0171923993401424,18.5370964620497
0.0182578336407527,18.5383966027899
0.019197914706537,18.5396582816753
0.0200021132277508,18.5409237221065
0.0206454514743891,18.5422382314652
0.0210813611797148,18.5436703870816
0.0212058875031003,18.5453774654024
0.0207977836053932,18.5474155797017
0.0198599938644633,18.5494536940011
0.0188125595319115,18.5510854925094
0.0176735473720057,18.5526014381042
0.0164337552180094,18.554114748173
0.0151005509927073,18.555672256283
0.0143252728433308,18.5565662712445
0.0135581555788097,18.557460286206
0.0128321583321286,18.558339356744
0.0107722331265884,18.5610600651723
0.00898239632044364,18.5637797046912
0.00752833275629502,18.5663303507465
0.00628911011624783,18.5688378423423
0.00524185180218317,18.5712826634329
0.00433619806761717,18.5737212788952
0.00352141737740792,18.5762601923397
0.00273769617255668,18.5791194501225
0.00220640935631387,18.5813683432175
0.00173909387760973,18.5836172363125
0.00138656501319307,18.585523380257
0.0010956580884133,18.5872615493433
0.000834409392291247,18.588973427334
0.000584746970575558,18.5907656935393
0.000328978813011745,18.5927871706412
3.05830147368327e-05,18.5954266382531
-0.000377254506255177,18.5996363058031
-0.00068056274735919,18.6033333996456
-0.000920807399562753,18.6066835393645
-0.00115621123368491,18.610395416842
-0.00141840200628289,18.6151348681943
-0.00167654987037895,18.6206849486845
-0.00185258490305766,18.6255290845624
-0.00195786307626504,18.6299415565051
-0.00198612445697977,18.6339326659631
-0.00193136188926556,18.6375467830189
-0.00178781984706423,18.6408439132462
-0.00154972920760174,18.6438808955213
-0.00120947521570181,18.6467212152469
-0.000753120860265659,18.6494424817215
-0.000149720993787751,18.652157382963
0.000676290491563203,18.6550636832582
0.0017812673430284,18.6582060112774
0.00322022625817669,18.6616428515136
0.00459758568994581,18.6645325576471
0.0057214496332639,18.6666744301794
0.00695463466959305,18.6688163027118
0.00821582066003714,18.6707867733098
0.00949932540034925,18.6725740478963
0.010878050018137,18.6742708912422
0.0123793756201928,18.675890387567
0.0140397802010832,18.6774498656021
0.0158839408244294,18.6789504528674
0.017940359274095,18.680395362434
0.020238581143888,18.6817868789847
0.0228016207505578,18.6831227517936
0.0256677126177226,18.6844082344865
0.0288731602673166,18.6856453400853
0.0324583494253268,18.6868362280037
0.0364718372461069,18.6879840816309
0.0409718618727788,18.689092660519
0.0460247455190882,18.6901653091718
0.0517086367650571,18.6912054914479
0.0581158061548345,18.6922167166621
0.065357765906273,18.6932028094768
0.0735700002389207,18.6941678584864
0.0829186356746197,18.6951162592855
0.0936113670064414,18.6960529535898
0.105913042602226,18.6969836808038
0.120170775416348,18.6979154355513
0.136854560595125,18.6988571530698
0.156630802165231,18.6998210338635
0.179810994930433,18.700797900777
0.206689801966951,18.7017819058193
0.238008980801085,18.7027848461566
0.27479835838127,18.7038245342377
0.318737435636056,18.7049344782995
0.354314484765519,18.7057663138111
0.391276780502988,18.7065981493226
0.42409086382616,18.7073351242048
0.452772603736885,18.7080045791904
0.477809659974562,18.7086399134278
0.499188630277255,18.7092653837603
0.516468769922927,18.7099034904074
0.528658423214972,18.7105821801009
0.533635295034105,18.7113489840125
0.52811794771132,18.7121527135276
0.510712769012231,18.7129837240434
0.479896997592705,18.7138575723618
0.433757856099916,18.7147851275416
0.371180751645436,18.7157616994673
0.327665527471968,18.7163454379024
0.280496366177933,18.7169291763375
0.238438155999175,18.7174258573146
0.202061680139121,18.7178491460074
0.169913619714444,18.7182266125786
0.1410210641026,18.7185753926083
0.114772741947076,18.7189065287807
0.0907309234938502,18.7192284256872
0.0685194890676298,18.719549050509
0.0477118759914343,18.7198786224109
0.0275381207651552,18.7202374380717
0.0097609116323443,18.7206012241144
0.000672838422093983,18.7208118599176
-0.00756826180919503,18.7210224957209
-0.0141099539974473,18.7212066489481
-0.0200942771917209,18.721391771359
-0.0261126684665475,18.7215983568622
-0.0319187109299022,18.7218228649625
-0.0373548135570487,18.7220631362266
-0.0423336451777191,18.7223184125232
-0.0468098850918573,18.7225888657969
-0.0507635006754941,18.7228753352208
-0.0541846359783592,18.7231792022041
-0.0571280511122118,18.723509885314
-0.0594571455447119,18.7238522719136
-0.0612832579133159,18.7242189753769
-0.0626218446742353,18.7246137555558
-0.0634867611378915,18.7250411122495
-0.063889665535904,18.7255066605176
-0.0638383371081506,18.7260175165391
-0.0633344886438764,18.7265829339547
-0.0623679953734549,18.7272167245071
-0.0609133609209646,18.7279368597468
-0.0589184978674324,18.7287705964728
-0.0562747525703547,18.7297651274678
-0.0527030864545671,18.731027905613
-0.0486359983855025,18.7324271814474
-0.0447000376059936,18.7337807045024
-0.0409449635870169,18.7350933277372
-0.037395092788305,18.7363673902649
-0.0340628628355993,18.7376037519781
-0.0309537411921686,18.7388025244436
-0.0280684417683424,18.7399634593828
-0.0254041306112359,18.7410861531458
-0.0229552224832262,18.7421701520749
-0.0207139986161961,18.743215002127
-0.0186711336314066,18.7442202653347
-0.0168161629884538,18.7451855152589
-0.0151378999371704,18.7461103181154
-0.0135680926451741,18.7470283876723
-0.0120575770325411,18.747969950514
-0.0106108984843533,18.7489365592067
-0.00923200374680476,18.7499303183356
-0.00792464620874406,18.7509536967151
-0.00669233306403647,18.7520096195822
-0.00553827371229376,18.753101587396
-0.00446532596372848,18.7542338357738
-0.00347594001093103,18.7554115558123
-0.00257209974132905,18.7566412059313
-0.00175526031247788,18.7579309676875
-0.00102627977863079,18.7592914383852
-0.000385340446849836,18.7607367350411
0.000168148690485603,18.7622863638901
0.000622847671252562,18.7639157109418
0.000977838328452829,18.7655920514406
0.00124936761483428,18.7673336895056
0.00145195989913509,18.7691619645815
0.00159924669616197,18.7711054224719
0.0017043807341966,18.7732045966022
0.00178065649168684,18.7755220181291
0.00184270544528295,18.7781668370537
0.00190990039525795,18.7813759318073
0.00200027995999572,18.7851142125192
0.00211522617341897,18.7889085740239
0.00225182132724145,18.7926694078127
0.0024067374523205,18.7964510429271
0.00257623588030775,18.8002955941506
0.00275754043440911,18.8042379438652
0.00294927244821458,18.8083096189853
0.00315143732117752,18.8125411508054
0.00336524248278455,18.8169637268344
0.00359288692121838,18.8216105236507
0.00383743978035113,18.8265181520013
0.00410290766142272,18.831728017032
0.00439460822073038,18.837287801734
0.0047037392117834,18.8429587078137
0.00501835575396841,18.8484660846536
0.00534459891293653,18.8538765444927
0.00568407142190331,18.8591704392511
0.00604086104666404,18.8643687507184
0.00641860029069,18.8694815134861
0.00682122465087484,18.8745191590823
0.00725275179600488,18.8794881613364
0.00771747867767298,18.8843927532989
0.00822008284933816,18.889235131705
0.00876573818404523,18.8940158083484
0.00936021395756756,18.8987338194857
0.0100099767409196,18.9033870555679
0.0107251257692906,18.9079900543852
0.0115301257924512,18.91262332308
0.0124400422284294,18.9172787133994
0.0134783046876526,18.9219738958194
0.0146784404483491,18.9267449099911
0.0160974344924666,18.9316792680443
0.0178616218898377,18.9370194923014
0.0203313127922248,18.9434974393079
0.0219618785407139,18.9473861809641
0.0236491638955136,18.9512749226202
0.025124336482419,18.9547205253733
0.0263701484293423,18.9578365663706
0.0274090092900535,18.9608088164853
0.0282030602880731,18.9636580943199
0.0287299195780699,18.9664109754656
0.0289837533935265,18.9691884074124
0.0289244044419948,18.9721596330008
0.0284012113158429,18.9757521162112
0.027600040504876,18.9788189099558
0.0265277314431768,18.9818857037005
0.0254494123602593,18.9844927119492
0.0243798705887384,18.9868440642708
0.0233091559500317,18.9890679102495
0.0222372142685847,18.991221912195
0.021167171706462,18.9933376182524
0.02010274545542,18.9954354415958
0.0190475811619127,18.9975300579526
0.0180050794941544,18.999632824819
0.0169783566448358,19.0017530522104
0.0159702424757042,19.0038987524926
0.0149832930853974,19.0060771151103
0.014019803702734,19.0082948370285
0.0130818205020015,19.0105583695426
0.0121711573203029,19.0128741007928
0.0112893991218417,19.0152485403241
0.010437917474979,19.0176884602845
0.00961788159728134,19.0202010426352
0.00882244594670515,19.0228207849546
0.0080382277512064,19.0256155166207
0.00726901584580481,19.0286055037952
0.00651863708235754,19.0318149396301
0.00579116547597701,19.0352718408432
0.00509088943452426,19.0390087979146
0.00442226267430467,19.0430638704983
0.00378980736598516,19.0474818428187
0.00319794366198906,19.0523162626403
0.00265072377953223,19.057633189612
0.00215150607820827,19.0635180959292
0.00170357978586003,19.070073060647
0.00142937117872931,19.0749852578214
0.00120702926341331,19.0798974549957
0.000972956299051832,19.086597834217
0.000760842783381497,19.0946371898697
0.000588520072653558,19.1034669186904
0.000449423106620887,19.1134669186904
0.000353999944045415,19.1234669186904
0.000289637224651975,19.1334669186904
0.000247150906944452,19.1434669186904
0.000219946738323492,19.1534669186904
0.000203432622256531,19.1634669186904
0.000194489736045884,19.1734669186904
0.000191028992241839,19.1834669186904
0.000191663176684126,19.1934669186904
0.000195486291499036,19.2034669186904
0.000201931909520847,19.2134669186904
0.000210683310019382,19.2234669186904
0.000221616940220349,19.2334669186904
0.000234768893352168,19.2434669186904
0.000250319313595011,19.2534669186904
0.000268592712360726,19.2634669186904
0.000290074423239377,19.2734669186904
0.000315445829638971,19.2834669186904
0.00034564433034412,19.2934669186904
0.000381959209362363,19.3034669186904
0.000426183343264265,19.3134669186904
0.000479172822458144,19.3231858281245
0.000539891316403136,19.3321727418428
0.000609262994383727,19.3404658537292
0.000688472576829644,19.3481186398414
0.00077888519297165,19.3551813984514
0.000882050414839172,19.3617008360011
0.000999721028183127,19.3677203248975
0.0011338787471682,19.3732801532212
0.00128676474221903,19.3784177482246
0.00146091453576734,19.3831678828093
0.00165919873836357,19.3875628719257
0.00188487128481139,19.3916327618643
0.00214162765110485,19.3954055121517
0.00243367569340097,19.3989071748408
0.00276582478489421,19.4021620774099
0.00314359913321431,19.4051930139027
0.00357338635142099,19.4080214501914
0.00406263756165604,19.4106677567349
0.00462014597211501,19.4131514891694
0.00525645069111123,19.4154917496763
0.0059756191505952,19.4176831604932
0.00677086415447175,19.4197044918803
0.00765279986610658,19.4215903720377
0.00863758072738598,19.4233759151206
0.00975097695400642,19.4250998329706
0.0110404111262322,19.426815140008
0.0126661770690589,19.4286768443818
0.0151500770299767,19.4311064769701
0.0167152915416318,19.4324821439959
0.0183526065137881,19.4338578110218
0.0198426475916371,19.4350994896102
0.0211766390351999,19.4362472916582
0.0223704845779167,19.43735513217
0.0234179829373945,19.4384627367595
0.0242960684278756,19.4396105073443
0.0249600247254368,19.4408569329264
0.0253137527297967,19.4423285093097
0.0249682157421711,19.444568471106
0.0242168396221692,19.4460581812763
0.023148316464914,19.4475478914466
0.0219347256757021,19.4489480415323
0.0205786966112634,19.4503582692675
0.0190892664696614,19.4518252715872
0.0174746221180485,19.4533861477645
0.0169045846150581,19.4539385892738
0.0163416238099116,19.4544910307831
0.015378395861716,19.4554687786612
0.0129637848620771,19.4581429129816
0.0106504841714887,19.4611043770228
0.00883185586063681,19.463826960862
0.00738034038787486,19.4663543884036
0.00614099573362191,19.4688585764578
0.00505381259671632,19.4714166717638
0.00409650787596643,19.4740542862199
0.00325222216036894,19.4767945378889
0.00250700384347152,19.4796614447257
0.00185180697636678,19.4826663934672
0.00132551767571699,19.4855341709863
0.000886287118637434,19.4883472313093
0.000508080316655121,19.491172495998
0.000183015702257143,19.4939827605889
-8.84581379802792e-05,19.4966653347733
-0.000314528680329337,19.4991770672874
-0.000507586052251634,19.5015502781068
-0.000678221961965997,19.5038399813578
-0.000834750646347966,19.5061080443852
-0.000985529337129759,19.5084475182422
-0.00114590800374465,19.5110990370597
-0.00126909162629278,19.5132424926031
-0.00138776451994384,19.5153859481464
-0.00148587453604168,19.5172083980299
-0.00157218967696625,19.5188434870975
-0.00165500337859246,19.5204352187579
-0.00173973308667566,19.5220822710278
-0.00183282758724117,19.5239080271819
-0.00194860747012873,19.5261942002351
-0.00216343917288325,19.5304559123145
-0.00235991327423523,19.5343622434887
-0.0025281964039022,19.5377250957433
-0.00270646744232697,19.5413420816218
-0.00292562640342547,19.5459960102517
-0.00313805261386398,19.5511628180443
-0.00327483912670814,19.5559062860943
-0.00331683226885453,19.5598580977175
-0.00327375025090566,19.5634466690834
-0.00313603767521075,19.5669335107433
-0.00287701198176621,19.5704714769223
-0.00251880426324315,19.5736606333587
-0.00206736911303426,19.5765783388801
-0.00152224163600866,19.5792933151022
-0.000870320577446182,19.5818903782598
-7.58193633997924e-05,19.5844857547057
0.000963668130749418,19.5873151121176
0.00231148859168534,19.5904311520783
0.00380615616717871,19.5934786892348
0.00542546849588103,19.596491994418
0.00666414840662773,19.5986326762227
0.00800003085283194,19.6007733580274
0.00935163568324627,19.6027474666082
0.0106804353469555,19.6044932553548
0.0121185772332423,19.60617509725
0.0136662956643321,19.6077686756177
0.015383419598632,19.6093129990044
0.0172849289764325,19.6107973968765
0.0194096016238998,19.6122313257207
0.021779107459511,19.6136102694045
0.0244283777519338,19.6149379469504
0.0273923405205593,19.6162162572994
0.0307088204450102,19.6174470257146
0.0344194413732002,19.6186321681493
0.0385787082640892,19.6197759053367
0.0432468258863646,19.6208815278657
0.0484945300634274,19.6219524906557
0.0544047297071703,19.6229922522173
0.0610784744163722,19.6240047786198
0.0686371407916079,19.6249941264259
0.0772292946477003,19.6259646793376
0.0870400012665145,19.6269213391417
0.098304243951446,19.627869757746
0.111329263583997,19.6288168225816
0.126529328752677,19.6297712699707
0.144489842299611,19.6307449870795
0.165729064000679,19.6317397009634
0.190349578953968,19.632739643443
0.219026075988626,19.6337565098666
0.252684013846477,19.6348073402637
0.292754614445368,19.6359214485178
0.338087830265773,19.6370684171444
0.376365085953463,19.6379881289129
0.408680406116732,19.6387609933354
0.436832250089785,19.6394592228271
0.461381911899314,19.6401192982046
0.48231374771311,19.6407654446192
0.499217606069587,19.6414192979882
0.511197220144941,19.642106048395
0.516446396988538,19.642864215567
0.511895318446223,19.643680352046
0.49587743196972,19.6445174608955
0.467014950511746,19.6453903495269
0.423598617404627,19.6463095588184
0.363773628680064,19.6472844281137
0.321827225308199,19.6478688802926
0.276223093420353,19.6484533324715
0.235355413125301,19.6489519775219
0.199846232876728,19.6493781140586
0.168367139634435,19.6497587285397
0.14001747424159,19.6501106860475
0.114225894343138,19.6504449181589
0.0905801820889523,19.650769761339
0.0687247477877902,19.6510930870073
0.0482578528998787,19.6514248664653
0.0284693583720025,19.6517843907934
0.0063654700444521,19.6522552595905
-0.00155677356102521,19.6524503540925
-0.00879013163224206,19.6526454485945
-0.0150190351269984,19.652829770638
-0.0209794351239141,19.6530239956895
-0.0268944706691996,19.6532388035081
-0.0325457361975876,19.6534709576792
-0.0378001681196721,19.653718713976
-0.0425852225081167,19.6539815969204
-0.0468644253189145,19.6542599830618
-0.0506195967463369,19.6545548779766
-0.0539906486904351,19.6548845041693
-0.056633427460213,19.6552158448754
-0.0587668763135951,19.6555694671067
-0.0604069512166578,19.6559487760937
-0.0615678421454892,19.656357669931
-0.062262605851686,19.6568009703426
-0.0625016568050737,19.6572847119022
-0.0622910194878235,19.6578165750716
-0.0616292388418725,19.6584071241319
-0.0605022338039252,19.6590710887327
-0.0588787365101767,19.6598285616986
-0.0566958075794129,19.6607108867883
-0.0538180183098773,19.6617753544855
-0.0498539842140547,19.6631709091893
-0.0458752206846083,19.6645477067965
-0.0420526410953956,19.6658802111482
-0.0384232519209989,19.6671723042429
-0.0350053650228065,19.6684257911116
-0.031807831023432,19.6696412868999
-0.0288335925123107,19.6708188092212
-0.0260814158495303,19.6719580921554
-0.0235469136243553,19.6730587507777
-0.0212232675151162,19.6741203640815
-0.0191018109086196,19.6751425111184
-0.0171725318751897,19.6761247787157
-0.0154245177116186,19.6770667507522
-0.0138338858276595,19.6779753200561
-0.0123003341345245,19.6789069256096
-0.0108289137152139,19.6798627686978
-0.00942364214666952,19.6808448241463
-0.00808836725892955,19.6818553970764
-0.00682671188451164,19.6828972077591
-0.00564202351371225,19.6839734970226
-0.00453732169823131,19.6850881669244
-0.00351524334119278,19.6862459725475
-0.00257798565879975,19.6874527902109
-0.00172724611529275,19.6887160039125
-0.000964157790812348,19.6900450824008
-0.000289217106648765,19.6914524793483
0.000297802124087533,19.6929551163104
0.000796069706832488,19.6945700097617
0.00118704181658113,19.6962243176047
0.00148814177867351,19.6979364959707
0.00171433726137827,19.6997256887581
0.00187956236412359,19.7016170314996
0.00199707240578872,19.7036452384874
0.00207995242269646,19.7058618619507
0.00214197598348755,19.708351761055
0.00219963518092398,19.7112800455739
0.00227838051730504,19.7150228968952
0.00238080503797434,19.7188602162781
0.00251329506642613,19.7228321410842
0.00266163233083637,19.7266481883663
0.00282195590436509,19.7304056354346
0.00299173013854903,19.7341688448734
0.00316979521140569,19.7379832059854
0.00335625817681213,19.741885066205
0.00355228309036905,19.7459065271369
0.00375988269228084,19.7500780754918
0.0039817538431361,19.7544303761091
0.00422118253179597,19.7589955987912
0.00448208504881253,19.7638088355381
0.00476925132490264,19.7689095035367
0.00508887748319758,19.7743426082789
0.00542265117791864,19.7797331813727
0.0057702502462401,19.7850377143965
0.00613394189962123,19.7902492380718
0.00651690583845953,19.7953691541709
0.00692319622003356,19.8004061768407
0.00735726851493278,19.8053687333995
0.00782390290981164,19.8102632839556
0.00832822928431415,19.8150938547009
0.00887580009499387,19.8198620959595
0.00947269153868363,19.8245676457031
0.0101256186103606,19.8292086547954
0.0108475141304824,19.8338155345281
0.0116607144088422,19.8384502677522
0.0125814080520774,19.8431090187407
0.0136338414255072,19.8478103960771
0.014853336726054,19.8525941843127
0.0163012677684183,19.8575575971103
0.0181198446764048,19.8629787491783
0.0205897532723829,19.8693752824222
0.0221934085433047,19.8731743487576
0.0238431964821648,19.876973415093
0.0252887407213223,19.8803669436332
0.0265108025978815,19.8834589888973
0.0275262929347732,19.8864238397424
0.0282897605799447,19.8892560929594
0.0287864519888825,19.8920046399649
0.0290077348173771,19.8947928695886
0.0289073601576961,19.8978016160314
0.0283042513916138,19.9015351798033
0.0274865671873987,19.9045012219711
0.0264224806186599,19.9074672641389
0.0253477220404078,19.9100313655711
0.0242784078177618,19.9123636431102
0.0232075487230174,19.9145769140446
0.0221358114426353,19.9167243781972
0.0210664565932963,19.9188359214781
0.0200032121567342,19.9209311383286
0.0189497056491363,19.9230242251019
0.0179093133103989,19.9251262239383
0.0168851268159796,19.9272462167735
0.0158799530991843,19.9293920359122
0.0148963271073522,19.931570716227
0.0139365246061652,19.933788810696
0.0130025735769511,19.936052626714
0.0120962696296545,19.9383684022016
0.011219180901539,19.9407424778046
0.0103726608202206,19.9431814360069
0.00955786100408597,19.9456922334559
0.00876320736670805,19.9483254724109
0.00798015493520808,19.9511350745713
0.00721245961784088,19.9541417200572
0.00646397757193307,19.9573698574044
0.00573881174317188,19.9608477962672
0.00504127524614357,19.9646084742661
0.00437584107584655,19.9686903579255
0.0037470385336586,19.9731387418541
0.00315927293199695,19.9780078994184
0.00261655448470871,19.9833650205826
0.00212217093161616,19.9892974774153
0.00175616182573505,19.9946487387077
0.00145287650652514,20
