ecg,time
0.0108177896033776,15.0001914608764
0.00964764908590892,15.0019343991451
0.00863066537976556,15.003612773426
0.00773534610570126,15.0052482996522
0.00693293884028272,15.0068710395527
0.00619304113761573,15.008531568335
0.00546937543889419,15.0103477506328
0.00483701088231375,15.0121325740225
0.00439320790752681,15.0135238589741
0.00398866096514024,15.0149151439258
0.00365781941761202,15.0161581658402
0.00336941280229634,15.0173340643262
0.00310126170284831,15.0185187741629
0.00283745479223182,15.0197863550868
0.00255803999533816,15.0212621041551
0.00220576212244823,15.0233693201715
0.00181058407995521,15.0261814366511
0.00151728482137787,15.0287184195011
0.00127673154811755,15.0312372405515
0.00104452976928634,15.0342683645049
0.000809876868738922,15.0384602598673
0.000646356785536715,15.0431204840549
0.000565707659398845,15.0483410301606
0.000583155878326627,15.0532040699101
0.000681149864736977,15.0575453096574
0.000848262662345326,15.0614208175849
0.00107856375465654,15.0648740666079
0.00136937799485192,15.0679529101183
0.00172017729150224,15.0707053903239
0.0021320790456861,15.0731776258432
0.00260850135555013,15.0754161649676
0.00315508607355948,15.07746376229
0.0037818361977651,15.0793644720211
0.00450520564234843,15.0811636181776
0.0053527459968218,15.0829119056896
0.006377633147838,15.0846812097149
0.00769454334344752,15.0865940126535
0.00961099134403214,15.0889282573706
0.0119894007701618,15.0913719917585
0.0139388716539083,15.093118246585
0.0161354595784444,15.0948645014115
0.0183188151638001,15.0963965332578
0.0206200254598637,15.0978184035381
0.0230535401903176,15.0991358051552
0.0257201676718944,15.1003946303493
0.0286609541133927,15.1015991905509
0.0319364263413796,15.1027590082169
0.035592790515863,15.1038752118352
0.0396938654506312,15.1049527870848
0.0442930341079014,15.1059919248125
0.0494645061855764,15.1069963301532
0.0552886989848601,15.107968687511
0.0618565341172793,15.1089114793308
0.0692718155553567,15.109827089375
0.0776598923348558,15.1107184719001
0.0871714051002559,15.1115888534656
0.0979844105540455,15.1124413694766
0.110313516493085,15.113279319383
0.124419458248338,15.1141062018902
0.140621056145716,15.1149257391736
0.159316376117851,15.1157421581456
0.181008696796227,15.1165603178872
0.206362440132511,15.1173865172539
0.23633528225273,15.1182305942118
0.271263804619988,15.1190825999634
0.311714666897083,15.1199428208123
0.358989519923889,15.1208292553383
0.40055477062573,15.121538623886
0.444491790292904,15.1222479924338
0.48287789715875,15.1228579116094
0.516355526868361,15.1234042644935
0.546029894464301,15.1239239612411
0.572111504969138,15.1244413646798
0.594257852849563,15.1249801649667
0.611481023419494,15.125575448993
0.62091773261219,15.1262722015119
0.618372509862423,15.1269910764736
0.602804931722763,15.1277566794525
0.576277380020599,15.1285012643376
0.538854433508039,15.1292623980944
0.487445301193092,15.1300902878373
0.419264745147914,15.1309981246157
0.365814707617653,15.1316233368335
0.308024983597322,15.1322485490512
0.258292562358097,15.1327633051417
0.216817645435243,15.1331877740179
0.180950448925023,15.1335594380324
0.149122964133929,15.133899545835
0.120443938715405,15.1342206949737
0.0943203112750902,15.1345319714986
0.0702700653713615,15.134841749481
0.0477666524032414,15.1351607494799
0.0258556474799162,15.1355110120983
0.0081552773394616,15.1358362786307
-0.00155918183771876,15.1360377034039
-0.0103605945947959,15.1362391281772
-0.0171162209105067,15.1364092832346
-0.0233307560116657,15.136580866836
-0.0296302903713591,15.1367733946318
-0.0357438898779838,15.1369833577359
-0.041496140321701,15.1372085789883
-0.0467879994716414,15.1374482334788
-0.051566805268363,15.1377024039059
-0.0558081505170126,15.1379718271496
-0.0595050994920764,15.1382577708421
-0.0626615584134633,15.1385619911614
-0.0652880024358245,15.1388867469198
-0.0673985548402777,15.1392348608418
-0.0690088263663564,15.1396098288053
-0.070175593427262,15.1400432287842
-0.0707637350141825,15.1404836477272
-0.0708843714932388,15.14096690601
-0.0705417152141371,15.1415023562996
-0.0697281590731816,15.1421029617022
-0.0684192042911335,15.1427865354065
-0.0665630244367029,15.1435796765466
-0.0640497448948895,15.1445285082555
-0.0605956530056118,15.1457381345863
-0.0563600723395613,15.1471666761396
-0.0522215006637786,15.1485503282101
-0.0482408137027921,15.1498952706834
-0.0444504005053808,15.1512036273858
-0.0408682328524594,15.1524760339767
-0.0375042593873049,15.1537123824947
-0.0343630700711401,15.1549122168864
-0.0314452124621625,15.1560749429739
-0.0287479987461693,15.1571999383289
-0.0262661140354254,15.1582866062543
-0.0239921415760309,15.1593343967174
-0.0219170441499806,15.1603428063734
-0.0200306102641537,15.1613113643938
-0.0183218628402176,15.162239607877
-0.0167320708128859,15.1631551442479
-0.0152001458466738,15.1640940928629
-0.0137307263914688,15.1650579223765
-0.0123277523119673,15.1660487020769
-0.010994972238482,15.1670688580514
-0.00973588830637928,15.1681212634044
-0.00855370260797206,15.1692093536886
-0.0074512609074642,15.1703372820432
-0.00643099333090793,15.1715101324328
-0.00549485119318691,15.1727342206497
-0.00464423822755913,15.1740175328256
-0.00387993285168313,15.175370389042
-0.0032019949780936,15.1768064956883
-0.00260964434645942,15.1783447159001
-0.00211242915233018,15.1799700894425
-0.00171606657807521,15.1816406957226
-0.00140386541729224,15.1833748055704
-0.00116099351398595,15.1851932006251
-0.000973472430667393,15.1871235534391
-0.000827737532102123,15.1892048941915
-0.000709959450121443,15.1914968701123
-0.00060472373070135,15.1941020593755
-0.000491318802495202,15.1972367488597
-0.000350894150526811,15.200970107404
-0.000184238208452745,15.2049264721013
3.05894915754953e-05,15.2095003303805
0.00028132593424148,15.2144981598052
0.00057446669731075,15.2202453162376
0.000921906081756014,15.2272291084105
0.00122753485522961,15.2336073096702
0.00153824572795887,15.2402703341278
0.00182418948486692,15.2465278464907
0.00210608931018338,15.2528148649823
0.00237513011662461,15.2588836594783
0.0026395515996833,15.2648794318629
0.00289840163044995,15.2707352700313
0.00314100941813324,15.2761707786639
0.00335156094526132,15.2808184941075
0.00354799821215177,15.2850831054144
0.00374357598591696,15.2892446897979
0.00395158751000877,15.2935628527024
0.00419739737085595,15.2985057566106
0.00444616936240709,15.3032860783814
0.00471202193281934,15.3081205721605
0.00496001423835074,15.3123828100857
0.00519666817248212,15.3162458643774
0.00543479972032591,15.3199442758899
0.00568127464601372,15.3235836820762
0.00594116645733321,15.3272253333645
0.00621915658059176,15.3309122414022
0.00652011218390287,15.3346783044783
0.00684948884823599,15.338552985731
0.00721370835965009,15.3425640039907
0.00762054652015674,15.3467386943527
0.00807965491466172,15.3511050833621
0.00860331116418427,15.3556927136751
0.00920079657088332,15.360481140761
0.00984329515218577,15.3651681071028
0.0105450020624606,15.3698141768827
0.0113260584032369,15.3744843569631
0.012199593167448,15.3791713260585
0.0131857543991262,15.3838884754748
0.0143137200005084,15.3886674599709
0.0156302308135514,15.3935780936269
0.0172276843560341,15.3987947956497
0.0193926361929396,15.4049438683561
0.0211228489708611,15.4093612951416
0.0229486236894916,15.4137787219271
0.0244872658134167,15.4174912860442
0.0257683153780002,15.4207531513
0.0268387383858266,15.4238148280541
0.0276861387605041,15.4267810550129
0.0282646255733617,15.4296137700932
0.0285739552881017,15.4324337878472
0.0285856879323035,15.4353938674424
0.0281967826686247,15.4388078975927
0.0274091843831461,15.442218849293
0.0262854622613398,15.4456298009932
0.0251837836658277,15.4483906256428
0.0241042657326588,15.4508325858433
0.0230269014431936,15.4531276225582
0.0219495276743951,15.4553443376153
0.0208748563241861,15.4575181572255
0.0198065343726315,15.4596714241737
0.0187482488422407,15.4618199268608
0.0177034787677055,15.4639757280534
0.0166754417129825,15.4661485826707
0.0156670797759839,15.4683467696572
0.0146810615627052,15.4705776155885
0.0137198034261911,15.4728478141193
0.0127854598414097,15.475163717659
0.0118799531903079,15.4775314762874
0.0110049742699753,15.4799572043639
0.0101619815222409,15.4824471333951
0.00935221970590151,15.4850076991529
0.00857302880390658,15.4876587227278
0.00780590309203165,15.4904849330079
0.00705465573135098,15.4935059128567
0.0063230252373284,15.4967453225628
0.00561496276677214,15.5002304502691
0.00493459157494041,15.5039929104355
0.00428614118716537,15.5080695388475
0.00367383567781563,15.5125036987485
0.00310172098819713,15.5173474074445
0.00257342273906832,15.5226651130399
0.00209187247074675,15.5285403708627
0.00165919791336814,15.5350853274358
0.00128759133880443,15.5422179405849
0.00097745140167369,15.5499342037636
0.000722107327925295,15.5583602873407
0.00051533575904273,15.5676634287265
0.000356743585730068,15.5776634287265
0.000245707488364673,15.5876634287265
0.000173103096275944,15.5976634287265
0.000124147507011918,15.6076634287265
9.04257487331595e-05,15.6176634287265
6.72035777012381e-05,15.6276634287265
5.15019712760151e-05,15.6376634287265
4.12018560430588e-05,15.6476634287265
3.50770628182898e-05,15.6576634287265
3.2083767930513e-05,15.6676634287265
3.11231684323197e-05,15.6776634287265
3.15058170645568e-05,15.6876634287265
3.27970071732967e-05,15.6976634287265
3.471953614098e-05,15.7076634287265
3.70948898024374e-05,15.7176634287265
3.98080861990585e-05,15.7276634287265
4.27862732518688e-05,15.7376634287265
4.59851891861354e-05,15.7476634287265
4.93802802834785e-05,15.7576634287265
5.29607640851062e-05,15.7676634287265
5.67256618890341e-05,15.7776634287265
6.06811827167483e-05,15.7876634287265
6.48390397537275e-05,15.7976634287265
6.92154116043489e-05,15.8076634287265
7.38303547797522e-05,15.8176634287265
7.8707540694472e-05,15.8276634287265
8.38742364894772e-05,15.8376634287265
8.93614803240707e-05,15.8476634287265
9.52044236050127e-05,15.8576634287265
0.000101442828741603,15.8676634287265
0.000108121723935502,15.8776634287265
0.000115292227895816,15.8876634287265
0.000123012568445606,15.8976634287265
0.000131349330835068,15.9076634287265
0.000140378985302974,15.9176634287265
0.000150189760298349,15.9276634287265
0.000160883949371866,15.9376634287265
0.000172580768173319,15.9476634287265
0.000185419916158699,15.9576634287265
0.000199566049666863,15.9676634287265
0.000215214445012766,15.9776634287265
0.000232598231115985,15.9876634287265
0.000251997714433468,15.9976634287265
0.000273752525269217,16.0076634287265
0.000298277616124347,16.0176634287265
0.000326084590824047,16.0276634287265
0.000357810520676904,16.0376634287265
0.000394257448313297,16.0476634287265
0.000434302369029096,16.0571742759971
0.000476666704072461,16.0659042184128
0.000521151898139807,16.073907309731
0.000567629240736096,16.0812467072122
0.000615974357174345,16.0879808265895
0.000666052614781334,16.0941632234849
0.000717717997477808,16.0998431152849
0.000770813809350704,16.1050656096792
0.00082518261140786,16.1098720860801
0.000880666118914602,16.1143005857821
0.000937116502294585,16.1183860131465
0.000994396452643316,16.1221605186932
0.00105238661122419,16.1256537057443
0.00111099392739961,16.1288929621581
0.00117015141792051,16.1319037067041
0.00122983243504241,16.1347097126887
0.00129005819358382,16.1373334305647
0.00135090782456329,16.1397963916103
0.00141254310606819,16.1421197323297
0.00147524011871548,16.1443249402948
0.00153944294574938,16.1464350655373
0.00160587321995969,16.1484769065841
0.00167576476786243,16.1504856026063
0.00175145876951168,16.1525163364856
0.00183847465367777,16.154685046582
0.00196016142618776,16.1574576839498
0.00203941847333411,16.159119642566
0.00212393956357645,16.1607816011823
0.00220589440263963,16.1622946821924
0.00228835032659649,16.1637283538325
0.00237669404820215,16.16517474555
0.00247778863319099,16.1667269067022
0.00260549482728926,16.1685470929823
0.002814654708761,16.1712355336057
0.00310140800086742,16.1744352707199
0.00338755982731929,16.1771831718594
0.00371707384318932,16.1799197243437
0.0041687167233803,16.1831061406954
0.00472224692006519,16.1863608455709
0.00536072781341649,16.1894817878218
0.00608612107413667,16.1924387071596
0.00690439874617495,16.1952290482381
0.00782091378933379,16.197853378696
0.00883265872973776,16.2003008768811
0.00997028841392254,16.2026422202358
0.0112889648879936,16.2049636122951
0.0129277045943818,16.2074367905634
0.0146540927333417,16.2097079253289
0.0161324932308448,16.2114738033529
0.017702626534886,16.213239681377
0.0191221253381143,16.2147915569377
0.0204090288015498,16.2162061406221
0.0215908634746862,16.2175555564581
0.0226743178021407,16.2188875457675
0.0236557767912179,16.2202456910256
0.024525116012121,16.2216859035908
0.0252658594111428,16.2233108878543
0.0258376712245202,16.2253779931594
0.0260504899661378,16.2273471151587
0.0260496707282839,16.2291500442062
0.0259718593491459,16.230760539257
0.0258957763217964,16.2323166105686
0.0258772904590634,16.2338839731601
0.0259738755549111,16.2355010064472
0.0262950102115746,16.2372017652815
0.0268709690818277,16.2387782952843
0.0278583960434652,16.240526126649
0.0291112302821914,16.2421055311543
0.0306164096150275,16.2435559342881
0.0324037585699267,16.2449223978068
0.03450085797532,16.2462219882467
0.0369338942146074,16.247461578877
0.0397501159932633,16.2486529735594
0.0429865802296316,16.2497981145896
0.0466987871764593,16.2509029293366
0.050937639936379,16.251968864472
0.0557732062735154,16.2530001461111
0.0612814510904188,16.2539994862839
0.0675491754741923,16.2549693444051
0.0746856661695007,16.2559132746668
0.0828187810326188,16.2568345146944
0.0921022652842877,16.2577364490381
0.102724907727693,16.2586228529537
0.114919845608686,16.2594978595181
0.128977986279299,16.2603660410025
0.145268069679464,16.2612326113025
0.164268683601814,16.2621038201428
0.186618244917147,16.2629875032771
0.213170395829954,16.2638931359977
0.243888208557618,16.2647997760443
0.27952376794814,16.2657159552207
0.321121579766792,16.2666559864098
0.370454452503258,16.2676502332555
0.407605704244172,16.2683456250788
0.445917026080886,16.269041016902
0.479998990047983,16.2696638510357
0.509978626457373,16.2702390839523
0.536323260605338,16.270795904122
0.558933685864187,16.2713575850087
0.577195183523935,16.2719501934039
0.589645956200428,16.2726167024486
0.592604539904087,16.2733555533476
0.583605267716959,16.2741216136255
0.561286909133066,16.2749370725674
0.526148221665669,16.2757683783064
0.47763765408547,16.2766299299026
0.413779503998865,16.2775434299872
0.363001246573468,16.2781733531246
0.307670747039199,16.2788032762621
0.259561986875257,16.2793241378559
0.219095688612379,16.2797553567632
0.183942974385079,16.2801332486293
0.152670410329104,16.2804788518235
0.124446926892597,16.2808047725023
0.0987158663987432,16.2811200642306
0.0750277965570336,16.2814328972083
0.0529062721221889,16.2817532882951
0.0315510695503364,16.282100270666
0.00765381267162582,16.2825563236992
-0.000729193475071833,16.2827414502272
-0.00838918052016976,16.2829265767553
-0.014884386424602,16.2830985174498
-0.0210924356131146,16.2832789644531
-0.0273105304447134,16.2834797212619
-0.0332940829222791,16.2836974991448
-0.0388910384215377,16.283930442537
-0.0440169587744468,16.2841779569222
-0.0486282135946446,16.284440298881
-0.0527060241901206,16.2847183509102
-0.056246972038082,16.2850135165233
-0.0592571355358041,16.2853276910374
-0.0617461417120622,16.285663286342
-0.0638319157120309,16.2860487719419
-0.0652535865406963,16.2864354411111
-0.0661965123199363,16.2868543938248
-0.0666750004091874,16.2873117287155
-0.0666977678841833,16.2878148125077
-0.0662670692158959,16.2883732972227
-0.0653728051212816,16.2890016426448
-0.0639878515622091,16.2897191011024
-0.0620548823281684,16.2905556116142
-0.0594486327168096,16.29156541446
-0.0558124174347098,16.2928860210005
-0.0518266360729179,16.29429335417
-0.0479610812102299,16.29565796705
-0.0442661782347754,16.2969838669286
-0.0407675003594,16.2982728018235
-0.0374788121512642,16.2995252543027
-0.034406906412158,16.300741076948
-0.0315537556959455,16.3019198321468
-0.0289176663453665,16.3030609715875
-0.0264940401995628,16.3041639288265
-0.0242759729248865,16.3052281626263
-0.0222547747274625,16.3062531706952
-0.0204204419264792,16.3072384844071
-0.0187620853091088,16.3081836503832
-0.0172658514528844,16.3090897410306
-0.0158267732483586,16.3100188018317
-0.0144497915555512,16.3109719526547
-0.0131387548010369,16.3119511354844
-0.0118973188046045,16.3129586161306
-0.0107288868628815,16.313997067417
-0.00963655434640266,16.3150696716905
-0.00862305003152863,16.3161802574261
-0.00769067388467728,16.3173334851135
-0.00684123045484716,16.318535106565
-0.00607595616888377,16.3197923374152
-0.00539543731262681,16.3211144113311
-0.00479951272486668,16.3225134405875
-0.00428714978640574,16.3240058255891
-0.00385627049952287,16.3256147276373
-0.00352253132805466,16.3272640826366
-0.00326888631049473,16.3289696424528
-0.00307971254577982,16.3307501654737
-0.00294020229390369,16.3326300856568
-0.00283586449932405,16.3346429538639
-0.0027517814312015,16.3368382009246
-0.00267124572447473,16.3392962363503
-0.00257241349127095,16.3421703019015
-0.00244833361071484,16.3451682525636
-0.0022999551173748,16.3481008484729
-0.00212630928583792,16.3510151265888
-0.00192910059535428,16.3539465758714
-0.00171117745489491,16.3569217328894
-0.00147565465594917,16.3599622709107
-0.00122542583192707,16.3630871735466
-0.000962898359496049,16.3663140059957
-0.000689871435159795,16.3696597620057
-0.000407494385569909,16.3731415376261
-0.000116260520240474,16.3767772310754
0.000183990249962488,16.3805864567921
0.000494089465866642,16.3845919125957
0.000815630242551542,16.3888216664203
0.00115116457406524,16.3933125816425
0.00150451182932334,16.3981145783929
0.00186066353632897,16.403009685789
0.0021663469179048,16.4072332896216
0.00245248280732583,16.4111939338198
0.00273177797921188,16.4150522340749
0.00301115595011487,16.4188898037211
0.00329553284840727,16.4227594357082
0.00358908047709367,16.4267012412257
0.00389576128065791,16.4307489189259
0.00421964746351188,16.434932999062
0.00456520063050468,16.4392832369645
0.00493752500244106,16.4438299455917
0.00534272215216528,16.4486052640389
0.00578842750465017,16.4536442084954
0.00625867524376737,16.458710292546
0.00674795199229096,16.4637044388065
0.00726146170608729,16.4686405696296
0.00780254178395339,16.4735053251717
0.00837687794688608,16.4783012812478
0.00899093341614242,16.4830304767724
0.00965207660548977,16.4876951852888
0.0103706078234803,16.4923097343382
0.0111717323952439,16.4969601894063
0.0120702374801621,16.5016390739556
0.0130889773740086,16.5063644771021
0.0142597747939304,16.5111700275865
0.0156350146524469,16.516135216094
0.0173250687243643,16.5214730903084
0.0197377832760822,16.5280874980875
0.021382017805516,16.5321720332475
0.0230910525205643,16.5362565684076
0.024570755770838,16.5398268968014
0.025814598148318,16.5430291033135
0.0268513806603565,16.54606818116
0.0276530285362035,16.5489983077055
0.0281873456194214,16.5518187149099
0.0284500909089903,16.5546520515974
0.0284048254890931,16.5576649211641
0.027917156514593,16.5612516621116
0.0271162681500691,16.5644617116698
0.0260288113520863,16.5676717612281
0.0249432376539272,16.5703670272863
0.0238707275093576,16.5727858125246
0.0227987404734364,16.5750698363172
0.0217266448932405,16.5772808189429
0.0206574507262773,16.5794520113415
0.0195948720914981,16.5816047646808
0.0185425937361125,16.5837543424738
0.0175040765484829,16.5859124907208
0.0164825059065283,16.5880887820394
0.0154807895003966,16.5902913874828
0.0145015605606806,16.5925275778426
0.0135471936243061,16.5948040454109
0.0126198122301748,16.5971271501366
0.0117212979136792,16.5995031057072
0.0108533026861741,16.6019381200735
0.0100172531856458,16.6044385361876
0.00921436015353055,16.6070109485544
0.0084396893605807,16.6096836081662
0.00767755686663911,16.6125336972647
0.006931762890824,16.6155812298217
0.00620607087021883,16.6188502194107
0.00550445077350865,16.6223683617032
0.004831040362601,16.6261677141352
0.00419007277392531,16.6302856047763
0.00358575911788926,16.6347659546571
0.0030221052971175,16.6396614862884
0.00250266054020716,16.645037682242
0.00203025186149592,16.6509796490967
0.00160690251361927,16.6576015712291
0.00124510014544004,16.6648057604242
0.00094387754014203,16.6726080989445
0.000696632798738589,16.6811393780987
0.00049721950348572,16.6905731429562
0.000347074417547544,16.7005731429562
0.000241668450374113,16.7105731429562
0.000168544150275585,16.7205731429562
0.000119766088618109,16.7305731429562
8.63099815743506e-05,16.7405731429562
6.29711607069251e-05,16.7505731429562
4.66637760186946e-05,16.7605731429562
3.53668867085507e-05,16.7705731429562
2.76375079163321e-05,16.7805731429562
2.24197474286173e-05,16.7905731429562
1.89542656345903e-05,16.8005731429562
1.67092542770265e-05,16.8105731429562
1.53186693923175e-05,16.8205731429562
1.45316131064044e-05,16.8305731429562
1.41753253620567e-05,16.8405731429562
1.41300928106303e-05,16.8505731429562
1.4312684985768e-05,16.8605731429562
1.46652891553881e-05,16.8705731429562
1.51479165161492e-05,16.8805731429562
1.57330851246195e-05,16.8905731429562
1.64020765013261e-05,16.9005731429562
1.71423125763229e-05,16.9105731429562
1.79455316822435e-05,16.9205731429562
1.88065277547242e-05,16.9305731429562
1.97222818414722e-05,16.9405731429562
2.06913653876441e-05,16.9505731429562
2.17135319929396e-05,16.9605731429562
2.27894404878212e-05,16.9705731429562
2.39204700354537e-05,16.9805731429562
2.51086001203469e-05,16.9905731429562
2.63563366532834e-05,17.0005731429562
2.766667126529e-05,17.0105731429562
2.90430649803705e-05,17.0205731429562
3.04894503697768e-05,17.0305731429562
3.20102483599512e-05,17.0405731429562
3.36103973494535e-05,17.0505731429562
3.52953933730996e-05,17.0605731429562
3.70713408678938e-05,17.0705731429562
3.89450142412971e-05,17.0805731429562
4.09239309881375e-05,17.0905731429562
4.30164376011064e-05,17.1005731429562
4.52318100138721e-05,17.1105731429562
4.75803708422872e-05,17.1205731429562
5.007362628317e-05,17.1305731429563
5.27244262285414e-05,17.1405731429563
5.55471519977927e-05,17.1505731429563
5.85579371314625e-05,17.1605731429563
6.17749279915303e-05,17.1705731429563
6.52185925563853e-05,17.1805731429563
6.89120878920384e-05,17.1905731429563
7.28816994692746e-05,17.2005731429563
7.71573689748346e-05,17.2105731429563
8.17733318005523e-05,17.2205731429563
8.67688913563456e-05,17.2305731429563
9.21893652548758e-05,17.2405731429563
9.80872489809134e-05,17.2505731429563
0.000104523656916274,17.2605731429563
0.000111570120022798,17.2705731429563
0.000119310846248368,17.2805731429563
0.000127845586995957,17.2905731429563
0.000137293305540231,17.3005731429563
0.000147796918306772,17.3105731429563
0.000159529488565753,17.3205731429563
0.000172702411760842,17.3305731429563
0.000187576370203239,17.3405731429563
0.000204476197466635,17.3505731429563
0.000223811354766751,17.3605731429563
0.000246104610955519,17.3705731429563
0.000272032958076191,17.3805731429563
0.000302487187162493,17.3905731429563
0.000338660637717848,17.4005731429563
0.000382184844795036,17.4105731429563
0.000433541805981109,17.4202631282569
0.000491736864274388,17.4292329693305
0.000557560104715103,17.437520201604
0.000632016618350081,17.4451760525488
0.000716262410203881,17.4522488546943
0.000811611449183651,17.4587836216946
0.00091955269617834,17.4648222493115
0.00104177152716774,17.4704037210032
0.00118017527897471,17.4755642876762
0.00133692144418501,17.4803376405051
0.00151445057713922,17.4847550878103
0.00171552424958504,17.4888457308566
0.00194327031741136,17.4926366247299
0.00220123474454152,17.4961529285205
0.00249344665475763,17.499418061868
0.00282449684590574,17.5024538651928
0.00319963665708801,17.5052807538989
0.00362490472314633,17.5079178818204
0.00410729321775993,17.5103833234311
0.00465497289888722,17.5126942761413
0.00527760740273556,17.5148673058668
0.00598564644829757,17.5169155979941
0.00676459412911291,17.5187937737904
0.0076220223030767,17.5205313216747
0.00856917524117715,17.5221570466764
0.00962216109177769,17.5236988841589
0.0108060638088191,17.525187316842
0.012188565744553,17.5266862854007
0.013928478131282,17.5283129809806
0.0165293002654632,17.5303908778969
0.018334465005581,17.5316774732288
0.0202454116394347,17.5329640685606
0.0219935890655542,17.5341174977299
0.0235592030242627,17.5351709866995
0.0249716878911957,17.5361809516831
0.0262310608948979,17.5371861725842
0.0273177447996901,17.5382236234031
0.0281910633885775,17.5393441030903
0.0287663840501554,17.5406505647305
0.0287387941236099,17.5425746229857
0.028107725071806,17.544011970104
0.0270703196716027,17.5454493172224
0.0258495159672377,17.5467759052512
0.0244521197811194,17.5481104454437
0.0228862000127647,17.5495051185385
0.021159309151557,17.5509988924815
0.0192721508203888,17.5526365788315
0.017247274854209,17.5544856963228
0.0151319973074898,17.5566086348465
0.0133311777069412,17.5586186247648
0.0118007761927754,17.5605187775457
0.01049210021109,17.5623241415067
0.00936365707974646,17.5640510799679
0.00838030072886542,17.5657181309775
0.00751147797346749,17.5673484369956
0.00672861445403431,17.568975351748
0.00599964673837135,17.5706585515968
0.00526795390401688,17.5725547491229
0.0047103551283724,17.5741762484154
0.00420944718251544,17.5757977477079
0.00383128073457891,17.5771498311634
0.00352161234488846,17.5783565983179
0.00324414561013689,17.5795285980427
0.00298027812563773,17.5807373598872
0.00271389545974939,17.5820687552178
0.00241823760763698,17.5837061327251
0.00195302952950125,17.5867363029645
0.00154815362422053,17.590047714284
0.00120142176406362,17.5937338752231
0.000925141495395261,17.597744695481
0.000719789498896659,17.6021493402777
0.000590045346322301,17.607044552096
0.000552043356243796,17.6122792737944
0.000606055389459937,17.6168951544915
0.000734551176420675,17.6210288420417
0.000928959292529259,17.6247141839521
0.00118502900409278,17.6279979934778
0.00150116320821612,17.6309286462366
0.00187746042314156,17.633552503685
0.00231620203584818,17.6359174679432
0.00282144400545417,17.6380669890639
0.0034008738906769,17.6400457483119
0.00406713456280431,17.6418981443839
0.00484127952629324,17.6436718459569
0.00575932515765494,17.6454231879581
0.00689571401040679,17.6472422376208
0.0084229995723555,17.6492988493706
0.0105176530694069,17.6516748088215
0.0130915442102759,17.654152769831
0.015018160652644,17.6557732307267
0.0171834982071612,17.6573936916223
0.0194098418015286,17.6588637162288
0.0217510294223049,17.6602219584064
0.024314991833134,17.6615218934792
0.0270951465429443,17.6627472136073
0.0301958575825778,17.6639308830726
0.0336625056947982,17.6650729338744
0.0375238314026404,17.6661684438482
0.0418596913689025,17.6672267373746
0.0467344842792844,17.6682496034522
0.052216160885004,17.6692382293955
0.0583897774697032,17.6701954220341
0.065356740343974,17.6711243922663
0.0732323026725545,17.6720279100267
0.0821526999183167,17.6729088869921
0.092278077365093,17.6737701985574
0.103805115069073,17.6746152414164
0.116969926344805,17.6754474223868
0.132060618548051,17.6762703725867
0.149432532066056,17.6770880451252
0.169530663592033,17.677904902509
0.192927536284934,17.6787263517266
0.220407516092615,17.6795600519567
0.252877745981921,17.6804119090511
0.29040071188655,17.6812667188929
0.334005698762255,17.6821369787121
0.385441758673535,17.6830498012752
0.424153737436298,17.6836866066316
0.464123396415454,17.6843234119879
0.499781074238148,17.6848948125199
0.53130625239679,17.6854246647307
0.559216023000889,17.6859406209957
0.583428096229837,17.6864654135213
0.603324904140381,17.6870263072769
0.617355160721329,17.6876736607905
0.621088679875833,17.6883781963071
0.612439672873555,17.6891166191134
0.590890297524536,17.6898876612019
0.55931806292155,17.6906320080458
0.51551121112308,17.691421243157
0.455867888611861,17.6922923032395
0.382254456287363,17.6931990577799
0.333499683132806,17.6937400750273
0.282082279389951,17.6942810922748
0.237138015236642,17.6947421698507
0.198701144100238,17.6951370086815
0.164955173199604,17.6954912990846
0.134756267575249,17.6958208824111
0.107392302167253,17.6961361878697
0.0823427438179256,17.6964456474648
0.0591275528319434,17.6967582642969
0.0370983406783899,17.6970882101873
0.0145238080805813,17.6974766860071
0.000403539445906051,17.6977583344558
-0.00734144476192391,17.6979306629305
-0.0144381617252659,17.6981029914052
-0.020634656035324,17.6982674774722
-0.0269347052014533,17.6984515044591
-0.0331547338258325,17.6986543827106
-0.0390768990399959,17.6988732532938
-0.044573971469594,17.6991067788449
-0.049576241015204,17.6993546944689
-0.0540488596509399,17.6996174781774
-0.0579784121156152,17.699896179501
-0.0613647925383718,17.7001923466696
-0.0642160816035509,17.7005080185268
-0.0665451371552307,17.7008457660014
-0.0683671626059263,17.7012087800492
-0.0696913955657694,17.7016010126369
-0.0705326840079987,17.702035803868
-0.0708705096135428,17.7024980545356
-0.0707441402533143,17.7030078309682
-0.0701522989219116,17.7035760109331
-0.0690789308225741,17.7042181597858
-0.067487190541338,17.7049558798616
-0.0653005840186292,17.7058240356015
-0.0623447808556017,17.706890569049
-0.058088874307146,17.7083448156759
-0.0538996103165864,17.7097455307289
-0.0498476195297064,17.7111060007166
-0.0459750925144369,17.7124292792044
-0.0423047447032709,17.7137164843301
-0.0388493481850833,17.7149677455732
-0.035615475868512,17.7161827133026
-0.0326052131556998,17.7173608304031
-0.0298171158374026,17.7185014756659
-0.027246877821782,17.7196040368196
-0.0248878823146702,17.7206679429857
-0.0227316987544293,17.7216926721736
-0.0207685431613114,17.7226777423125
-0.0189877028232317,17.7236226905949
-0.0173749908584659,17.7245287393118
-0.0158179581744293,17.7254577672895
-0.0143217463531631,17.7264108953729
-0.0128903592811459,17.7273900649283
-0.011527634001642,17.7283975414657
-0.0102371828433576,17.7294359978125
-0.00902234104803084,17.7305086166459
-0.00788611166097199,17.7316192271499
-0.00683110758670013,17.7327724909912
-0.00585949023911842,17.7339741617766
-0.00497290349767025,17.7352314577986
-0.00417240040714916,17.7365536166613
-0.00345835773071697,17.7379527565866
-0.00283036876952947,17.7394452873077
-0.00228709442039627,17.7410543856251
-0.00185150254683829,17.7427037351219
-0.00150658306398486,17.7444093291225
-0.00123703436827702,17.7461899243627
-0.00102857011883154,17.7480699646808
-0.000867523654652979,17.7500830185449
-0.000740290121915954,17.7522785502269
-0.000632363600027055,17.754737040724
-0.000526053202337634,17.7576119232119
-0.000391638195312139,17.7613056312104
-0.000239128922768163,17.7651141643032
-4.59666063997181e-05,17.7694036018622
0.000196171786629593,17.7743400527887
0.000468271626810842,17.7796934719944
0.000805826563968386,17.7864128126312
0.00112124594327592,17.7929104227849
0.00143243083716991,17.7995378780406
0.00172422079441441,17.8058855344586
0.00200834237654385,17.8121937171168
0.00228044670790791,17.8183198707989
0.00254637542402287,17.8243525751982
0.00280640175409077,17.8302527912731
0.00306349688249846,17.8360471169596
0.00328165046387963,17.8408921287181
0.00348043090850952,17.8452388501125
0.00367461355126096,17.8494061745766
0.0038766940105779,17.8536444615753
0.00410589384472476,17.8583136096752
0.00435104590635846,17.8631175192523
0.00460852871412373,17.8679017024712
0.00486564342961521,17.8724183862194
0.00510360840245427,17.8763809677164
0.0053396253881236,17.8801199371995
0.00558192701774762,17.8837712775972
0.00583594157268383,17.8874067990419
0.00610638086116528,17.8910742734353
0.00639798065113634,17.8948100717712
0.00671592525353795,17.8986447475409
0.00706623727841787,17.9026064603721
0.00745613961739024,17.9067225438717
0.00789452101640393,17.9110207001899
0.00839258746520473,17.9155298874229
0.00896486440511921,17.9202811840288
0.00958801857294612,17.9249986107601
0.0102663243426358,17.9296654320188
0.0110145233907102,17.9343236103049
0.01185005725667,17.9390033908224
0.0127894612992101,17.9437058682356
0.0138579736906645,17.9484550994604
0.0150938617000925,17.9533020977643
0.0165657291293437,17.95836642748
0.0184432213753204,17.9640017366104
0.0208555501669884,17.9703481615345
0.0223962943295561,17.9741048949121
0.0239620383336534,17.9778616282896
0.0253229348030855,17.9812371055278
0.0264686004474329,17.9843511013956
0.027407436683124,17.9873670755918
0.0280831789797104,17.9902348293576
0.0284922368459278,17.9930444144885
0.0286188338915076,17.9959307815965
0.0283987710537997,17.9991164898508
0.0275309996320558,18.0034257888138
0.0266583079898196,18.006238462221
0.0255938030550869,18.0090511356282
0.0245155033562533,18.0115705800974
0.0234385820998643,18.0139096349716
0.0223610738923337,18.0161509777335
0.0212849958540155,18.0183380611171
0.0202138398342906,18.0204970477289
0.019151326444753,18.0226457763711
0.0181010238819372,18.0247975220812
0.0170662568492898,18.02696279276
0.0160500673056068,18.0291503697206
0.0150552316299183,18.0313678869396
0.0140842576908787,18.033622255576
0.0131393996278649,18.0359199328454
0.0122226745066574,18.0382671097343
0.0113358501196129,18.0406699256799
0.0104804755362706,18.0431345478326
0.00965788049401182,18.0456673095742
0.00886917512078882,18.0482748482743
0.00809702402248874,18.0510319677532
0.00733929966591661,18.0539759451741
0.00659973675698464,18.0571289215945
0.00588221059779458,18.0605167167493
0.00519078228731739,18.0641692110521
0.00452965185422754,18.0681211161421
0.00390306254508351,18.0724131048382
0.00331515321432229,18.0770935541488
0.00276974507331931,18.0822215314546
0.00227005670903477,18.0878723434497
0.00181852028977072,18.0941459411917
0.00142164057502694,18.1010825747276
0.00108884729148224,18.108563744474
0.000813371441166737,18.1167018993129
0.000588781371317339,18.1256477720924
0.000409153298523933,18.135601306506
0.000281935429375993,18.145601306506
0.00019637652369644,18.155601306506
0.0001399409775174,18.165601306506
0.000101480901890651,18.175601306506
7.49169541560298e-05,18.185601306506
5.67504573635749e-05,18.195601306506
4.46507271160268e-05,18.205601306506
3.70920680790543e-05,18.215601306506
3.30915586068134e-05,18.225601306506
3.14724498175544e-05,18.235601306506
3.14159181159375e-05,18.245601306506
3.24064649679836e-05,18.255601306506
3.4117165856978e-05,18.265601306506
3.63384200937246e-05,18.275601306506
3.89350937379869e-05,18.285601306506
4.18207865667879e-05,18.295601306506
4.49419098226849e-05,18.305601306506
4.82674090093373e-05,18.315601306506
5.17819244722043e-05,18.325601306506
5.54811988414476e-05,18.335601306506
5.93690208322661e-05,18.345601306506
6.34552344263603e-05,18.355601306506
6.77544870793156e-05,18.365601306506
7.22854929778684e-05,18.375601306506
7.7070662260881e-05,18.385601306506
8.2136000134451e-05,18.395601306506
8.75112161826201e-05,18.405601306506
9.32300091774074e-05,18.415601306506
9.93305106381025e-05,18.425601306506
0.000105855884284706,18.435601306506
0.000112855090344759,18.445601306506
0.000120383834777461,18.455601306506
0.000128505734989042,18.465601306506
0.000137293746608761,18.4756013065061
0.000146831911572584,18.4856013065061
0.000157217507580547,18.4956013065061
0.000168563704856406,18.5056013065061
0.000181002870645361,18.5156013065061
0.00019469070871153,18.5256013065061
0.000209811485554783,18.5356013065061
0.000226584684986349,18.5456013065061
0.000245273559817732,18.5556013065061
0.000266196231604592,18.5656013065061
0.000289740254350661,18.5756013065061
0.000316381949536816,18.5856013065061
0.000346712408153999,18.5956013065061
0.000381472956242682,18.6056013065061
0.000420753564881505,18.6153971426756
0.00046246144301274,18.6243993362082
0.000506352625938041,18.6326513079196
0.000552290883541704,18.640217702592
0.000600154174733047,18.6471587675275
0.000649812398337367,18.6535297273014
0.000701123854044155,18.6593812930728
0.000753934870850836,18.6647600092561
0.000808087548069888,18.6697085034318
0.000863422823073261,18.6742659922688
0.000919789250192143,18.6784684390395
0.000977042828824278,18.6823489493188
0.00103505949087748,18.6859379880102
0.00109373432963992,18.6892637025388
0.00115298999542167,18.6923521705465
0.00121278687967269,18.6952277192232
0.00127312602543966,18.6979132239814
0.00133406518732448,18.7004304979501
0.00139573715690821,18.702800753665
0.00145837378280053,18.7050452608989
0.00152235342881186,18.7071863578978
0.00158828954022218,18.7092492026187
0.00165720533289899,18.7112652632072
0.00173095447253031,18.7132805536881
0.00181351662936192,18.7153808101792
0.00191746877556288,18.7178182787414
0.00200246181633824,18.7196594765212
0.00209364930370419,18.7215006743011
0.00217854873526854,18.7231028212756
0.00226073180941737,18.7245608649061
0.00234633702743405,18.725991526119
0.00244126127813258,18.727482577307
0.00255509454529367,18.7291515809336
0.00271377389980769,18.7312870064431
0.0030306172800713,18.7350001879944
0.0033766385090267,18.7383966189871
0.00374276506385267,18.7414299657815
0.00422293920142336,18.7447672381871
0.00478474240162469,18.7480070352055
0.00543168102929257,18.7511090743809
0.00616633210008369,18.7540473957895
0.00699508311473577,18.7568210743317
0.00791968733199371,18.7594213689744
0.00894332782608719,18.761855796923
0.0100973812234534,18.7641924491762
0.0114421597641346,18.7665226006022
0.0131393815691857,18.7690433476837
0.0147753420101198,18.7711727056683
0.0165777983951351,18.7733020636529
0.0181426621730189,18.7750464019544
0.0195115683841674,18.7765463455075
0.0207574108702084,18.7779341950856
0.0219016599241283,18.7792740261017
0.0229467239755892,18.7806105125977
0.0238863923842387,18.7819892751969
0.0247081048897725,18.7834757863887
0.0253917581401082,18.7852090032176
0.0258324904646961,18.7872555953438
0.0259525557890997,18.7892185617043
0.0259021090689615,18.7909419936123
0.025804465883813,18.7925257318009
0.0257255996832561,18.7940808298748
0.025720026491987,18.7956602866439
0.0257740769978911,18.7966127061602
0.0258904125879296,18.7975651256765
0.0260624021810425,18.7983819713637
0.0267542421786075,18.8003041658638
0.0277742265546337,18.8020627548782
0.0290436519527037,18.8036307853158
0.0305726390243514,18.8050804771788
0.032396284371772,18.8064547098055
0.0345059190534414,18.8077451944756
0.0369658798601096,18.8089844292374
0.0398049414267591,18.8101731086695
0.0430671069684637,18.8113163840135
0.0468072264283433,18.8124195886972
0.051075434148713,18.8134838388522
0.0559431947004719,18.8145136065374
0.0614871184648048,18.8155116007496
0.0677948671920702,18.8164802964173
0.0749761904142051,18.8174231799499
0.0831603040697402,18.8183435339891
0.0925027042873794,18.8192447842602
0.103193487485256,18.8201306684062
0.115468375590731,18.8210053607915
0.129621462419,18.8218734628612
0.146025894732117,18.8227402321084
0.165166448682619,18.8236119782812
0.187691161642861,18.8244966476491
0.214418570802519,18.8254023124513
0.245341797278325,18.8263093257594
0.281222580390005,18.827226395288
0.323125247618871,18.8281682575567
0.372881151557766,18.8291665907739
0.409812241507282,18.8298560493099
0.447810747807245,18.8305455078459
0.481633994272627,18.8311647933545
0.511404944961481,18.8317384821144
0.53754905273897,18.8322950981062
0.559939341887467,18.8328578297085
0.577928710408437,18.8334531863724
0.589983384842493,18.8341258654176
0.592310328552548,18.8348657176086
0.582625227810444,18.8356339936762
0.559525647746348,18.8364528029737
0.523724194086251,18.8372841426171
0.474361312157782,18.8381491462376
0.40977691423635,18.8390634991521
0.359479162496837,18.8396830439851
0.304850966535943,18.840302588818
0.257272643054973,18.8408169567018
0.217141019493462,18.8412446297552
0.182219237933013,18.8416204577026
0.151122826348402,18.8419647990981
0.123041608439032,18.8422899818969
0.0974278989042683,18.8426049570886
0.0738345117453045,18.8429179117833
0.0517787502440146,18.8432390725756
0.0304242504595677,18.8435884221236
0.011563927375139,18.8439437047238
0.00187024614151493,18.8441507908938
-0.00690723144566988,18.8443578770637
-0.0136381959000245,18.8445327597013
-0.0198020962634754,18.8447083906247
-0.0260403730534562,18.8449051900667
-0.0320882636507316,18.8451196189051
-0.0377746966090661,18.8453494812373
-0.0430037221563241,18.8455939587959
-0.0477247710440777,18.8458531536053
-0.0519148066631614,18.8461278288523
-0.0555677692198357,18.8464192834071
-0.0586881143939611,18.8467293091308
-0.0612862604987409,18.8470602053554
-0.0634943092974211,18.8474414878811
-0.0650166752051827,18.8478220403306
-0.0660571286926202,18.8482338258193
-0.0666307752475876,18.8486826850373
-0.0667473486540636,18.8491756102922
-0.0664106995099284,18.849721682487
-0.0656138078055093,18.8503342512488
-0.0643337068382573,18.8510312939242
-0.0625211576930372,18.8518398792381
-0.060070848480825,18.8528070930685
-0.0567075433085291,18.8540411146572
-0.0527049283252315,18.855459471729
-0.0488076566023788,18.8568329645481
-0.0450729530540414,18.858167077616
-0.0415301535942087,18.8594639775114
-0.0381950255753546,18.8607243564569
-0.0350756361987158,18.8619481686708
-0.0321748825490854,18.8631350209999
-0.0294917910181487,18.8642843795205
-0.0270223375617431,18.8653956770233
-0.0247600714292065,18.8664683650019
-0.022696649172755,18.8675019327383
-0.0208223159267101,18.8684959055561
-0.0191263431092839,18.869449828923
-0.0175974218644911,18.8703632421092
-0.0161453763456017,18.8712873005497
-0.0147543531592746,18.8722351774666
-0.0134284000422316,18.873208648415
-0.0121712114114351,18.8742099043282
-0.0109862416238288,18.8752415238565
-0.00987664898217677,18.8763065709245
-0.00884523785340324,18.8774087230356
-0.00789439733803859,18.8785524450354
-0.00702603578776175,18.8797432301498
-0.0062415096751972,18.8809879439393
-0.00554154397058312,18.8822953319467
-0.00492613875046398,18.883676800241
-0.00439445203015983,18.885147678066
-0.00394463880479961,18.8867293973033
-0.00358924560276562,18.8883692481123
-0.00331762179159402,18.890061133361
-0.00311376989576581,18.8918235156653
-0.00296275952418359,18.8936793599394
-0.0028500973673918,18.8956598165653
-0.00276105757065006,18.8978099985045
-0.00267951209126962,18.9002014761297
-0.0025852570122408,18.9029649762873
-0.00246478597127978,18.9059747650028
-0.00232112864821863,18.9089134462367
-0.00215227089605433,18.9118280083862
-0.00195939295475297,18.9147556292776
-0.00174513945383812,18.9177237570764
-0.00151260015930969,18.9207545703965
-0.00126474481861524,18.923867331911
-0.00100410703072092,18.927079746828
-0.000732629905260059,18.9304088463497
-0.000451606942690092,18.9338716727512
-0.000161668028177302,18.9374859588663
0.000137219912805931,18.9412709974169
0.00044576566783773,18.9452489207483
0.00076542911706436,18.949446833164
0.00109860152314599,18.9539001076464
0.00144889813116492,18.9586566071408
0.00181868653645719,18.9637411985384
0.00212833894155685,18.9680230810135
0.00241561957513341,18.9720051422124
0.00269481976807919,18.9758695689983
0.002973320105384,18.9797043804012
0.00325620410667602,18.9835649946258
0.0035476905996631,18.9874926526619
0.00385174823786635,18.9915217746352
0.00417240432385466,18.9956830929057
0.00451404270902199,19.0000063656764
0.00488164821396416,19.0045217334817
0.00528114062798596,19.0092609898129
0.00571987875539079,19.0142586926477
0.00618820236546931,19.0193472306599
0.00667338471385286,19.0243455461496
0.00718289852312048,19.029293583527
0.00771908662829351,19.0341687714122
0.0082876655487424,19.0389752131295
0.00889492518430781,19.0437145393243
0.00954809914307099,19.0483890731481
0.0102552640461266,19.0530004341862
0.0110427092470353,19.0576470147949
0.0119246004233961,19.0623204092982
0.0129227892949661,19.0670371006371
0.0140671657002773,19.0718266726261
0.0154056160252984,19.076758419524
0.0170341334108931,19.0820121384875
0.0192625241713129,19.0882636858324
0.0209819206043243,19.0926075182524
0.0227907967873318,19.0969513506723
0.0243268324838223,19.1006366005229
0.0256097406349143,19.1038876633286
0.0266829615596295,19.1069444469858
0.0275326858537941,19.1099068148673
0.0281135776065698,19.1127382699247
0.0284252644504879,19.1155594224785
0.0284390290925701,19.1185238638287
0.0280504353802653,19.1219508082876
0.0272699427958979,19.1253443378704
0.0261578718969549,19.1287378674531
0.0250637777417808,19.1314948411963
0.0239902252989498,19.1339361991138
0.0229182896012002,19.1362313674132
0.0218460702617922,19.1384484878142
0.0207763612503358,19.1406228740147
0.0197128503369023,19.1427768189083
0.0186592403265629,19.1449260995794
0.0176190199465629,19.147082773259
0.016595406291528,19.1492566071378
0.0155913374793233,19.1514558998678
0.014609476547798,19.1536880037264
0.0136522270238482,19.1559596600538
0.0127217383557488,19.1582772591784
0.011819918934688,19.1606470221506
0.0109484472799931,19.1630751468829
0.0101087725014847,19.1655679612246
0.00930213016449401,19.1681320224953
0.00852625672396954,19.1707859361532
0.00776250028365094,19.1736152316004
0.00701467445483989,19.176639479827
0.00628651675958857,19.1798823235155
0.00558197686177746,19.1833710088014
0.00490517636630169,19.1871370650491
0.00426034238268119,19.191217175116
0.00365169583179056,19.1956544371848
0.00308327780702301,19.2005004280813
0.00255870411857145,19.2058189060525
0.00208089163165126,19.2116923404453
0.00165194775464749,19.2182311456312
0.00128286833508807,19.2253742010133
0.000975124080818603,19.2331030854109
0.000722086374354723,19.2415441405404
0.00051755106052508,19.2508654711489
0.000361351611721978,19.2608654711489
0.00025167994380418,19.2708654711489
0.000175307624632759,19.2808654711489
0.000124416807771183,19.2908654711489
8.95510834849717e-05,19.3008654711489
6.52420943174042e-05,19.3108654711489
4.82532723280238e-05,19.3208654711489
3.64754617095506e-05,19.3308654711489
2.8408084529417e-05,19.3408654711489
2.29539665831293e-05,19.3508654711489
1.93234349429381e-05,19.3608654711489
1.69628323229075e-05,19.3708654711489
1.54908203441206e-05,19.3808654711489
1.46459861784653e-05,19.3908654711489
1.42483657286473e-05,19.4008654711489
1.41732797988913e-05,19.4108654711489
1.43340468802656e-05,19.4208654711489
1.46704432045613e-05,19.4308654711489
1.51407927978449e-05,19.4408654711489
1.57164334606769e-05,19.4508654711489
1.63778211617272e-05,19.4608654711489
1.71117995386344e-05,19.4708654711489
1.79097003942602e-05,19.4808654711489
1.876603022541e-05,19.4908654711489
1.96775651503647e-05,19.5008654711489
2.06427288063638e-05,19.5108654711489
2.16611664555717e-05,19.5208654711489
2.27334557571074e-05,19.5308654711489
2.38609132700486e-05,19.5408654711489
2.5045468415657e-05,19.5508654711489
2.62895853406858e-05,19.5608654711489
2.75962192035613e-05,19.5708654711489
2.89687976868322e-05,19.580865471149
3.04112215675735e-05,19.590865471149
3.19278803272744e-05,19.600865471149
3.35236803217766e-05,19.610865471149
3.52040841531208e-05,19.620865471149
3.69751607275611e-05,19.630865471149
3.88436461472695e-05,19.640865471149
4.08170161400609e-05,19.650865471149
4.29035712365639e-05,19.660865471149
4.51125364012925e-05,19.670865471149
4.74541773506241e-05,19.680865471149
4.99399363823032e-05,19.690865471149
5.25825912346741e-05,19.700865471149
5.53964413310564e-05,19.710865471149
5.83975267955223e-05,19.720865471149
6.16038869135558e-05,19.730865471149
6.50358663356789e-05,19.740865471149
6.87164793907892e-05,19.750865471149
7.26718455312032e-05,19.760865471149
7.69317123658897e-05,19.770865471149
8.15300872152157e-05,19.780865471149
8.65060040025995e-05,19.790865471149
9.19044600912235e-05,19.800865471149
9.77775680886553e-05,19.810865471149
0.000104185981690367,19.820865471149
0.000111200673769491,19.830865471149
0.000118905171262044,19.840865471149
0.000127398388065317,19.850865471149
0.000136798248825155,19.860865471149
0.000147246370204484,19.870865471149
0.000158914172884581,19.880865471149
0.000172010954193654,19.890865471149
0.000186794685053265,19.900865471149
0.000203586650054266,19.910865471149
0.000222791599282321,19.920865471149
0.000244925949711104,19.930865471149
0.000270657979998476,19.940865471149
0.00030086629521445,19.950865471149
0.000336726818361807,19.960865471149
0.000379845573367789,19.970865471149
0.000430894101732233,19.9805919009407
0.000488749120550716,19.9895968078163
0.000528170951360171,19.9947984039081
0.000572923907996779,20
