ecg,time
0.0283995911575645,15.0009937083163
0.0288501573884328,15.0037378719716
0.0290207613124688,15.0065468257542
0.028853926356278,15.0096245114675
0.0280987524959392,15.0136548039151
0.0272543771769911,15.0164695131856
0.0261999236008351,15.0192842224561
0.0251299288925224,15.0217776097218
0.0240609056668908,15.0240763810805
0.0229897726661829,15.026271073412
0.0219182507004101,15.0284076517646
0.0208498063841651,15.0305131344619
0.0197881720500129,15.0326056973505
0.0187369274209493,15.0346987377066
0.0176993868707349,15.0368028176952
0.0166785779650144,15.0389267244877
0.0156772453554867,15.0410781133262
0.0146978635385245,15.0432639261952
0.0137426516243921,15.0454906836769
0.0128135827637065,15.0477647147776
0.0119123997851508,15.050092327573
0.0110406225720225,15.0524799738946
0.0101995568258349,15.0549344009336
0.00939031178562963,15.0574627750918
0.00859715290030424,15.0601310511512
0.00781634654273071,15.0629797858367
0.00705164125678758,15.0660305219203
0.00630694570493969,15.0693085085186
0.00558641108594626,15.0728430125417
0.00489438945584444,15.0766681276909
0.00423537829547304,15.0808237241387
0.00361390504095802,15.0853568603693
0.00303432059311113,15.0903242603398
0.00250051861525444,15.0957967363545
0.00201560177905589,15.1018674116697
0.00158842242820439,15.1085462936427
0.00131728902222539,15.1137779745344
0.00110006241006299,15.1190096554262
0.000877644567947882,15.1260131053952
0.000679948657949223,15.1343198057876
0.00052169357111191,15.1433886643014
0.000397950769424685,15.1533886643014
0.000312982282766274,15.1633886643014
0.000255559676813891,15.1733886643014
0.000217511095812785,15.1833886643014
0.000192984625853392,15.1933886643014
0.00017791211940415,15.2033886643014
0.000169529160022991,15.2133886643014
0.000165978285477585,15.2233886643014
0.000166018496439804,15.2333886643014
0.000168830171209152,15.2433886643014
0.000173889054822103,15.2533886643014
0.000180885028145785,15.2633886643014
0.000189669393789221,15.2733886643014
0.00020022143805089,15.2833886643014
0.000212629336087595,15.2933886643014
0.000227082826491795,15.3033886643014
0.000243876575371882,15.3133886643014
0.000263424489659623,15.3233886643014
0.000286286819224541,15.3333886643014
0.000313214042011646,15.3433886643014
0.000345214771406488,15.3533886643014
0.000383660215324932,15.3633886643014
0.000430446888023631,15.3733886643014
0.000486135549579692,15.3830533432272
0.000549803474464965,15.3919857328098
0.000622396273865118,15.4002263773511
0.00070511963349709,15.4078290004396
0.000799364298295412,15.4148440241019
0.000906710818659758,15.4213182377056
0.00102894910290359,15.4272950667018
0.00116810490480081,15.4328148287204
0.00132647151171208,15.4379149599093
0.00150664568419215,15.4426302260119
0.0017115701975663,15.4469929250814
0.00194458395977791,15.4510330830336
0.00220948324426579,15.4547786394954
0.00251059584652082,15.4582556313596
0.00285287558387692,15.4614883824321
0.00324202291369707,15.4644997026937
0.00368464401197561,15.4673111030182
0.00418846729182353,15.4699430428194
0.00476264762651495,15.4724152338221
0.00541821261231515,15.474747038258
0.00615380902220099,15.4769178253277
0.0069676903980754,15.4789253381764
0.00787176445846639,15.4808048825132
0.00888425002623042,15.4825927130609
0.0100352471867485,15.4843308762717
0.0113835314644265,15.4860821268024
0.0131569144685994,15.4880632055645
0.0149074744030954,15.4897806554262
0.0168259569684614,15.4914981052879
0.0184965657822194,15.4929244676102
0.0199419187497653,15.49415731419
0.0212333364754135,15.4953040878517
0.0223856917595,15.49641851405
0.0233894757668275,15.4975396894356
0.0242183957005741,15.4987099941859
0.0248220013717364,15.4999949958995
0.0250849969015471,15.5015508473975
0.0247460228863878,15.5033976888634
0.023798515097761,15.5052445303293
0.0226934952761143,15.506735982015
0.0214586693349437,15.5081425783686
0.0200873164096331,15.5095664743694
0.0185873712846405,15.5110527350195
0.0169662393775316,15.5126386829621
0.0152549630721393,15.5143700298692
0.0138951382492881,15.5158500014147
0.0115023777649269,15.5187573597895
0.00952284471002579,15.5215617179747
0.00795323150385906,15.5241530393076
0.00665166708465331,15.5266475184713
0.00551343673073609,15.529183846287
0.0045126352022023,15.5317909463817
0.00363102788672464,15.534492105894
0.00285383369263916,15.5373108453719
0.00222333521834238,15.5400154166831
0.00171363152024955,15.5425755699224
0.00129129846733342,15.5450338239554
0.000932389576572947,15.5474346533053
0.000620282978289584,15.549818558765
0.000342886136122317,15.5522260958615
8.81454721214681e-05,15.5547310641794
-0.000166661857509189,15.5575786604598
-0.000345102321868348,15.5598132330103
-0.000507818114897688,15.5620478055609
-0.000636415913330549,15.5639595154454
-0.000744701623411328,15.5656756445236
-0.000844399719604734,15.5673452732343
-0.000942371913882998,15.5690717584534
-0.00104559897008003,15.5709837720165
-0.00116803824166715,15.573374536554
-0.00138352462735204,15.5778927295844
-0.00156471735185731,15.5819818846652
-0.00171087774995312,15.5854634333195
-0.00186058002052889,15.5892015915649
-0.00204029398653509,15.5939712247623
-0.00222657985725409,15.5995343583913
-0.00234990886671267,15.6043622412149
-0.00240567637426945,15.6087063708873
-0.00238261955374224,15.6125954762249
-0.00227303328756662,15.6161006145031
-0.00207038776880127,15.6193034114533
-0.00176782898051535,15.6222735290136
-0.00135819163502432,15.6250623941408
-0.000830919163393589,15.6277237942025
-0.000161877505662661,15.6303414476032
0.000703948947537547,15.6330488729711
0.00189718970677888,15.6360926586602
0.0034108401001163,15.6393269152024
0.0052754657893737,15.6427595572283
0.00652800420536324,15.6448182436336
0.00790523855928825,15.6468769300389
0.00933275497174606,15.6487949999369
0.0107915718060391,15.6505417300036
0.0123401647326441,15.6521818091795
0.0140380089592414,15.6537600767078
0.0158915891392337,15.6552625601553
0.0179521377847826,15.6567124473716
0.0202398816152555,15.6581048869336
0.0227942782150049,15.6594468463034
0.025647900708444,15.6607390083888
0.0288347995369578,15.6619820423207
0.0324017440726206,15.6631802487395
0.0363976270405163,15.6643363208239
0.0408785454505328,15.6654531125327
0.0459103021359702,15.6665338006032
0.0515731911902225,15.667582260499
0.0579608654266216,15.6686021274311
0.0651859058364975,15.6695972590012
0.0733854002529707,15.6705718234327
0.0827279243217556,15.6715303457725
0.0934275026033818,15.6724781745366
0.105758887209379,15.6734215354014
0.120086523566699,15.6743681517339
0.136913180543825,15.6753281811579
0.156971616296031,15.6763160321096
0.180264994060019,15.6773085802321
0.207326067429895,15.678312196675
0.238955421852781,15.6793408969434
0.276308468341606,15.6804167222073
0.320228838238296,15.6815546440255
0.362380379162777,15.6825709913654
0.397281721603363,15.6833918703369
0.427345245232163,15.6841119257516
0.453629575093341,15.6847803763452
0.476345026746469,15.6854253653628
0.495257875180309,15.6860690311571
0.509708901064358,15.6867344578619
0.518362279716613,15.6874532394243
0.5184374409654,15.6882624139886
0.507441686539606,15.6890861181929
0.484163443853303,15.6899409315456
0.44698316427724,15.6908393573307
0.394053554421602,15.6917902827512
0.349266730485269,15.692456531833
0.299032917734943,15.6931227809148
0.254285557641483,15.6936752603036
0.216137822419136,15.6941319053682
0.182740859906922,15.6945306419604
0.152880141510582,15.6948937332241
0.12584003186245,15.6952344537754
0.101142323919296,15.6955620745704
0.078411110447237,15.6958844526868
0.0572783462612522,15.6962101654147
0.0372306073773876,15.696552580207
0.0169510190988937,15.6969480178725
0.00845168987661338,15.6971345322982
0.00061721813175264,15.6973210467239
-0.00728143165199683,15.6975268525061
-0.0138065700901993,15.6977138118392
-0.0197350487558056,15.6979004820063
-0.0257024122389836,15.6981089234046
-0.0314621527672715,15.6983355193174
-0.0368560687694615,15.6985780393712
-0.0417965982259482,15.6988356896621
-0.0462383054397785,15.6991086256248
-0.0501610452192015,15.6993976801632
-0.0537553649137925,15.6997252836175
-0.056553756982326,15.7000498999917
-0.058837296399225,15.7003959041072
-0.0606223535153166,15.7007665800518
-0.0619232120790894,15.7011655982707
-0.0627534394330716,15.7015974894248
-0.063124395440798,15.7020679044626
-0.0630435645391388,15.7025839992445
-0.0625122844802604,15.7031551584095
-0.061520130425731,15.7037952024484
-0.0600415032799962,15.7045221729822
-0.0580244273075546,15.7053634119011
-0.0553608251849328,15.7063662181709
-0.0517736915999672,15.7076381385471
-0.0477413991251407,15.7090317291648
-0.0438452361694943,15.7103793213995
-0.0401329728157205,15.7116856230623
-0.036627621581292,15.712953006231
-0.0333407221993067,15.7141823710203
-0.0302770244969858,15.7153738700297
-0.0274366345220137,15.7165272940095
-0.0248162015733467,15.71764227467
-0.0224097118306992,15.7187183889064
-0.020209105816836,15.7197552074799
-0.0182048037237036,15.7207523106073
-0.0163861686729011,15.721709282556
-0.0147419171968567,15.7226256918771
-0.0131824944630569,15.7235486346084
-0.0116833974228023,15.7244953002354
-0.0102489360030785,15.7254674162343
-0.00888302133841568,15.7264671568462
-0.00758935854536485,15.7274970781409
-0.00637139504445952,15.728560214418
-0.00523226840656433,15.7296602043687
-0.00417475195256986,15.7308014616665
-0.0032011979818517,15.7319894111947
-0.00231347804193404,15.7332308254755
-0.00151291890747279,15.7345343200788
-0.000800231595610783,15.7359111132472
-0.000175428183237857,15.7373762504803
0.000362284174108673,15.7389507088989
0.000796974740002127,15.7405883768593
0.00113562502896148,15.7422769134075
0.00139399712503499,15.7440347432095
0.00158643373543247,15.7458844572004
0.00172646927241153,15.7478565971334
0.00182728350426665,15.7499951912869
0.00190241098132492,15.7523696323686
0.00196721473049155,15.7551053078955
0.00204357880102048,15.7584941283633
0.00214382586469687,15.7622521424077
0.00227071540395872,15.7660932359837
0.00241770050745179,15.7698720158793
0.00258113099000101,15.7736514797279
0.00275760540663807,15.7774786436239
0.00294491826877168,15.7813908187484
0.00314228204232806,15.7854206398175
0.00335022451282927,15.7895989477923
0.003570383507978,15.7939566262993
0.00380530565405265,15.7985260079745
0.00405833932198475,15.8033422750782
0.0043337125233087,15.808444873352
0.00463689452934709,15.8138788591724
0.0049600696268388,15.8194364586705
0.00529052652417675,15.8248471613831
0.00563455795012836,15.8301751735706
0.00599356203416769,15.8353960645788
0.00637178029888953,15.8405275360481
0.00677312013004354,15.8455776391641
0.0072019151779613,15.8505554928975
0.0076626697565221,15.8554667457477
0.00816022234491256,15.8603147652305
0.00869983318931409,15.8651007411304
0.00928730766038085,15.869824171481
0.0099291021803667,15.8744832103613
0.0106334383861822,15.8790813959496
0.0114260007202387,15.8837113582107
0.0123209808617026,15.8883617190263
0.0133409582346216,15.8930488333563
0.0145176244104068,15.8978047179399
0.0159035429631144,15.9027069166966
0.0176099627625282,15.9079638561542
0.0200470490494457,15.9144537860064
0.0217177055639423,15.9184714541404
0.023459300372341,15.9224891222743
0.0249707538691245,15.9259984159896
0.0262440393168735,15.9291417368427
0.0273092489073289,15.9321218161753
0.0281373951015438,15.9349884213586
0.0286975774837111,15.9377445760634
0.0289866639943458,15.9405091038623
0.0289704245536665,15.9434404446075
0.0285239185576697,15.9469013135885
0.0277397932810437,15.9500806498012
0.0266556149190898,15.9532599860139
0.0255724343891325,15.9559093301184
0.0245025540842103,15.9582762398796
0.0234322029490469,15.9605068098524
0.0223604549154102,15.9626634101539
0.0212902786191208,15.9647791871114
0.0202253773305381,15.9668752792488
0.0191694162141611,15.96896674549
0.018125824618165,15.9710651558084
0.0170977487834049,15.973179935577
0.0160880482387674,15.9753191490358
0.0150993079775646,15.977489991084
0.0141338500503801,15.9796991292863
0.0131937474439423,15.9819529501574
0.0122808381153414,15.9842577489308
0.0113967301807146,15.9866199087783
0.010542818486364,15.9890460351524
0.00972029083589087,15.9915431109534
0.00892314130106926,15.994142326304
0.00813677785060965,15.9969142624472
0.00736497715446432,15.9998788033869
0.00661154274412153,16.0030597291523
0.00588052803608158,16.006484567802
0.0051762079025666,16.0101853175313
0.00450303061442323,16.0141993252174
0.00386552772265146,16.0185704837213
0.00326815519114358,16.0233511267632
0.00271503400348745,16.0286055361969
0.0022096286487888,16.0344163654455
0.00175449708755589,16.0408952683915
0.00136791595679485,16.0478577486895
0.00105580269971583,16.0553718196553
0.000817306736594715,16.0633963254962
0.000639118119538183,16.0715334961723
0.000489996704759599,16.0807908579976
0.000376402615378231,16.0907908579976
0.000298630593421085,16.1007908579976
0.00024630068859663,16.1107908579976
0.00021184323157461,16.1207908579976
0.000189858698243886,16.1307908579976
0.000176611911095982,16.1407908579976
0.000169574049877576,16.1507908579976
0.000167050180113132,16.1607908579976
0.000167911358299564,16.1707908579976
0.000171416896491995,16.1807908579976
0.000177100190103692,16.1907908579976
0.000184695253281817,16.2007908579976
0.000194089292467871,16.2107908579976
0.000205293204364925,16.2207908579976
0.000218425750628713,16.2307908579976
0.00023370928682801,16.2407908579976
0.000251476362341599,16.2507908579976
0.000272187913294138,16.2607908579976
0.000296465523562798,16.2707908579976
0.000325142711099478,16.2807908579976
0.00035934404492091,16.2907908579976
0.000400607312732334,16.3007908579976
0.000451075279779497,16.3107908579976
0.000509683143617515,16.3201910641496
0.000576581785370643,16.3288689859174
0.000652830611197418,16.3368745663701
0.000739705169201811,16.3442605268008
0.000838665601240014,16.351075988466
0.000951367892305582,16.3573665292254
0.00107968661171194,16.3631744547212
0.00122574338615224,16.3685390441601
0.0013919404453338,16.3734967695435
0.00158099834730738,16.378081504191
0.00179600174468604,16.3823247235158
0.00204045274746293,16.3862556975301
0.00231833700317524,16.3899016749206
0.00263420462556035,16.3932880686422
0.00299327328204524,16.3964386494504
0.00340156215789414,16.3993757500916
0.00386606957578331,16.4021204906323
0.00439501825038589,16.4046930448256
0.00499820539146067,16.4071129743638
0.00568752490279694,16.4093996815693
0.00645163606217264,16.4115072529531
0.00729793508320163,16.413464593982
0.00824048725839095,16.4153074666306
0.0093010844332455,16.417073513961
0.0105177420943812,16.4188101506581
0.011987960705634,16.4206166242344
0.014086505893457,16.4228263530911
0.0156776972007,16.4243163750022
0.0173772060597591,16.4258063969133
0.0189462775278813,16.4271429095761
0.0203364391083915,16.4283415910732
0.0215822489413468,16.4294748815741
0.0226880632497929,16.4305885480263
0.0236390673868315,16.4317211458518
0.0244029690067795,16.4329194394718
0.0249168158930053,16.4342647693737
0.0250131994594578,16.4359940975892
0.0245096600728685,16.437723324013
0.0235077206766584,16.4394525504368
0.0223745964017083,16.4409073918464
0.0211077363229695,16.4423132759256
0.0197060281769599,16.4437493671511
0.0181781954222559,16.4452565555782
0.0165305186908079,16.4468729322301
0.015204651750707,16.448226608504
0.0128008568477248,16.4509303061576
0.0105428681592983,16.4538681237521
0.00876447359017053,16.4565720031923
0.00734093153413189,16.4590881240188
0.00611768694901669,16.4615974897531
0.00504445648278084,16.4641633293846
0.00409979971231452,16.4668106519391
0.00326725650218691,16.4695626146899
0.00255137538806701,16.4723656390289
0.00197908526566804,16.4750071649006
0.00151160105789471,16.47752214943
0.00111970628443359,16.4799562865267
0.000782960091609429,16.4823532902712
0.000487085582299581,16.4847532745464
0.000220543707273531,16.4872071586163
-3.17949455796183e-05,16.4898416798466
-0.000318958543965488,16.4932880395634
-0.000462134341620053,16.4952155103508
-0.000594959984399424,16.4971429811382
-0.000708598285701646,16.4989057969144
-0.000810871804370118,16.5005863334734
-0.000909269014504082,16.5022897665172
-0.00101031151249797,16.5041287003081
-0.00112419953950479,16.5063103703944
-0.00129162858292036,16.5097222802885
-0.00145630454563691,16.5133045843776
-0.0015890942242636,16.5163478356037
-0.00171898859883056,16.5194536121472
-0.00186387450604302,16.5230736800471
-0.00203970314217651,16.5277403878342
-0.00222629126354293,16.5333173526088
-0.00234886318214013,16.5381431223685
-0.00240340524315924,16.5424886927418
-0.00237860649190863,16.5463761512285
-0.00226678300508929,16.5498835726211
-0.0020615322868014,16.5530877231205
-0.00175618568393764,16.5560583970435
-0.00134318405461382,16.5588506927701
-0.000811546866955514,16.561518687619
-0.000139228564174226,16.5641369951532
0.000725920459631561,16.5668337766163
0.00192366315703219,16.5698817278122
0.00343973046506452,16.5731124624362
0.0053027005914689,16.5765302155191
0.00658972246992462,16.5786340367631
0.0080084917922677,16.5807378580071
0.00942798362986618,16.582626745166
0.0108967775951086,16.5843679909684
0.0124568114086441,16.5860030617181
0.014159341830867,16.5875690421001
0.0160290756438418,16.5890687611578
0.0181062640908456,16.5905148307905
0.0204142028841219,16.5919045707973
0.0229901703160031,16.5932433979558
0.0258678508236864,16.5945325843233
0.0290814628755314,16.5957727761817
0.0326782934717141,16.5969683255504
0.0367078394327766,16.5981219691313
0.0412268737291597,16.5992365797749
0.0463022232880059,16.6003153894783
0.0520151878670171,16.6013622661735
0.0584607845175725,16.602380865389
0.0657533631586576,16.6033750737513
0.0740323587047524,16.6043491013381
0.0834695081302367,16.6053075313179
0.0942833674777045,16.6062558050903
0.106755294849859,16.6072002860943
0.121259930866971,16.608148916486
0.13831688501801,16.6091122236035
0.158676398070352,16.6101047063809
0.182247513003046,16.6110991955147
0.209646671659778,16.6121060611041
0.241700639040877,16.6131399754838
0.279619529870635,16.6142244400831
0.32379811579789,16.6153639036991
0.364940986932261,16.6163560177189
0.399217036185701,16.6171659052985
0.428845726564945,16.6178815197567
0.45474784802348,16.6185485564908
0.477078866512006,16.6191941124297
0.495568103968174,16.6198401122371
0.509511804292659,16.6205099362558
0.517492872255333,16.6212362619946
0.516640576302722,16.6220470779301
0.504652294481798,16.6228736512417
0.480283431670303,16.6237321918185
0.441896820466627,16.6246347579641
0.38764940998807,16.6255901485039
0.343485938975367,16.6262385792335
0.294281387367445,16.6268870099631
0.250387103131087,16.6274280252574
0.212807720292848,16.6278783836613
0.179816124524824,16.628273498507
0.150271144884273,16.6286344128782
0.123490418969478,16.6289738811535
0.0990112043073265,16.6293009586913
0.0764636678945647,16.6296234685151
0.055476750287624,16.6299501746762
0.0355118069309849,16.6302952456189
0.0150820563686219,16.6306998516878
0.00158038386889254,16.6310098792994
-0.00574524806964239,16.6311982195957
-0.0124392289679817,16.6313865598921
-0.0182966844335845,16.6315672935399
-0.0242730618250905,16.6317710828688
-0.0300946243166986,16.6319938739951
-0.0355802844111713,16.632232979555
-0.0406289012360943,16.6324873152446
-0.0451869899204087,16.6327568427609
-0.0492295293192644,16.6330422507459
-0.0527579679351387,16.6333464558388
-0.0557067218405535,16.633665066813
-0.0581398185593824,16.6340045521069
-0.0600705808885213,16.6343677645669
-0.0615131506028435,16.6347581494104
-0.0624814376986147,16.6351799554793
-0.0629876084772092,16.6356384635506
-0.0630404908372884,16.6361403254257
-0.0626436377665812,16.6366940847443
-0.0617906591542303,16.6373122101649
-0.0604612204039629,16.6380111115126
-0.0586132232889352,16.6388146483926
-0.0561611381286969,16.6397621090202
-0.0529050530760666,16.6409336115958
-0.0488472045853318,16.6423434047601
-0.0449071914397158,16.6437035756562
-0.0411410125550689,16.6450212344229
-0.0375766193662686,16.6462994359035
-0.0342281875943141,16.6475394250762
-0.0311021218356013,16.6487415282831
-0.0281996987678195,16.6499056199173
-0.0255184513940788,16.6510313678925
-0.0230530464934823,16.6521183611789
-0.0207959417960547,16.6531661718702
-0.018737933779601,16.6541743789116
-0.0168686374874241,16.6551425679702
-0.0151769117651222,16.6560703153754
-0.0136016546108177,16.6569868923645
-0.0120852938182927,16.65792687939
-0.010632457098445,16.658891772202
-0.00924710224406166,16.659883654418
-0.00793299650297032,16.6609049680068
-0.00669366329951173,16.6619586042223
-0.00553233072100082,16.6630480201131
-0.00445187772086399,16.6641773951349
-0.00345477800705704,16.6653518465131
-0.00254304118158324,16.6665777334446
-0.00171815003657476,16.6678631006624
-0.000980991776289184,16.6692183504538
-0.000331778795173722,16.6706573098932
0.000230049703375262,16.6721990296737
0.000694730270277388,16.6738259126183
0.00105852193647376,16.6754985236545
0.00133788389341341,16.6772351625073
0.00154744724732645,16.6790567851338
0.00170093648414281,16.6809913314121
0.00181158094287008,16.6830782852082
0.00189272946669604,16.6853781545772
0.00195901633816603,16.6879954559489
0.00202959142876556,16.6911524334958
0.00212408157830945,16.6948877533588
0.00224510589744428,16.6987404290549
0.00238728432517991,16.7025228368606
0.0025473652737074,16.7063001478576
0.00272173482412483,16.710120852361
0.00290777438952816,16.7140229876526
0.00310427564471177,16.7180395298026
0.00331141109093844,16.7222014061755
0.00353054943600539,16.7265394319147
0.00376404655489898,16.7310857345031
0.00401511156165574,16.7358751439567
0.0042878439851902,16.7409466148728
0.0045875422686245,16.7463445621347
0.00491027897426981,16.7519298849434
0.00523885379101381,16.7573493154678
0.0055810488147119,16.7626939187823
0.00593757371299469,16.7679279773533
0.00631280115030217,16.773071886152
0.0067105456033424,16.7781329884528
0.00713512321064114,16.7831209781152
0.00759098710978196,16.7880417636074
0.00808291733692351,16.7928990288469
0.00861609799563699,16.7976942109223
0.00919624421981372,16.8024270232497
0.00982970730438186,16.8070957812498
0.0105235915399296,16.8116979180192
0.0113024377408936,16.8163240263313
0.01218115902936,16.8209705980705
0.0131811188862988,16.825650921948
0.0143321814404153,16.8303933625789
0.0156825637693007,16.8352658546975
0.0173296626273812,16.8404458545563
0.0195895650494525,16.846600534512
0.0213317110388519,16.8508600542565
0.0231689237708484,16.8551195740011
0.0247343554141585,16.8587363773053
0.0260448876021602,16.861925493519
0.0271447119563301,16.8649224058078
0.0280186025881483,16.8678192467696
0.028622974724283,16.8705860952867
0.0289582952411373,16.873340125093
0.0289973512307413,16.8762284904345
0.0286412440481272,16.8795502447867
0.027874667951062,16.8829119906048
0.0267623632676074,16.8862737364229
0.0256704429296738,16.8889786836023
0.0245996149547889,16.8913645570661
0.0235294133714922,16.8936043086941
0.0224576865119043,16.8957659976881
0.021387209898605,16.8978844898718
0.0203216660209564,16.8999816904851
0.0192647354844006,16.9020730756113
0.0182198723332493,16.904170464472
0.0171902487702033,16.9062834400269
0.0161787500394908,16.9084201673167
0.0151879855572985,16.9105879054647
0.0142203002345815,16.9127933611025
0.013277789992827,16.9150429374714
0.0123623125525084,16.9173429358612
0.0114754962376006,16.9196997287003
0.0106187563803642,16.9221198946342
0.00979329748255018,16.92461038529
0.00899533072337103,16.9271947854674
0.00820781002210105,16.9299502579831
0.00743451749749003,16.9328963383264
0.0066792334599138,16.9360564956996
0.00594598892586194,16.9394578924901
0.00523904137341987,16.9431320817835
0.00456282555348265,16.9471158843548
0.00392187062297986,16.9514525355966
0.003320648657246,16.9561934898549
0.00276332317841667,16.9614017414543
0.00225343330397303,16.967157883392
0.00179362125347165,16.9735704042166
0.00140083242720456,16.9804862430575
0.00108165113710519,16.9879445707518
0.000825014814986652,16.9963816930078
0.000650671070446477,17.004228060683
0.000497490100636857,17.0135450105433
0.000381628478023704,17.0235450105433
0.000302218956946993,17.0335450105433
0.000248720352158738,17.0435450105433
0.000213438542292024,17.0535450105433
0.00019087170879602,17.0635450105433
0.000177206107956293,17.0735450105433
0.000169857037336427,17.0835450105433
0.00016709147605201,17.0935450105433
0.000167754530630418,17.1035450105433
0.000171087236077868,17.1135450105433
0.000176609455021805,17.1235450105433
0.000184044593576389,17.1335450105433
0.000193270972841372,17.1435450105433
0.00020429141872544,17.1535450105433
0.000217216649181605,17.1635450105433
0.000232260233486564,17.1735450105433
0.000249744347047448,17.1835450105433
0.000270116925802826,17.1935450105433
0.000293982524945546,17.2035450105433
0.000322151576000539,17.2135450105433
0.000355716416081906,17.2235450105433
0.000396168564602,17.2335450105433
0.000445582443695021,17.2435450105433
0.000503309895803077,17.2530088661384
0.000569230014952225,17.2617483197864
0.000644371666323752,17.2698109951629
0.000729990470642476,17.2772497932613
0.000827526181967802,17.284114096931
0.000938612351018945,17.2904497327874
0.00106509826526367,17.296299240064
0.0012090768393707,17.3017021175128
0.00137291760224109,17.3066950431489
0.00155930379919778,17.311312082465
0.00177127720493144,17.3155848887774
0.00201229036975537,17.3195428957652
0.0022862712334994,17.3232135011647
0.00259770183331828,17.3266222510555
0.00295171862101134,17.3297930315091
0.00335424214916974,17.3327482703831
0.0038121485463115,17.3355091583917
0.00433350535929956,17.3380959084618
0.0049279063951447,17.3405280787114
0.00560696833781895,17.3428250052917
0.00636237899673344,17.344948154029
0.00719868238815758,17.3469172413136
0.00812920376598854,17.3487677517149
0.00917445864947762,17.3505366526684
0.010369552120796,17.3522691776188
0.0117953630524193,17.3540483988191
0.0137678337126377,17.3561612960463
0.0154546979752388,17.3577599664979
0.017274065349332,17.3593586369494
0.0188739252748638,17.3607170398042
0.0202794179072877,17.3619213592693
0.0215383166002506,17.3630557656531
0.0226574532736819,17.3641677419668
0.0236232177769148,17.365295812053
0.0244047624301221,17.3664855212494
0.0249423343342138,17.3678139406996
0.0250834606929865,17.369494287924
0.024619509113559,17.3712464104019
0.0236324997638207,17.3729985328798
0.0225073355856878,17.3744596604553
0.0212483342137207,17.3758641083926
0.019853451227445,17.3772957106608
0.0183313353109581,17.3787962190768
0.0166885891912573,17.3804034647095
0.0149653667409754,17.3821661506455
0.0124282975516092,17.3850692295506
0.0102382657075532,17.3879866467806
0.0085224012783857,17.3906574518357
0.00714345383523968,17.3931507538649
0.00594491807860892,17.3956660040865
0.00489246172612213,17.3982422934952
0.00396587219712719,17.4009035673825
0.00314919608937109,17.4036730168271
0.00245403970577075,17.4064657570449
0.00189752978537724,17.4090990618535
0.00144177378340582,17.4116106647481
0.0010587134841612,17.4140463784983
0.000728946446324506,17.4164481676491
0.000439175666181497,17.418851728225
0.000178550118625136,17.4213029765616
-6.75698866230576e-05,17.4239239587198
-0.000344508219034309,17.4273029276141
-0.000486590497233175,17.4292424016992
-0.00061847805855742,17.4311818757843
-0.000731068385464705,17.4329504738437
-0.000832084841624655,17.4346296555
-0.000929060210461533,17.4363259825784
-0.00102838398773981,17.4381499119033
-0.00113972324811884,17.4402980474411
-0.00129858047242881,17.4435469555594
-0.00146420504489534,17.4471520685498
-0.00159737770119275,17.450201980081
-0.00172617271395035,17.4532741856284
-0.00186903213613628,17.4568265133922
-0.00204146872163826,17.4613607477432
-0.00223435261923008,17.4670203623195
-0.00236245349310418,17.4718857490131
-0.00242320381084104,17.4762681671638
-0.00240492541024939,17.4801871486455
-0.00229978384844833,17.4837205899279
-0.00210119793823654,17.4869487460151
-0.00180261849775072,17.4899397367735
-0.0013969966611459,17.4927468421048
-0.000874470067590425,17.4954216582548
-0.000215151759207285,17.4980352291034
0.000630362648828391,17.5007142859365
0.00180603013895624,17.5037497000479
0.00329460542957703,17.5069608368475
0.00513474823768295,17.5103744501766
0.00642711143847357,17.5125114188955
0.00785081303384397,17.5146483876144
0.00926699924941102,17.5165578824025
0.0107283577413965,17.5183153050798
0.0122726136534489,17.5199589539438
0.013956633924806,17.5215334693872
0.0158032865049732,17.5230401848389
0.0178541798094275,17.5244932822219
0.0201315898713247,17.5258894326817
0.022673549564569,17.5272347474952
0.0255117373531905,17.5285296427668
0.0286820390576624,17.5297757035483
0.0322299889807815,17.53097676181
0.0362041722019548,17.5321355092231
0.0406589305607211,17.5332544689163
0.0456623435058781,17.5343375087463
0.051292987185919,17.5353881852873
0.0576437910665048,17.5364101230924
0.064826490411597,17.5374071793334
0.0729767109983416,17.5383834752109
0.0822622549959324,17.5393436069051
0.0928951865411238,17.540292894129
0.105147913601935,17.5412375560218
0.119381703216945,17.542185307448
0.136094751512433,17.5431462881672
0.156013311815707,17.5441348953032
0.179158628005322,17.5451287626372
0.206047196960776,17.5461335790516
0.237474297142934,17.5471633569925
0.274586142946599,17.5482400583212
0.318233320554955,17.5493788044351
0.360438545772011,17.5504027029139
0.395391235181609,17.5512289897107
0.42549035303869,17.5519528800597
0.45180659659058,17.552624176693
0.47455822085974,17.5532712254034
0.493520147866942,17.5539161684888
0.508047498846513,17.5545818847807
0.516836410610752,17.5552993118519
0.517159270840141,17.5561096010368
0.506458433037309,17.5569336411262
0.48353874828117,17.5577880046311
0.446800259428288,17.5586852310502
0.394413756781804,17.5596342607028
0.34968696771159,17.5603039350991
0.299436249237784,17.5609736094954
0.254657022066111,17.561528480908
0.216493746220484,17.561986615261
0.183089616138515,17.5623863615768
0.153224775454011,17.56275018896
0.126181845878412,17.5630914609956
0.101482435092526,17.563419484928
0.0787514571276114,17.563742119358
0.0576233218071672,17.5640678950439
0.0375923196867877,17.5644099929096
0.0173832983986661,17.5648036536626
0.00886824325841965,17.564990164544
0.00101677591525057,17.5651766754254
-0.00704415536748217,17.5653863717391
-0.0136033132099099,17.5655741704128
-0.0195198749462328,17.5657603053393
-0.0254844456388336,17.5659683715295
-0.0312478446607361,17.5661947089261
-0.0366492098142688,17.5664370283716
-0.0415994046186366,17.5666944990501
-0.0460520599203118,17.5669672522373
-0.0499864597763602,17.5672561031865
-0.0536082863257402,17.5675849752374
-0.0564161612263551,17.5679094208205
-0.0587090236788197,17.5682551816643
-0.0605033904769289,17.5686255480005
-0.0618135202646578,17.569024172465
-0.0626529911814555,17.5694555622579
-0.0630332149567026,17.5699253367192
-0.0629617788805778,17.5704406075331
-0.0624402330011965,17.5710106657358
-0.0614584727671641,17.5716492502882
-0.0599914154039511,17.5723742258969
-0.0579880908674959,17.5732125926299
-0.055342830026692,17.5742108256202
-0.0517874996588982,17.5754733986443
-0.0477560814191334,17.5768678978578
-0.04385951922159,17.5782161128285
-0.0401462435788059,17.5795228938416
-0.0366395773866492,17.5807906759841
-0.0333512121308366,17.5820203936603
-0.0302859812715628,17.5832122186881
-0.0274440419956079,17.5843659528497
-0.0248220773517606,17.5854812343249
-0.0224140968548545,17.5865576438887
-0.0202120573793412,17.5875947547073
-0.0182063903438282,17.5885921485834
-0.0163864660991734,17.5895494109534
-0.0147410051777604,17.590466111379
-0.0131811406367061,17.5913889070753
-0.0116815647300755,17.5923354171565
-0.0102465952019696,17.5933073635464
-0.0088801444097638,17.5943069183404
-0.00758591897926392,17.5953366348607
-0.0063673680923489,17.5963995439202
-0.00522763134465406,17.5974992797428
-0.00416948435050866,17.5986402502006
-0.0031952819705997,17.5998278725098
-0.0023068985761133,17.6010689088337
-0.00150566401784367,17.6023719603541
-0.000792292628769842,17.6037482246168
-0.000166800028660291,17.6052127159852
0.000371602857167955,17.6067863618844
0.000807124798719636,17.6084237631837
0.00114649626831836,17.6101119056427
0.00140549754780364,17.6118692088087
0.0015984808688714,17.6137182217815
0.00173898865958466,17.6156894188299
0.00184020682654481,17.617826708777
0.00191567307246242,17.6201992462177
0.00198074560564259,17.6229318408741
0.00205726401964294,17.6263143387492
0.00215774613771737,17.6300715083135
0.00228458207308003,17.6339032958343
0.00243178004286118,17.6376798401491
0.00259572443734194,17.6414619937935
0.0027729948524392,17.645295562101
0.00296135440799229,17.6492172691312
0.00315999167308131,17.6532594874164
0.00336942692635493,17.6574529928776
0.00359130959376551,17.6618287463242
0.00382821859492178,17.6664192803261
0.0040835611928509,17.6712601116289
0.00436166242701358,17.6763911312588
0.00466815059957933,17.681857973327
0.00499184658980431,17.6873939151858
0.00532393167155215,17.6927989870076
0.00566945805079946,17.6981149134643
0.00603040424991128,17.7033264809586
0.00641090142937361,17.7084491330913
0.00681493484897145,17.7134915349658
0.00724684792943037,17.7184623399702
0.00771118099476965,17.7233669966251
0.00821281257917342,17.728208629059
0.00875705604548104,17.7329882441659
0.00934978004178214,17.7377051861354
0.00999751505141111,17.742357499046
0.0107102624811994,17.7469590037655
0.0115124865489662,17.7515906346431
0.0124191536573458,17.75624393296
0.0134535074256595,17.7609361224742
0.014648673820847,17.7657022570619
0.0160606290256154,17.77062743328
0.0178121398854309,17.7759458323516
0.0202827821929359,17.782440876399
0.0219219290128872,17.7863523383629
0.0236207251805865,17.7902638003268
0.0251041688259817,17.7937202206615
0.0263565048601803,17.7968400379989
0.0274016391809645,17.799812147733
0.0282033739435694,17.8026628838934
0.0287377571066787,17.8054143474507
0.0289994621845167,17.8081868929823
0.0289496497355823,17.811147144785
0.0284437120754869,17.8147069006323
0.0276463162235727,17.8177948373948
0.0265718189080485,17.8208827741572
0.0254926362964937,17.8234969149171
0.0244231582133342,17.8258498140426
0.023352663467233,17.8280732593819
0.0222809139247409,17.8302258868872
0.0212110021294565,17.8323395661358
0.0201466435437082,17.8344348428199
0.0190914897444528,17.8365264492555
0.0180489497204752,17.8386257592848
0.0170221484412516,17.8407420742409
0.0160139246098639,17.8428833788584
0.0150268431541898,17.845056818297
0.0140632075764124,17.8472690300423
0.0131250724565216,17.8495263881145
0.0122142590506194,17.8518351860768
0.011332359426166,17.8542018168415
0.010480751761588,17.8566329098905
0.00966061027988685,17.8591354760779
0.00886413986309822,17.8617469256657
0.00807873508837745,17.8645324600392
0.00730816782549286,17.8675122534519
0.00655626055221818,17.8707103440525
0.00582708501012949,17.8741545629291
0.00512493033608144,17.8778772761633
0.00445425512550965,17.8819162687495
0.0038195920719521,17.8863159808993
0.00322538211463883,17.8911294867491
0.00267570943798335,17.8964221570209
0.00217397612005015,17.9022783872213
0.00172274749563822,17.9088112601174
0.00134119112768438,17.9158125358376
0.00103483206771017,17.9233730185293
0.000817068376986633,17.9308144172644
0.000632670852001885,17.9392696105717
0.000486587305785239,17.9484310495231
0.000373926931518473,17.9584310495231
0.000296825237379527,17.9684310495231
0.00024496479310697,17.9784310495231
0.000210825632655955,17.9884310495231
0.000189050913605118,17.9984310495231
0.000175938892222304,18.0084310495231
0.000168984428723276,18.0184310495231
0.000166508323605859,18.0284310495231
0.000167391857763972,18.0384310495231
0.000170901017935707,18.0484310495231
0.00017657357182811,18.0584310495231
0.00018414631817068,18.0684310495231
0.000193508066767552,18.0784310495231
0.000204670376507993,18.0884310495231
0.000217751865324788,18.0984310495231
0.000232973987472752,18.1084310495231
0.000250667593440495,18.1184310495231
0.000271290981280053,18.1284310495231
0.000295461885189307,18.1384310495231
0.000324008302480363,18.1484310495231
0.000358046861423191,18.1584310495231
0.000399103763154288,18.1684310495231
0.000449304493682639,18.1784310495231
0.000507696188274623,18.187848078576
0.000574356526782411,18.1965422029715
0.00065033710709265,18.2045627651703
0.000736908579072028,18.2119625465851
0.000835526126085692,18.2187907481462
0.000947840314083889,18.2250930221734
0.00107571963433469,18.2309117432846
0.00122127883106378,18.2362862547472
0.00138691231695647,18.2412530880209
0.00157533174547663,18.2458461713982
0.001789611558076,18.2500970308621
0.00203324207659214,18.2540349827798
0.00231019524897187,18.2576873179941
0.00262500504420406,18.2610794872052
0.00298286989347305,18.2642352941716
0.00338978565024377,18.267177099443
0.00385272175761043,18.26992604477
0.0043798642948843,18.2725023179277
0.00498096248752387,18.2749254844455
0.0056678448747892,18.277214935774
0.00642989158165692,18.2793264833457
0.00727382315367946,18.2812868892032
0.00821353238306068,18.2831318590554
0.00927051228092857,18.2848988859459
0.0104820912254049,18.2866348803479
0.0119417657430724,18.2884352365333
0.0140092796204718,18.2906215099913
0.0156004563240288,18.2921168773642
0.0173029449585111,18.2936122447372
0.0188825544040168,18.2949575672848
0.0202804500734367,18.296160491583
0.0215330688322015,18.2972954059571
0.0226459500704099,18.2984088800828
0.0236050344374667,18.299539451632
0.0243789708429485,18.3007331104677
0.024906913584265,18.3020684358523
0.025031394647291,18.3037667190019
0.0245530531167924,18.305511352906
0.0235611843637532,18.3072559868101
0.0224338145582585,18.308715618223
0.0211728433109429,18.3101211968379
0.019776600110246,18.3115548694518
0.018253776376818,18.3130580722458
0.0166108846082303,18.3146686952921
0.0150598906702371,18.3162547758383
0.012633020357865,18.3190084331236
0.0104099442069948,18.3219311913182
0.00865948639160745,18.3246198395362
0.00725543028047768,18.327125971331
0.00604288239941776,18.3296378890406
0.00497862038550988,18.3322082661419
0.004041750503899,18.3348616383236
0.0032160370208413,18.3376211741628
0.00251172055154401,18.3404085943031
0.00194782997585056,18.3430367144362
0.00148636247085159,18.3455413270233
0.00109884335928948,18.3479678595189
0.000765340504065425,18.3503596728031
0.000471884582887425,18.3527568419267
0.000206940133716441,18.3552124344597
-4.52439952544128e-05,18.3578632443295
-0.000273437745057026,18.3605780472097
-0.000426622405562813,18.3625957398751
-0.000568024515557826,18.3646134325404
-0.000685254986436255,18.3664078393153
-0.000789000940814222,18.3680927220367
-0.000887621563588321,18.3697815530206
-0.000987542554222111,18.3715809198425
-0.00109764976656439,18.3736669995082
-0.00124537561365296,18.3766331093528
-0.00142253843272387,18.380432028902
-0.00156177405302954,18.3835930929265
-0.00169114130200399,18.3866624361481
-0.00183235708805424,18.3901606794547
-0.00200106670681199,18.3945779104519
-0.002198374149223,18.4003106431456
-0.002330948384376,18.4052155848972
-0.00239799834885921,18.4096409640067
-0.00238748510138037,18.41360041744
-0.00229134755496404,18.4171636321597
-0.00210299419645572,18.4204122333607
-0.00181588276132292,18.4234162658679
-0.00142289461903945,18.4262315458541
-0.000914214709183743,18.4289110465485
-0.000270593622937853,18.4315249340056
0.000556301385161935,18.4341998871861
0.0017036725414148,18.4372155961712
0.00316305395401645,18.4404116178959
0.00497561527559604,18.4438181240468
0.00627319682627437,18.4459901516143
0.00770328575495865,18.4481621791818
0.00910784489670407,18.4500789609276
0.010566682332677,18.4518558719946
0.0120959756510332,18.4535052627992
0.0137651529700281,18.4550876763079
0.0155926898667199,18.4566002220351
0.0176218800412562,18.4580590679907
0.0198743042999111,18.4594604689021
0.0223882768032748,18.460810953394
0.0251934462305641,18.4621101053079
0.0283280690185993,18.4633607932651
0.0318357354731503,18.4645661695819
0.0357642652248548,18.4657288856588
0.0401665872631116,18.4668513136643
0.0451107004592102,18.4679375820155
0.0506733761888746,18.4689911120317
0.0569457929896364,18.4700155025075
0.0640374666622771,18.4710145808413
0.0720805223085641,18.4719923559477
0.0812398083933027,18.4729534820605
0.0917215959386045,18.4739031372485
0.103790498136622,18.4748473986285
0.117796058087764,18.475793759409
0.134217473921742,18.4767519789978
0.153748262959812,18.4777357970002
0.176532619597446,18.4787284402714
0.202986854522717,18.4797306584477
0.23387792481692,18.4807558209632
0.270295998104656,18.4818244867147
0.313549152651208,18.4829627927372
0.347918676935789,18.4838039730022
0.383453269382469,18.4846451532671
0.415095346940428,18.4853959584707
0.442806986775355,18.4860821253343
0.466936368013776,18.4867347628533
0.487405415622919,18.48737725758
0.503739902772062,18.4880315406614
0.514933877937883,18.4887244218083
0.518915696980922,18.4894994589738
0.512599203434244,18.490315632722
0.494568020942545,18.4911562295863
0.463361458207659,18.4920355730368
0.41720574359394,18.4929636893515
0.370623792667576,18.4937125512319
0.316600410165299,18.4944614131122
0.268618612006578,18.4950667623705
0.228396382185522,18.4955522587002
0.193579495745842,18.4959678034486
0.162638417135495,18.4963414053897
0.13472110846579,18.4966887286215
0.109289210534113,18.4970200464891
0.0859439305782156,18.4973434682561
0.0643268365005599,18.4976670358087
0.0440040678304398,18.4980016801225
0.024111065671312,18.4983710026936
0.00861280178260401,18.4987008363589
2.28707521581851e-05,18.4989060740695
-0.00779121030591824,18.4991113117801
-0.0142421317114601,18.4992976232019
-0.0201829758188922,18.4994862856257
-0.026139293841955,18.4996963789822
-0.0318723914115095,18.4999243964528
-0.0372309810972878,18.5001682411855
-0.042131625529003,18.5004272059706
-0.0465313443763894,18.5007015056697
-0.0504110348801317,18.5009920188768
-0.0540020016717231,18.5013258809311
-0.0567509515708096,18.5016526343589
-0.0589858968025587,18.5020009745715
-0.0607238475625735,18.5023743034061
-0.0619790786875274,18.5027763642756
-0.0627650035814512,18.5032117797744
-0.0630926848990874,18.5036863218462
-0.0629691414454003,18.5042073115206
-0.0623948346484632,18.5047845031623
-0.0613581509567661,18.5054319991744
-0.0598316953327803,18.5061684749388
-0.057760083448526,18.507022488574
-0.0550270399286241,18.5080442824547
-0.0513239926049708,18.5093527069094
-0.047304156259597,18.5107409954117
-0.0434267499798841,18.5120840316448
-0.039736390366853,18.5133860888285
-0.0362545582297629,18.5146493465709
-0.0329919343346849,18.5158746087058
-0.0299527020241728,18.5170619813696
-0.027136552156059,18.5182112349131
-0.0245398139684706,18.5193219941016
-0.0221562248681236,18.520393835369
-0.0199775363301418,18.5214263314281
-0.017994032165082,18.5224190643312
-0.0161949861429389,18.5233716183783
-0.0145690670384373,18.524283559117
-0.0130157600586975,18.5252090180895
-0.0115233257532513,18.5261583266602
-0.0100959529020115,18.5271333031857
-0.00873753340194744,18.5281361587522
-0.00745174699355885,18.529169495821
-0.00624201016733492,18.5302364069503
-0.00511142375231604,18.5313406049814
-0.00406271826099198,18.5324865994872
-0.00309819681570336,18.5336799417936
-0.00221967500777036,18.5349275750902
-0.00142841624196104,18.5362383520347
-0.000725059679509036,18.5376238322767
-0.000109535126829193,18.5390995760153
0.000419046652989439,18.540687384591
0.000842536456326992,18.5423296270157
0.00117185205879348,18.5440248028405
0.00142250991970272,18.5457914475291
0.00160875014711238,18.5476528519346
0.00174404717828453,18.5496406901171
0.00184158313659995,18.5518010034389
0.0019150053960569,18.5542072300256
0.00198006254904102,18.5569947239441
0.00206014998442996,18.5604922829855
0.00216388182324954,18.5642667206374
0.0022932981885407,18.5680865294177
0.00244270360002638,18.5718607523547
0.0026083998565336,18.5756476367979
0.0027870712469936,18.5794913405632
0.00297664656167228,18.5834277852692
0.00317647980184429,18.587488991507
0.00338723541980783,18.5917056752134
0.00361068035761457,18.5961089383522
0.00384949096489674,18.6007316404452
0.00410717084816871,18.6056098283181
0.00438817032641537,18.6107840949014
0.00469831838782657,18.6163009828911
0.005021831655933,18.6218131146627
0.00535516787111952,18.6272150091527
0.00570171815715525,18.632518995559
0.00606421367431625,18.6377218668788
0.0064466278385979,18.6428362534412
0.0068530261589648,18.6478716181602
0.00728774467818257,18.652836080838
0.00775534582654694,18.6577348648533
0.00826073396870316,18.6625708241506
0.00880926351177364,18.6673447774442
0.00940685558022768,18.6720559194905
0.0100601047475626,18.6767021932008
0.0107806566195171,18.6813067356716
0.0115918603075631,18.685939972113
0.0125094005340358,18.6905960851832
0.0135571663063969,18.6952932106391
0.0147696906445178,18.7000694085505
0.0162063875186708,18.7050174054921
0.0180022045229764,18.7103986291486
0.0204748697615323,18.7168284183917
0.0220903114827223,18.720660715626
0.0237566141224518,18.7244930128603
0.0252171848792495,18.7279079185397
0.0264516884109208,18.7310090170518
0.0274794255974373,18.7339752644016
0.0282583665012315,18.7368132604614
0.0287703157574331,18.7395615960343
0.0290079675947383,18.7423423133778
0.0289281012131756,18.7453302728336
0.0283652889949409,18.7489898572423
0.027556044360817,18.7520014089611
0.0264886321488411,18.75501296068
0.0254124928569053,18.7575958267665
0.0243432749791006,18.7599355921117
0.0232726328264461,18.7621522374156
0.0222008966960835,18.7643010830023
0.0211312651774803,18.7664128063303
0.0200674624402094,18.7685073880976
0.0190131255103837,18.7705992470977
0.0179716426808935,18.7726995686712
0.0169461173698591,18.7748175356508
0.0159393673314347,18.7769610575856
0.0149539372052175,18.7791372341255
0.0139921117771475,18.7813526768748
0.0130559272538425,18.7836137514552
0.0121471875315616,18.7859267561852
0.0112674686493284,18.7882980994687
0.0104181322450574,18.7907344414249
0.00960033852634366,18.7932428305784
0.00880457436515698,18.7958667382206
0.00802015775294442,18.7986661264943
0.00725085625731626,18.8016614648353
0.00650051123220119,18.8048770565675
0.00577321244219408,18.8083410450697
0.00507326308764832,18.8120861746997
0.0044051312473272,18.8161506843517
0.00377334975880366,18.8205795823038
0.0031823425747006,18.8254267191428
0.00263615483865892,18.8307586123955
0.00213812418802261,18.83666149448
0.00169228046337845,18.8432258718282
0.00131555658195868,18.850264716051
0.00101179149616089,18.8579728083623
0.000811662981297021,18.864960321064
0.00062358671295837,18.8736906961227
0.000481086965765389,18.8827857990137
0.000370272397821882,18.8927857990137
0.000294498923723366,18.9027857990137
0.000243588119612983,18.9127857990137
0.00021012164334077,18.9227857990137
0.000188823625418878,18.9327857990138
0.000176054138777517,18.9427857990138
0.000169352220096478,18.9527857990138
0.000167068936789,18.9627857990138
0.00016810618053465,18.9727857990138
0.000171744324783423,18.9827857990138
0.000177531614321332,18.9927857990138
0.000185212881184505,19.0027857990138
0.000194683492661468,19.0127857990138
0.00020596080633752,19.0227857990138
0.000219169085981219,19.0327857990138
0.000234535858276896,19.0427857990138
0.00025239909948864,19.0527857990138
0.000273226051139407,19.0627857990138
0.000297646239613295,19.0727857990138
0.000326503800660472,19.0827857990138
0.000360938140593008,19.0927857990138
0.000402508539105989,19.1027857990138
0.000453389928782586,19.1127857990138
0.000512270110863331,19.1221486906693
0.00057946710871912,19.1307909774573
0.00065605532449533,19.1387638743771
0.000743317768624437,19.146119906671
0.000842721566264461,19.1529079664326
0.000955930139307594,19.1591734223317
0.00108482632024049,19.1649583895368
0.00123154103889939,19.170301972881
0.00139848700758461,19.1752404844246
0.00158839663355792,19.1798076507866
0.00180436802960587,19.1840348128897
0.00204991871530459,19.1879511173034
0.0023290520424819,19.1915836996127
0.00264633879611383,19.1949578696712
0.0030070209872917,19.1980973048568
0.00341714696465139,19.2010242540416
0.00388375067834387,19.2037597632435
0.00441509935121856,19.2063239428406
0.00502104751697552,19.2087363034045
0.00571356571873093,19.2110162117296
0.00648034644905795,19.2131155396398
0.00732963515150421,19.2150658727836
0.00827566337698027,19.2169029280342
0.00934049439462047,19.2186643623797
0.0105627564769219,19.2203978857466
0.0120442593091112,19.2222066929241
0.0141730566850756,19.2244332383178
0.0157658692592618,19.2259155821744
0.0174645716258134,19.2273979260309
0.0190279211701625,19.228725440428
0.0204144027575205,19.229919052818
0.0216570669094964,19.231049506613
0.0227593493550378,19.2321618963909
0.0237058101236667,19.2332947829085
0.0244633318124966,19.2344955841625
0.0249670615262646,19.2358480573906
0.0250402151663029,19.2376037356964
0.0245153966322528,19.2393192996931
0.0235036324128418,19.2410348636898
0.0223642735765607,19.2424845603513
0.0210908147761299,19.243889783247
0.0196824969750035,19.2453272831078
0.0181480289687536,19.2468375184557
0.0168791422433307,19.2480787627274
0.0156426514887841,19.249320006999
0.0144024498174289,19.2506388727192
0.0119648656891626,19.2535136736142
0.00988534092511638,19.2563683986428
0.00824331084839837,19.2589982616233
0.00690424130025071,19.2614883637157
0.0057352627494356,19.2640132117978
0.00470802144275375,19.2666039324738
0.00380335589317575,19.2692840105964
0.00300590336862577,19.2720767641088
0.00234108852999547,19.2748333067683
0.00180661537906381,19.2774370375996
0.00136660427091677,19.2799282548976
0.000994904330823554,19.2823524147494
0.00067345828610375,19.2847506526584
0.000389658561775655,19.2871598059985
0.000132349148264964,19.2896355486191
-0.000115862959552643,19.292342788431
-0.00031944250616613,19.2948408548402
-0.000502884307813972,19.2973389212494
-0.000637544689334573,19.2993379771221
-0.000747470652993671,19.3010809407408
-0.000847449776005295,19.3027565294108
-0.000944772234598432,19.3044721946634
-0.0010460967404238,19.3063478533192
-0.00116320949205505,19.3086285921488
-0.00136218638495668,19.312769877947
-0.00153420981958507,19.3166047990253
-0.00167190404879135,19.3198341167897
-0.00181074831128324,19.3232322749353
-0.00197171153625788,19.3273715858316
-0.00217825078582341,19.3331715511437
-0.00232434040294816,19.3382011363943
-0.00240697713773967,19.3427357701635
-0.00241364601288979,19.3467879696069
-0.00233573072708893,19.3504312321571
-0.00216654803405198,19.3537427548081
-0.00189934813511593,19.3568002052399
-0.00152724584594571,19.3596592152078
-0.00104196892498022,19.362367998895
-0.00042648520503735,19.36499509773
0.000358495364119045,19.3676487087318
0.00141729817196275,19.3705491345065
0.00280232126771822,19.3736961172583
0.0045378123128799,19.377061436826
0.0058585507400809,19.3793373346229
0.00731621732678057,19.3816132324198
0.00875464208524481,19.3836312150534
0.0101980030294181,19.3854403717044
0.0117086024475397,19.3871204666317
0.0133460421763503,19.3887241074769
0.015131908843535,19.3902534101221
0.017109321221601,19.3917261643516
0.0193034848890727,19.3931416784671
0.0217510588238905,19.394505725902
0.0244788610726588,19.3958167939
0.0275284952618249,19.3970798072156
0.0309401393800308,19.3982967809729
0.0347567964883404,19.3994693635205
0.0390353694953632,19.4006017177859
0.0438387792593761,19.4016971000098
0.0492406022308733,19.4027588672151
0.0553281565685943,19.40379057912
0.0622049154238046,19.4047958496071
0.0699982714310194,19.4057788599985
0.0788643914930792,19.4067441022299
0.0889979872930851,19.4076965722383
0.100647637251651,19.4086421032607
0.11413914075139,19.4095877936407
0.129915351582845,19.4105427945939
0.148608189683639,19.4115197310481
0.170580394603789,19.4125122727247
0.196067069291285,19.4135118990716
0.225782507977111,19.4145309421189
0.260719565679982,19.4155877531331
0.302470244318928,19.4167154740625
0.337720150941234,19.4175937940107
0.374528083326333,19.4184721139589
0.40724644663302,19.419247039245
0.435840772235185,19.4199467078436
0.460808459414371,19.4206060601085
0.482172009266711,19.4212498327561
0.499557570238781,19.421899743659
0.512117473464474,19.422580621636
0.518139930012601,19.4233298354905
0.514553603360866,19.4241430985579
0.499560177933309,19.4249764770347
0.471805713766889,19.4258452571039
0.429580795461961,19.4267604097575
0.371017822803202,19.4277308779286
0.328291912204631,19.4283323851472
0.281548246529708,19.4289338923658
0.239731737691824,19.4294438325149
0.203558492117908,19.429876376744
0.171584565695565,19.4302607355547
0.142839693873657,19.4306148903992
0.116719343409184,19.4309502644382
0.0927956314456522,19.4312753815935
0.0707082819817002,19.4315980744501
0.0500652289096644,19.4319279028232
0.0302145461634479,19.4322823787412
0.00877388410354476,19.4327277074268
-8.28566532150477e-05,19.4329394916346
-0.00811522596026052,19.4331512758423
-0.0145293372638188,19.4333375580439
-0.0204770250075076,19.4335275832725
-0.0264244428686117,19.4337388084823
-0.0321384415035584,19.4339678099768
-0.0374722907200112,19.434212578889
-0.0423452668276501,19.4344724652053
-0.0467160067346337,19.4347477233184
-0.0505658767968549,19.4350392625237
-0.0541278384058992,19.4353747184505
-0.0568470791732931,19.4357027507653
-0.0590531786688419,19.4360525216478
-0.0607632123504287,19.4364274722952
-0.0619914372516477,19.4368313893186
-0.0627511673644847,19.4372689502764
-0.0630532820618444,19.4377459995246
-0.0629045176537006,19.4382699570662
-0.0623048007970174,19.4388507995371
-0.0612418113305576,19.439502800174
-0.0596870683647746,19.4402450193091
-0.0575831045673774,19.4411067625529
-0.054808519144867,19.4421401211684
-0.0510339433157079,19.4434714126717
-0.0470225053887451,19.4448565315452
-0.0431573279406281,19.4461967508113
-0.039481031796537,19.4474961613445
-0.0360142011056512,19.4487568338073
-0.0327670054850988,19.4499795174447
-0.0297432860173727,19.4511642924412
-0.0269424801871919,19.4523109181514
-0.0243607211294667,19.4534190160084
-0.0219915936743955,19.4544881627258
-0.0198267336822664,19.4555179325278
-0.0178563420515223,19.4565079087195
-0.0160696389043442,19.4574576755902
-0.014455265245083,19.4583667966696
-0.0129058725841806,19.4592938430574
-0.0114176942867966,19.460244820028
-0.00999484395839336,19.4612216031024
-0.00864120123176819,19.4622264269128
-0.00736042974901221,19.4632619235772
-0.00615592641298704,19.4643312229316
-0.0050307688303932,19.4654380853218
-0.00398766050085634,19.4665870818495
-0.0030288735599727,19.467783845115
-0.00215618838517841,19.4690354282557
-0.00137082854410098,19.4703508370939
-0.000673388059955969,19.4717418526186
-6.37450733173021e-05,19.4732243702483
0.000459050231263467,19.4748207314445
0.000875512555839004,19.4764659526819
0.00119896238262557,19.4781654221483
0.00144476754143614,19.4799377632172
0.00162710471750678,19.4818067256898
0.0017594123151541,19.4838047318016
0.00185487684715232,19.4859791648228
0.00192722354074045,19.4884061970769
0.00199246698948533,19.4912280864403
0.00207510019734232,19.4948006716293
0.0021810843799388,19.4985878330446
0.00231223208779143,19.5024003986137
0.00246316207745021,19.5061735179697
0.002630151239541,19.5099638507482
0.00280996018948958,19.5138145342042
0.00300062727533427,19.5177609916315
0.00320161601402894,19.5218350296346
0.00341368948599927,19.5260673357389
0.00363870038075661,19.5304891135925
0.00387940377792467,19.5351334481878
0.00413938931432654,19.5400367441219
0.0044232232501411,19.545240065795
0.00473691435549061,19.5507905509331
0.00506100055238418,19.5562779343837
0.00539616756444073,19.5616721562322
0.00574450113436789,19.5669625485278
0.00610930682002816,19.5721547954171
0.00649444492612363,19.5772592191654
0.00690405880964689,19.5822857696547
0.00734250174819108,19.5872420816641
0.00781438155084406,19.5921331520048
0.00832465458555672,19.5969615775365
0.00887874179007378,19.6017279787339
0.00948264224212123,19.6064313825376
0.0101430413089057,19.6110696189453
0.0108738000344566,19.6156780935254
0.0116967739065746,19.6203134780362
0.0126286120224138,19.6249734176226
0.013694101788506,19.6296773935956
0.0149297561879761,19.6344677220344
0.0163999725783134,19.6394482084895
0.0182584246793777,19.6449221760818
0.0207330552531615,19.6512675978524
0.0223268524520353,19.6550210178648
0.0239602459904024,19.6587744378772
0.0253882784973027,19.6621335078871
0.0265957427831943,19.6652084923734
0.02759655796078,19.6681675108612
0.0283403944297203,19.6709875537936
0.0288174866616395,19.6737327219338
0.0290172961727767,19.6765283719832
0.0288889696360418,19.6795645613843
0.0282251017512308,19.6834129648783
0.0273964991612564,19.6863108963167
0.026337575002177,19.6892088277551
0.0252653150892913,19.6917416763433
0.0241963042092925,19.6940591122701
0.023125395688653,19.6962639120334
0.0220537400196163,19.6984061339924
0.020984693058353,19.7005144506491
0.0199219871313472,19.7026078663047
0.0188692304348453,19.7047002505469
0.0178297729389447,19.7068024548946
0.0168066785095541,19.7089234505588
0.0158027267231751,19.7110710110427
0.0148204255092889,19.713252151533
0.0138620254033228,19.7154734342658
0.0129295296201434,19.717741204479
0.0120247101364702,19.7200617644305
0.0111491137407669,19.7224415438669
0.0103040726679264,19.7248872477517
0.00949072069253097,19.7274059844417
0.00869628911470929,19.7300528717113
0.00791372689699305,19.7328778138313
0.00714679188865534,19.7359018337434
0.00639936054136808,19.7391497233448
0.00567555502382573,19.7426502053033
0.0049797043872908,19.7464367204842
0.00431629289774633,19.7505483481785
0.0036898519405946,19.7550311502361
0.00310477016479582,19.759940440329
0.00256501669997909,19.7653449135809
0.00207380824361399,19.7713342990245
0.00163774145514254,19.7779575192549
0.00126979894198054,19.7850665601271
0.00102852555841967,19.7913137507844
0.000800061562400739,19.7992434066817
0.000617361198617049,19.8078434134789
0.000473424147604713,19.8171635560846
0.00036486442664307,19.8271635560846
0.000290715001788195,19.8371635560846
0.000240949389178561,19.8471635560846
0.000208275091767686,19.8571635560846
0.000187521377841721,19.8671635560846
0.00017512814736815,19.8771635560846
0.000168690114853627,19.8871635560846
0.000166595544744577,19.8971635560846
0.000167771182971843,19.9071635560846
0.000171514483170454,19.9171635560846
0.000177385848872021,19.9271635560846
0.000185139045308669,19.9371635560846
0.000194676221898223,19.9471635560846
0.000206020132652518,19.9571635560846
0.000219299653722533,19.9671635560846
0.000234746649036457,19.9771635560846
0.000252703626631371,19.9871635560846
0.000265908215541427,19.9935817780423
0.000280426639358846,20
