ecg,time
0.000298332361514867,15.0025301857185
0.000253794789065613,15.0125301857185
0.000226303260583549,15.0225301857185
0.000210985454502867,15.0325301857185
0.000204462789345955,15.0425301857185
0.000204471929579068,15.0525301857185
0.000209544329461808,15.0625301857185
0.000218767165275406,15.0725301857185
0.000231623366071726,15.0825301857185
0.000247892681150566,15.0925301857185
0.000267595034763363,15.1025301857185
0.00029096357741828,15.1125301857185
0.000318441390784977,15.1225301857185
0.000350700792632436,15.1325301857185
0.000388688215887151,15.1425301857185
0.000433702083913724,15.1525301857185
0.000487517580570516,15.1625301857185
0.000552582935653622,15.1725301857185
0.000632330745867075,15.1825301857185
0.000725000597829176,15.1919149359505
0.000830650087222252,15.2005522375953
0.000950884306729671,15.2084991982889
0.00108766174830359,15.2158152635186
0.00124323738265853,15.2225553953003
0.0014201838172303,15.2287703503019
0.00162143671169506,15.2345071768542
0.00185035456559371,15.2398096068764
0.0021107962562945,15.2447183443684
0.00240720964283041,15.2492714267153
0.0027447660653392,15.2535046507593
0.00312952874294414,15.257452037252
0.00356869600390273,15.2611462951284
0.00407095780489033,15.2646195093109
0.00464706150670007,15.2679042118885
0.00531077762056342,15.2710350660938
0.0060777714560075,15.27404154874
0.00695599360329932,15.2769226427258
0.00794119735857481,15.2796612526686
0.00903761091865578,15.2822900727851
0.0102468982210853,15.2848506234653
0.0112765389526428,15.2868540998554
0.0123524957307736,15.2888575762454
0.0133067671930392,15.2906252681131
0.0141455242990635,15.2922379499705
0.0148798517047822,15.293773278389
0.0155049349199362,15.2952829834297
0.016004858762103,15.2968134282896
0.0163507825292869,15.2984220750826
0.0164881203338913,15.3002090690849
0.0163496099320404,15.3020018707087
0.0159400909033829,15.303799508495
0.0152377701807504,15.3057138719094
0.0143513913855378,15.3075523157992
0.013387472804331,15.3092621388777
0.0123603097960923,15.3109285223991
0.0112778944774615,15.3126025529167
0.0109032559302548,15.3131735514967
0.0105364074507803,15.3137445500767
0.00905682796758056,15.3162238110337
0.00772307626907239,15.3187635216207
0.00654412381118148,15.321337875791
0.00550042063647342,15.3239724686707
0.00457653095105425,15.3266920345113
0.00376045578852646,15.329520777786
0.00304281364581829,15.3324840943345
0.00241664870458175,15.3356100929321
0.00187779242933612,15.3389311898652
0.00142597791834003,15.342486051268
0.00106735799169484,15.3463222069552
0.000833188596928954,15.3501962738436
0.000734739771847214,15.3536965576409
0.000748579599882606,15.3569222956666
0.000865636618313123,15.3599313499364
0.00108688104826373,15.3628034724422
0.00142698780660709,15.3656450219435
0.00193113758402179,15.3686472509079
0.00263765511272054,15.3718503087281
0.00359721936049225,15.3753586382869
0.00481594524481998,15.3791073349047
0.00564015706930535,15.381328451384
0.00656443847569971,15.3835495678633
0.00752375397800496,15.3855707699984
0.00853620089485808,15.3874230733377
0.00964732135877043,15.3891757653051
0.0108928556523304,15.3908595740187
0.0122959097202349,15.3924788074802
0.0138805704071916,15.3940373601959
0.0156728035325589,15.3955390097393
0.0176935393728616,15.3969822155136
0.0199697117365333,15.3983695865481
0.0225281119667866,15.3997023150861
0.0254013500232544,15.4009833941409
0.0286252755366085,15.4022154475785
0.0322428759694088,15.4034019298504
0.0363030879948175,15.4045460535474
0.0408640445765986,15.4056513746176
0.0459936800810578,15.4067213923815
0.0517722193425939,15.4077596575382
0.0582958096795717,15.4087699166953
0.0656800139311815,15.4097560539694
0.0740656189966968,15.4107222262183
0.0836270546008517,15.4116730442745
0.0945838887843629,15.4126137378448
0.107218981365138,15.4135504927465
0.121907320618929,15.4144909685944
0.13916569400407,15.4154452247375
0.159745687130203,15.4164274901027
0.183606948019098,15.4174130220816
0.211324143509515,15.4184096733315
0.24371172004354,15.4194312098782
0.281946491930949,15.4204994884188
0.327049712803819,15.421633693057
0.36934061236231,15.4226254407937
0.404242122197096,15.4234262148685
0.434307540698379,15.424130791591
0.460591668902003,15.4247871033037
0.483287864711602,15.4254227813376
0.502135435605451,15.4260600628001
0.516423527610045,15.4267229520448
0.524690306815136,15.4274459508938
0.523958354770736,15.4282496632139
0.511961611509374,15.4290710452152
0.487422796274041,15.4299268426408
0.448636446736238,15.4308295671654
0.393669191306145,15.4317879033358
0.34841412563889,15.432445016098
0.297914522452737,15.4331021288603
0.253024981674079,15.4336478793537
0.214760878783859,15.4341000010722
0.181265654774239,15.4344954377226
0.151322930924432,15.4348559652431
0.124213456152737,15.4351946425366
0.0994545681234713,15.4355206550895
0.0766644296672366,15.4358418718838
0.0554643467289969,15.4361670346143
0.0353119468121551,15.4365101515332
0.014734842212197,15.4369114193097
0.000669993123670275,15.4372299802448
-0.00667005053076825,15.4374165434103
-0.0133789091380526,15.4376031065758
-0.0192636850542615,15.4377825386171
-0.0252700468200793,15.4379849149604
-0.0311223165915226,15.4382061997572
-0.0366382001597061,15.4384437229893
-0.0417157323415093,15.4386964050861
-0.0463009066619977,15.4389642059318
-0.0503683999744569,15.4392478089294
-0.0539053473481875,15.439548464683
-0.0569786987325016,15.4398768154458
-0.059418427619006,15.4402150510708
-0.0613527490804,15.4405768495809
-0.0627970826568297,15.440965805172
-0.0637654291833074,15.4413861827609
-0.0642699833252706,15.4418432855694
-0.0643195252564206,15.4423438008443
-0.063917444618407,15.442896329461
-0.0630569973269345,15.4435134271956
-0.0617171609139879,15.4442116736657
-0.0598544765611079,15.4450152638223
-0.0573803748200381,15.445964273736
-0.0540857422013666,15.4471414319692
-0.0499967685664372,15.4485525652199
-0.0460252251484034,15.4499146301715
-0.042227251447699,15.4512345763237
-0.038631012458958,15.4525153520344
-0.0352509161087366,15.4537581343334
-0.0320936063862024,15.4549632027243
-0.0291605918007041,15.4561303972761
-0.0264496170218885,15.4572593597036
-0.0239555317356637,15.4583496586365
-0.0216709427914045,15.4594008505497
-0.0195867600866664,15.4604125029768
-0.0176926768996611,15.4613841942173
-0.0159775973372704,15.4623154973316
-0.0143895343008981,15.4632299731773
-0.0128597744800613,15.46416776578
-0.0113930443607422,15.4651302954279
-0.00999330604998804,15.4661196166447
-0.00866433460487823,15.4671381350794
-0.00740966365759736,15.4681886967762
-0.00623253346347942,15.4692747017184
-0.00513583644884341,15.4704002561784
-0.00412206017875756,15.4715703817651
-0.00319322719406639,15.4727913099426
-0.00235083044469111,15.4740709101547
-0.00159576176767564,15.4754193360169
-0.000928228461854547,15.4768500467473
-0.000347648097235517,15.4783815185104
0.000138267654019855,15.4800051056845
0.000521738125519855,15.4816727946064
0.000819566295396864,15.4834028878785
0.0010465819966067,15.4852158514022
0.00121670613958344,15.4871388587001
0.0013433678019287,15.4892100778254
0.00144013153887217,15.4914875093346
0.00152187573893843,15.4940700291854
0.00160797068126035,15.497162690908
0.0017202296177788,15.5008960139369
0.00185582093308125,15.5046945354918
0.00201411956028739,15.5084989011338
0.00219248814493426,15.5123540352113
0.00238713023506202,15.5162971079989
0.00259495110324148,15.5203608621538
0.00281427244012128,15.5245763105259
0.003044944315946,15.5289745933146
0.00328820602926492,15.5335884425909
0.00354650619533916,15.5384536009429
0.00382342836482813,15.5436101318299
0.00412387484474276,15.549103828689
0.00444632158616742,15.5548407266981
0.00476936893176469,15.5603765351202
0.00510246831283369,15.5658315838477
0.00544597112239199,15.5711620203815
0.00580443391925241,15.5763947260712
0.0061814272110519,15.5815381257058
0.00658096427550023,15.5866040535134
0.00700703272261842,15.5915995523831
0.00746386505149528,15.5965296007438
0.00795601835270177,15.6013970074852
0.00848850003986608,15.6062028598555
0.00906686921471864,15.6109467095512
0.00969733853559643,15.6156268463024
0.0103868827127104,15.620240722152
0.0111570166267636,15.6248634529672
0.0120247681100602,15.6295086682464
0.0130102143977165,15.634185445754
0.0141418455792896,15.6389197424333
0.0154645842969172,15.643772324006
0.0170659249155515,15.6488987071188
0.0192052339790149,15.6548395572433
0.0210141005097267,15.6593289471495
0.0229390004222064,15.6638183370557
0.0245445985692103,15.6675242801335
0.0258794708802914,15.6707502382899
0.027000988761705,15.6737631414666
0.0279041147557364,15.6766850799185
0.0285363548615367,15.6794640116135
0.0289004016886321,15.6822168255928
0.0289731525687829,15.6850852470878
0.0286687161179257,15.6883379199933
0.0276796773371169,15.692642593241
0.0267941614490048,15.6952793852307
0.0257429338873057,15.6979161772205
0.0246757224907952,15.7003173969542
0.0236060630914556,15.7025708799871
0.0225344492887832,15.7047419770907
0.021463699507042,15.7068671255554
0.0203974838777647,15.7089691830001
0.019339501504643,15.7110641689242
0.0182932355492887,15.7131642404568
0.0172618891173719,15.7152792074913
0.0162483778142685,15.7174173964184
0.0152553397033002,15.7195861880317
0.0142851467545762,15.7217923852586
0.0133399215392686,15.7240424690239
0.0124215456998747,15.7263428116913
0.0115316723193577,15.7286998463888
0.0106717394042516,15.7311202130351
0.00984297437746788,15.7336109220566
0.00904528621315456,15.7361832502436
0.00825774106289154,15.7389251892969
0.0074841424181191,15.7418558653486
0.00672824200243227,15.7449984332734
0.00599404234182076,15.7483796724805
0.00528577387711679,15.7520306652233
0.00460784708033497,15.7559876500803
0.00396477356893867,15.760293120888
0.00336102601708505,15.764997492014
0.00280078475029422,15.7701622815182
0.0022876380413583,15.7758656969987
0.00182429861334952,15.7822123204674
0.00142566273850644,15.7890907546969
0.00110141327101672,15.7965043377225
0.000840480827593813,15.8048770064461
0.000662298299586527,15.8126752837582
0.000504726504606374,15.8219614096026
0.000384626478953976,15.8319614096026
0.000301793345281334,15.8419614096026
0.000245396639318819,15.8519614096026
0.000207523877073335,15.8619614096026
0.000182508436341758,15.8719614096026
0.000166413559942385,15.8819614096026
0.000156561524836562,15.8919614096026
0.00015114547074271,15.9019614096026
0.000148947205082785,15.9119614096026
0.000149148506029038,15.9219614096026
0.000151208970608987,15.9319614096026
0.000154786314356882,15.9419614096026
0.000159683287606343,15.9519614096026
0.00016581220845192,15.9619614096026
0.000173172115794567,15.9719614096026
0.000181835591278499,15.9819614096026
0.000191943445790294,15.9919614096026
0.000203706334686305,16.0019614096026
0.000217413214452046,16.0119614096026
0.000233447503444604,16.0219614096026
0.000252313000232588,16.0319614096026
0.000274673289039073,16.0419614096026
0.000301410956849403,16.0519614096026
0.000333717244956256,16.0619614096026
0.000373230236736103,16.0719614096026
0.000420918060267062,16.0817138759008
0.000475806797304172,16.0907421731623
0.000538750545693668,16.0990816590345
0.000610837410300943,16.1067840852025
0.000693319319053911,16.1138983749431
0.000787618349527174,16.1204701109166
0.000895344451337992,16.1265417348589
0.00101831866578343,16.1321527550551
0.00115860028902231,16.1373399382325
0.00131851793892009,16.1421374901444
0.00150070527234478,16.1465772301593
0.00170814314048567,16.1506887616739
0.00194420955060493,16.1544996368316
0.00221273987790633,16.1580355179828
0.00251810109409822,16.1613203402819
0.00286528435046688,16.164376478726
0.00326002369589656,16.1672249223818
0.00370895143486552,16.1698854636427
0.00421980767570293,16.1723769146809
0.00480173262935614,16.174717368518
0.00546569020682589,16.1769245374022
0.0062076574927795,16.1789722895727
0.00702675713323385,16.1808633792801
0.00793379275860168,16.1826296979479
0.00894476885223047,16.1843029256198
0.0100849043614664,16.1859177399278
0.0113996787175252,16.187520741712
0.013062725724881,16.1892680476079
0.0155839539317068,16.1915299531019
0.0172553798776989,16.1928713049848
0.0190154313795347,16.1942126568677
0.0206205593119052,16.19541792966
0.0220574449970073,16.1965244818183
0.0233485012685575,16.1975881580107
0.024490589878006,16.1986484452677
0.0254625182731159,16.1997439583221
0.0262220051890489,16.200928746493
0.0266802886686005,16.2023147363812
0.0264940329640311,16.204403338039
0.0257976581416248,16.2058748771302
0.0247406698434106,16.2073464162214
0.0235225794371072,16.2087141671025
0.0221470019290031,16.2100891811154
0.0206224081259303,16.2115212651536
0.0189568629795533,16.2130483105169
0.0178735576606494,16.2140433346389
0.0168155585263005,16.2150383587609
0.0154980940254324,16.2163427752489
0.0128869707691254,16.2192041707901
0.0105571702624532,16.2221806574586
0.00874716438666126,16.2248928895595
0.00730548912103848,16.2274097016545
0.00607518193663921,16.229905640761
0.00499720022378475,16.2324560666416
0.00404933037113328,16.2350863079745
0.00321477116776242,16.2378193319393
0.00247965665983743,16.2406790437837
0.0018699730540155,16.2434996448497
0.00137412885596784,16.2462073287688
0.000954058929399709,16.2488930383064
0.000587905720496579,16.2516212892806
0.000273058579821684,16.254340568312
1.3703101921937e-05,16.2569071031996
-0.000198629369705749,16.2592750303002
-0.000377090755938879,16.2614821358601
-0.000531678597162942,16.2635743987089
-0.000669251686086253,16.2655901617531
-0.000795016435651599,16.267567415848
-0.000913883301334233,16.2695582735701
-0.00103255988596199,16.2716648925413
-0.00116948688760961,16.2742388490045
-0.00125577503524668,16.2759348542157
-0.00133953322850259,16.2776308594269
-0.00141316148306861,16.2791580535848
-0.00148042816773109,16.2805794138109
-0.00154632889428532,16.2819927937112
-0.0016150221287306,16.2834845491978
-0.00169250785297338,16.2851853805452
-0.00179556800061338,16.287469115888
-0.00195951771246315,16.2911296734983
-0.00210320585941905,16.2943462095836
-0.00223500358219098,16.2972954252083
-0.00238410633894164,16.3006319137481
-0.00258492695159516,16.305149229492
-0.00282874655624493,16.3108192632049
-0.00302119469303476,16.3159041866821
-0.00314483433321585,16.3204042951747
-0.00319145444931223,16.3245627411743
-0.00314707541213865,16.3284333028952
-0.00300494857310074,16.3319362027579
-0.00276848792908443,16.335067386923
-0.00244089913783264,16.3378950465748
-0.00202104582607914,16.3404940263386
-0.00149859536215234,16.3429492779984
-0.000845187506199739,16.3453697754035
2.18116995788801e-05,16.3479660217537
0.00117526104277295,16.3508369649015
0.00238749525891083,16.3534895430312
0.00343890604031794,16.3556428300324
0.00462569825928542,16.3579887277561
0.00578995564983702,16.3602158927316
0.00701219474510896,16.3624430577071
0.00812091855320069,16.3643228842346
0.00926080377639719,16.3660868245077
0.0104621267307563,16.3677532891362
0.0117908451729648,16.3693815912497
0.0132670255943974,16.3709610383735
0.0149252243910955,16.3724978984558
0.0167806998034957,16.3739801284844
0.018866279095944,16.3754124280009
0.0212049309693785,16.3767913785021
0.0238183699751226,16.3781141951946
0.0267440199316424,16.3793859122076
0.0300181676616005,16.3806087688971
0.0336828953880362,16.3817855924008
0.0377853076354815,16.3829190384701
0.0423846224389395,16.3840130756952
0.047548386409686,16.3850711875987
0.0533560196446972,16.3860968766708
0.0599017280531559,16.3870937198592
0.0672980218179462,16.3880653920991
0.0756815261240984,16.3890158408464
0.0852191901518429,16.3899492759028
0.0961184596514358,16.3908703597237
0.108641713238467,16.3917844185318
0.12312843864944,16.3926977826264
0.140030356394158,16.3936183125077
0.159971828343846,16.3945563494002
0.183527404773907,16.3955138631542
0.210797345513629,16.3964752424412
0.242489215177328,16.3974504984952
0.279560497466435,16.3984544954111
0.323506196918082,16.3995144209592
0.360631511842997,16.4003382042977
0.399482726226804,16.4011619876362
0.433861620521823,16.4018846831605
0.463819327733236,16.4025351873963
0.490049903771255,16.4031501262771
0.512635704822081,16.4037548073941
0.531193061662951,16.4043721529571
0.544779691359532,16.4050308282412
0.551300165879575,16.4057814865793
0.547200103139332,16.4065686579396
0.531069337362672,16.4073856598968
0.501339644670182,16.40824984216
0.45593648995228,16.4091738317335
0.394754681447542,16.4101348286838
0.348120510378368,16.4107588502328
0.296982267764059,16.4113828717818
0.251812140248349,16.4119044461745
0.213301763365623,16.4123403337149
0.179583291682845,16.4127240564721
0.149447307255886,16.413075630104
0.122169593003766,16.4134073241971
0.0972554363267812,16.4137280265205
0.0743021432008028,16.4140457024658
0.0528869048522728,16.4143698639782
0.0323312284165469,16.4147176102995
0.0102433795670643,16.4151519977676
0.000886177648418838,16.4153639315723
-0.00758264863662315,16.4155758653771
-0.0141314202160998,16.4157565082947
-0.0201810397860919,16.415939865478
-0.0262586266224798,16.416144326492
-0.0321179518933988,16.4163664359328
-0.0376023990484426,16.4166041202935
-0.0426250534914966,16.4168566653834
-0.0471408077692281,16.4171242638235
-0.0511298078049157,16.4174077633289
-0.0545877007305345,16.417708547389
-0.0575948461834365,16.4180391055277
-0.0599518541829222,16.4183783471168
-0.0618022478546353,16.4187417606078
-0.0631621212506371,16.4191331497992
-0.0640456129648972,16.4195570272062
-0.0644646085008562,16.420019031832
-0.0644270228515166,16.4205263237557
-0.0639345859908427,16.4210882057656
-0.0629769363070065,16.4217186337326
-0.0615277916364429,16.4224358459432
-0.0595331652444184,16.4232676689923
-0.0568793779582252,16.4242627880893
-0.0532680242293128,16.4255347119929
-0.0491726142093013,16.4269377700824
-0.0452054538985467,16.4282958770362
-0.0414170249113358,16.4296137388604
-0.037832329492921,16.4308935418642
-0.0344643999890632,16.4321360418862
-0.0313192564759772,16.4333412745134
-0.0283981238709864,16.43450893289
-0.0256986259211022,16.4356385667885
-0.023215570701419,16.4367296852881
-0.0209415610557365,16.4377818051938
-0.0188675187284478,16.4387944671186
-0.0169831530442652,16.4397672310285
-0.0152773820929602,16.4406996577593
-0.0137019337114212,16.4416132601618
-0.0121848603323422,16.4425501544991
-0.0107309309279402,16.4435117325433
-0.00934412779662858,16.4445000368389
-0.00802825271238696,16.445517458652
-0.00678687319922125,16.4465668265928
-0.00562327177586863,16.4476515190567
-0.00454039313828599,16.4487756150127
-0.00354078940528948,16.4499441007594
-0.00262656320210923,16.4511631609555
-0.00179930318315733,16.4524406012117
-0.00105990863545246,16.4537864850737
-0.000408726954055961,16.4552141392065
0.000154591247171494,16.4567418338871
0.000623263120162696,16.458364117719
0.000988799594786169,16.4600299174024
0.00126784697824676,16.4617575344475
0.00147501170727635,16.4635672550663
0.00162391192162776,16.4654859749969
0.00172754110000965,16.4675513895993
0.00179878716149595,16.4698206075541
0.00185134969241825,16.4723905273117
0.00190208693586497,16.475460337197
0.001971789810464,16.4791932984094
0.00206727619318826,16.4831121251978
0.00220336611566477,16.48752343017
0.0023848020791764,16.492517050821
0.00257849026093655,16.4973903462326
0.00278277964811546,16.5023209100731
0.0029689637546894,16.5067146764026
0.00314007455411252,16.5106920543084
0.0033064921749361,16.5144997489685
0.00347359033334028,16.5182487915712
0.00364503480612018,16.5220034687682
0.0038238738211168,16.5258091353668
0.00401295661798145,16.5297021362676
0.00421515440533964,16.5337143330098
0.00443353900967885,16.5378760871254
0.00467152680965747,16.5422179152739
0.0049330510509286,16.5467717997019
0.00522282959165934,16.551572542363
0.0055468177473819,16.5566591532031
0.00590586246616912,16.561973065692
0.00627807298835852,16.5671393193435
0.00667289105229514,16.5722600993123
0.00709027288176736,16.5772902181737
0.00753507486230048,16.5822433888726
0.00801189812367137,16.5871219708659
0.00852634417393951,16.5919322107147
0.00908445252220736,16.5966772596552
0.00969282077390768,16.6013581285115
0.0103586564273455,16.6059738656727
0.0111009575973242,16.6105876828514
0.0119379696575303,16.615225361597
0.0128883969081958,16.6198919822357
0.0139787345424105,16.6246095114783
0.0152492682179483,16.6294283644369
0.0167742496211117,16.6344744602758
0.018748484211956,16.6401442121242
0.020680177735986,16.6450585181373
0.0222975557053462,16.64888676248
0.0239581781939234,16.6527150068227
0.0253881126215353,16.6560868305124
0.0265953136234165,16.6591671414385
0.0275958802499295,16.6621294547409
0.0283402596310224,16.6649533847112
0.0288180146896456,16.6677011249497
0.0290188006429082,16.6704979029719
0.0288922996228739,16.6735327072939
0.0282345208226823,16.6773683175246
0.0274059688206611,16.6802766950676
0.0263453340522048,16.6831850726106
0.0252720171521898,16.6857235882042
0.0242024656452066,16.688044426042
0.0231312588902413,16.690251655043
0.0220594657143202,16.692395749095
0.0209904219203627,16.6945055334174
0.0199278573841077,16.6966000734857
0.0188753855990998,16.6986932536602
0.0178363648487137,16.7007959125916
0.0168138695578315,16.7029169857264
0.0158106910125253,16.7050641902737
0.0148293492300801,16.7072444645515
0.0138721073088882,16.7094642700518
0.0129409809835446,16.7117298240534
0.0120377522059445,16.7140472741858
0.011163978722479,16.7164228530637
0.010321001717362,16.7188630240543
0.00950995916078936,16.721374606932
0.00871622109486468,16.7240187965266
0.00793438515049511,16.7268404618235
0.0071681862742968,16.7298605896414
0.00642149920329405,16.733103841473
0.00569844320101027,16.7365987827852
0.0050033456533362,16.7403786526906
0.00434068515868782,16.7444823075781
0.00371498686095961,16.7489555542247
0.00313063254494125,16.7538534367143
0.00259158819798557,16.7592443694797
0.00210107656980952,16.7652177932816
0.00166499497858453,16.7718347223379
0.00129733891610638,16.7789363392557
0.000993717421027653,16.7866184443009
0.000813060618207615,16.7928992916482
0.000625831353949678,16.8015948884536
0.00048250607230598,16.8108754572064
0.000374387839224966,16.8208754572064
0.000301095420840402,16.8308754572064
0.000252735617314979,16.8408754572064
0.000222143586236659,16.8508754572064
0.000204175036929349,16.8608754572064
0.000195252923559053,16.8708754572064
0.000192969194683368,16.8808754572064
0.000195746788273655,16.8908754572064
0.000202586566429623,16.9008754572064
0.000212897026303058,16.9108754572064
0.000226387766621361,16.9208754572064
0.000243006776115465,16.9308754572064
0.000262907946167488,16.9408754572064
0.000286441963818295,16.9508754572064
0.000314168781897639,16.9608754572064
0.000346893750123274,16.9708754572064
0.000385733584487496,16.9808754572064
0.000432224180391807,16.9908754572064
0.000488491865630852,17.0008754572064
0.0005575265997469,17.0108754572064
0.000637606718279928,17.0202371526736
0.000728955795236056,17.0288540528227
0.000832994113896477,17.0367828250975
0.000951439531746165,17.0440815777312
0.00108626446053346,17.05080397649
0.00123971298544665,17.0569995068854
0.00141433602130588,17.0627139042369
0.00161303669198253,17.0679895110854
0.00183912677459449,17.0728655771366
0.00209639174632765,17.0773785649442
0.00238917855800351,17.0815624605038
0.00272250297839473,17.0854490799487
0.0031021939458495,17.0890683750199
0.00353509063712244,17.0924488009539
0.00402932268417437,17.0956177830617
0.00459473134454459,17.0986023252472
0.00524352763137454,17.1014299027829
0.00598253238438736,17.1041006504148
0.00681296294145595,17.1066076963732
0.00775851640169578,17.1090130391936
0.00886541521826825,17.1114036581804
0.0102552991884159,17.1139648798801
0.0116531072134267,17.1162164271521
0.0128664484463113,17.1180063677816
0.0141391007680771,17.119796308411
0.0152681089588328,17.1213702212996
0.0162652145114526,17.1228071098665
0.0171452863367919,17.124178719817
0.0179036798131796,17.1255328722148
0.0185225499979484,17.1269134462445
0.0189686262928939,17.1283768369074
0.019176893048597,17.1300265904646
0.0189552235686981,17.1321986101576
0.0183451775638694,17.1340576641908
0.0174126732910818,17.1359167182239
0.0163892355754343,17.1375512359899
0.0152802042199455,17.139123255376
0.0140897067474192,17.1407029042568
0.0128266313570105,17.1423290220828
0.0115406643557837,17.1440351968922
0.0101019127476171,17.1461245349139
0.00852062366650971,17.1487112165483
0.00717368719130651,17.1512378193837
0.00621052802328504,17.1532894871967
0.00544349758023231,17.1551129611622
0.00477072236118227,17.156885989422
0.00414305001821428,17.1587216436381
0.00351966705949207,17.1607610046403
0.00283130824828933,17.1633334719003
0.00214047094555478,17.16636581141
0.00154067765273898,17.1695031360097
0.0010611256803651,17.1724791157532
0.000627282397871177,17.1756637729853
0.000200839642739954,17.1794261632831
-0.000191696553002155,17.1836870477582
-0.000535740615465506,17.1883978477312
-0.000812317469670128,17.193394676529
-0.00098252787940134,17.197834294406
-0.00106662687939467,17.201873149843
-0.00106874704689724,17.2055436474723
-0.000988753553068745,17.2088987119935
-0.000822940730946432,17.2119977138036
-0.000563447620692612,17.2149079061492
-0.000195351141859004,17.2177098866648
0.000312616664126515,17.2205219278696
0.00103822042559937,17.2235691300879
0.00201305761913136,17.2268023119395
0.00330399154447384,17.2303326172349
0.00445427692039212,17.2330580594107
0.0057532127690271,17.2357835015866
0.00693162683896922,17.2379665950639
0.00809229566442222,17.2398682796243
0.00933052779904585,17.2416534043915
0.0106720028014987,17.2433428607176
0.0121532534520437,17.2449630954197
0.0138040719815036,17.2465241323177
0.0156459330627316,17.2480251469738
0.0177071973976201,17.2494702691397
0.0200149969454386,17.2508608836502
0.0225931267108341,17.2521958397079
0.0254781600475859,17.2534798740711
0.0287065172269463,17.2547153447904
0.0323181603028477,17.2559044184392
0.0363643746712762,17.2570511224764
0.0409025449786891,17.2581587847373
0.0459998376304193,17.2592308125646
0.0517345933338372,17.2602705536945
0.0582021207767679,17.2612818525255
0.0655160003799323,17.2622685529361
0.0738141968270813,17.2632347505091
0.0832668622586442,17.2641849423765
0.0940870348204768,17.2651241778844
0.106548883042173,17.2660584743498
0.121013256069511,17.2669951678665
0.137973090287685,17.2679437607325
0.15813664192285,17.268917478675
0.181638954551543,17.2698992622551
0.20891486953357,17.2708902164202
0.240741901990869,17.2719031373413
0.278220918714657,17.2729578235493
0.323056216057129,17.2740891246355
0.357763341881331,17.2749043704087
0.393569001136129,17.2757196161818
0.4254195154175,17.2764483465793
0.453306967448625,17.2771161270717
0.477589712377921,17.2777536698742
0.498175538364663,17.2783843484161
0.514551467028983,17.2790308012792
0.525616165653592,17.2797221820723
0.528995110321986,17.2805098856706
0.521560269758393,17.2813200283679
0.502090446363504,17.2821592020559
0.469013420615378,17.2830419279314
0.42042239670693,17.2839781589408
0.372717741551765,17.2847190405745
0.317760951224022,17.2854599222081
0.269204635471208,17.2860584378849
0.228576729855878,17.2865389914509
0.193451735362709,17.2869506664718
0.162265173962567,17.2873210684661
0.134145152004701,17.287665679552
0.108540178343124,17.287994694714
0.0850406576557247,17.2883162220832
0.0632755829092428,17.288638415969
0.0427871358865637,17.2889726286982
0.0226231995283143,17.2893444416578
0.007876932665663,17.2896558621273
-0.000573832423830342,17.2898554602859
-0.00827422915889979,17.2900550584446
-0.0147300037242501,17.2902388508504
-0.0207099410044302,17.2904260013999
-0.0267057731875525,17.2906344234188
-0.0324771193325754,17.290860632989
-0.0378720724775565,17.2911025641348
-0.042806741876061,17.2913595224658
-0.0472378638193683,17.2916317257377
-0.0511466431269815,17.2919200500892
-0.0545275799709435,17.2922265428199
-0.057342445778985,17.2925489240352
-0.0596426534265268,17.2928928815521
-0.0614421548347188,17.2932614344364
-0.0627553662505652,17.2936582498174
-0.0635959958020043,17.2940878614105
-0.0639755109317193,17.29455592895
-0.0639014455319123,17.2950696270395
-0.0633751219945246,17.2956383507309
-0.0623859265879807,17.2962759953446
-0.0609077419838763,17.2970007327263
-0.0588874211103187,17.2978401885527
-0.0562139483529486,17.2988424127593
-0.0525996477373906,17.3001179960396
-0.0485396978709007,17.3015141800837
-0.0446143203110928,17.302864793159
-0.0408718386048844,17.3041744883162
-0.0373357424038242,17.3054455577709
-0.0340179639220558,17.3066788446342
-0.0309236045293964,17.3078744583443
-0.0280530871091825,17.3090321555146
-0.0254033389849649,17.3101515403121
-0.0229685803660127,17.3112321675006
-0.0207409387140803,17.3122735906335
-0.0187109733748553,17.3132753775501
-0.0168681405053365,17.3142371051086
-0.015201206947715,17.3151583397173
-0.0136326971171602,17.3160784617454
-0.0121238769162158,17.3170221741547
-0.0106791881991744,17.3179911035812
-0.00930255876650368,17.3189873837034
-0.00799771694391017,17.3200135198231
-0.00676813902890653,17.3210724827953
-0.00561699718224637,17.3221678308877
-0.00454710501673243,17.3233038741383
-0.0035608607634787,17.3244859012681
-0.00266018745651148,17.3257205016905
-0.00184646883214717,17.327016037654
-0.00112047833277584,17.3283833643985
-0.000482296122134968,17.3298369834944
6.87961482967586e-05,17.3313970079585
0.000519358969283541,17.3330297861452
0.000871813471508812,17.3347111893389
0.00114223624349465,17.336459556724
0.00134511929187481,17.3382967436423
0.00149411043856634,17.3402521144336
0.00160245304698463,17.3423676278193
0.00168366191059444,17.3447085889747
0.00175287741266322,17.3473906131362
0.00183092563168969,17.3506717717294
0.00193325044983278,17.3544165464307
0.00205922699513083,17.3581860547376
0.00220788173314557,17.3619713792811
0.00237596657080925,17.3658152273153
0.00255970824430048,17.3697531872403
0.00275628026734767,17.373817163554
0.00296431320651929,17.3780377878922
0.00318392128092942,17.3824461554017
0.0034165379484941,17.3870752135625
0.00366474545742562,17.3919611881318
0.00393223413731316,17.3971449128272
0.0042240386823673,17.4026732854692
0.00453661253435348,17.4084086368216
0.00485147096261487,17.4139488929558
0.00517703965419706,17.4194011885618
0.00551405200624074,17.424729318698
0.00586688349968468,17.4299594037262
0.00623906067028499,17.4351007124899
0.00663449769044783,17.4401648880221
0.00705710917184453,17.445158910091
0.00751106355002954,17.4500876373747
0.00800086912603107,17.454953800618
0.00853149499687786,17.4597584128836
0.00910847286401411,17.464500974984
0.00973799675705941,17.4691797402816
0.0104270312644073,17.4737921463893
0.0111975369346289,17.478415826744
0.0120662057283652,17.4830617289054
0.0130533289464845,17.4877396667322
0.0141876449857964,17.4924760968491
0.0155146803869026,17.4973331793573
0.0171237428356237,17.5024705939092
0.0192841327664214,17.5084515900501
0.0210780598491523,17.5128940062143
0.0229837030013248,17.5173364223784
0.0245807775531291,17.521025754801
0.0259105322822546,17.5242454613077
0.0270275505721539,17.5272559622478
0.0279249271973707,17.5301740456043
0.028551720177476,17.5329514372735
0.0289102904055434,17.5357050721654
0.0289767745547762,17.5385776182016
0.0286630474894706,17.5418428251957
0.0276654136390984,17.5461419939743
0.0267777495731504,17.5487720678004
0.0257261040770525,17.5514021416265
0.0246587009286403,17.5537995102741
0.0235887861898156,17.5560510233019
0.0225169504866093,17.5582211130276
0.0214460444299833,17.560345832242
0.02037974085137,17.5624478632933
0.019321733349327,17.5645431354694
0.0182754973973059,17.5666437573253
0.0172442281201378,17.568759513716
0.0162308331551314,17.5708987217173
0.0152379429970032,17.5730687639941
0.0142679222511988,17.575276455096
0.0133228862880979,17.5775282967847
0.0124047101339917,17.5798306906588
0.0115150401033768,17.5821901101487
0.0106553082879523,17.5846132455051
0.00982673622125786,17.5871071718925
0.00902917452041156,17.5896834312566
0.00824183327015071,17.5924297788964
0.00746851955893737,17.5953654248707
0.00671298979014794,17.5985136239642
0.00597925046874321,17.6019012804856
0.00527153506460136,17.6055596342436
0.00459425556774296,17.6095251263665
0.00395192294902335,17.6138405170144
0.00334900484464693,17.618556593826
0.00278967116452577,17.6237354242044
0.00227749166597057,17.629456095037
0.001815156670656,17.6358246119998
0.00141827889187139,17.6427156637716
0.00110022482475869,17.650144040463
0.000883410990005442,17.6570848156921
0.0006853411610735,17.6654767206276
0.000530973265188918,17.6743636302333
0.000407352279379269,17.6843636302333
0.000322609153076736,17.6943636302333
0.000265440504585202,17.7043636302333
0.000227597516106928,17.7143636302333
0.000203197536418668,17.7243636302333
0.000188171947044249,17.7343636302333
0.000179764504546516,17.7443636302333
0.000176124201534617,17.7543636302333
0.000176013264116584,17.7643636302333
0.000178613798629878,17.7743636302333
0.000183403604273114,17.7843636302333
0.000190076088508761,17.7943636302333
0.000198488296151506,17.8043636302333
0.000208628232433157,17.8143636302333
0.000220596841451464,17.8243636302333
0.000234602279126875,17.8343636302333
0.00025096565308133,17.8443636302333
0.000270138895255541,17.8543636302333
0.000292737292906088,17.8643636302333
0.000319591837510034,17.8743636302333
0.000351830645613008,17.8843636302333
0.000391005565534927,17.8943636302333
0.000439024251327635,17.9043130183664
0.000494242315833598,17.9135269455599
0.0005574775909278,17.922034459137
0.000629818859069847,17.9298888488027
0.00071252566722829,17.9371406625719
0.00080702945607452,17.9438369306518
0.000914949521369457,17.9500213889878
0.00103811626566922,17.9557347125785
0.00117859881225067,17.9610147270473
0.00133873676411322,17.965896603589
0.00152117636176453,17.9704130447342
0.00172891345516874,17.9745944641963
0.00196534408835081,17.9784691603782
0.00223432599534785,17.9820634856759
0.00254025412621238,17.9854020163262
0.00288815537609133,17.9885077274228
0.00328381044474695,17.9914021762212
0.00373391376972437,17.9941057019981
0.0042462905358714,17.9966376562346
0.00483020110424539,17.9990166831589
0.00549678537805567,18.00126108737
0.00624111042813596,18.003341844001
0.00706365855456889,18.0052657852838
0.00797596354556061,18.0070660393589
0.00899532127907498,18.0087759818575
0.0101496835225463,18.0104333656782
0.0114916065459516,18.0120919265731
0.0132280583523773,18.0139399104489
0.0151872833633314,18.015756520815
0.0168489485630873,18.0171565185539
0.0186016676159898,18.0185565162928
0.0201692045081408,18.0197897999158
0.0215687663233619,18.0209194653728
0.0228245796038757,18.0220044383568
0.023933521566208,18.0230849331088
0.02487467671502,18.0241999223223
0.0256065085294919,18.0254034904062
0.0260424010053515,18.0268063058
0.0258580354016577,18.028885843203
0.0251733507570699,18.0303842911991
0.0241287774375435,18.0318827391952
0.0229284000386584,18.0332682605348
0.0215766660740314,18.0346555601185
0.0200820812908721,18.0360956729317
0.0184531894243274,18.0376262334891
0.0174095435151002,18.0386077881834
0.0163905375785741,18.0395893428778
0.0149838580252302,18.0410203263577
0.0124261992644387,18.0439130650703
0.010211986586351,18.0468329715453
0.00848034729409029,18.0495048234793
0.00709096505375588,18.0519974250649
0.00588745346259408,18.0545046580278
0.00483109622540863,18.0570718840166
0.00390125072261261,18.0597231813008
0.00308174054670389,18.0624816195951
0.00235907721261256,18.0653715014652
0.0017464567635456,18.0682898998838
0.00124744048868771,18.0711055419993
0.000823036623229595,18.0739187835092
0.000452068126090841,18.0767939671615
0.000135150630859378,18.0796465140092
-0.000123902876589374,18.0823163460706
-0.000336136301237079,18.084774453983
-0.000515854783685349,18.0870740079721
-0.000673129114260799,18.0892666527942
-0.000814927415814519,18.0913965771513
-0.000946956447243026,18.0935137127909
-0.00107561152835962,18.0957001456752
-0.00121330016547872,18.098168883771
-0.00132237838098281,18.1002111045487
-0.00142805026486187,18.1022533253264
-0.00151512708544788,18.1039762144345
-0.00159177186202905,18.1055173650735
-0.00166540468512016,18.1070154491582
-0.00174080157036828,18.108563117907
-0.00182360739084824,18.1102742033412
-0.00192613112431553,18.1124023918739
-0.00211789356758831,18.1163887143317
-0.00230045476852119,18.1201722552993
-0.00246000326094997,18.1234706957005
-0.00263032468812662,18.1270039284938
-0.00284845792301831,18.1316260166853
-0.00307898540251374,18.1369219443885
-0.00324915607981051,18.1418568224052
-0.00333248215038948,18.1462485255134
-0.00332500314000518,18.1500456880545
-0.00322795443297172,18.1535802287479
-0.00302220651804827,18.1570773560331
-0.00271666862161247,18.1602561486722
-0.00231949542942912,18.1631411232211
-0.00182989989212495,18.1658101574083
-0.00123702816988926,18.1683455053139
-0.000508977963856415,18.1708606741489
0.000442399615780293,18.1735684507913
0.00169363702822434,18.1765690017076
0.00309399467502748,18.1795271049525
0.00435587767403474,18.1820002789876
0.00598336830376588,18.1850106266391
0.00711318216018499,18.1869733316584
0.00832514991070226,18.1889360366777
0.00953787143547788,18.190729458092
0.0108286730626788,18.1924450853638
0.0122152197086323,18.1940781889381
0.0137481483927491,18.1956612344325
0.0154521481091651,18.1971914264483
0.0173602964756757,18.1986732456664
0.0194893821990871,18.2000982514533
0.0218748952508412,18.2014720420663
0.0245455391519561,18.2027942513748
0.02752921803652,18.2040640940273
0.0308688236646755,18.2052863024572
0.0346086154461284,18.2064637067893
0.0387999035502456,18.2075994267986
0.0435016923699543,18.208696570224
0.0487853059619507,18.2097588358754
0.054734801436903,18.2107899093155
0.0614500497961486,18.2117935235569
0.0690514501515643,18.2127736104088
0.0776856210050118,18.2137343623197
0.0875349815616283,18.2146804934013
0.0988294573647989,18.21561734065
0.111866077229416,18.2165512396498
0.127040029670472,18.2174900720394
0.144898308375253,18.2184442399574
0.166162626655367,18.2194251910775
0.190779565561408,18.2204085243021
0.219388970928333,18.2214043695472
0.252846778533431,18.2224271077547
0.292415155340442,18.223500342501
0.338716288665441,18.2246346652279
0.379797777663146,18.2255800917914
0.413885204881407,18.2263536618327
0.443381430325954,18.2270422357658
0.469160856925499,18.2276886615978
0.491331547483942,18.2283190177346
0.509560877438181,18.2289554950244
0.523031572091831,18.2296234627497
0.530046078471068,18.2303619337953
0.527422306067116,18.2311646640705
0.513288231202643,18.2319890443598
0.486267553623824,18.2328514202418
0.44456478683192,18.2337636834178
0.386191664399143,18.2347342565484
0.34153810890113,18.2353606356919
0.29232244269465,18.2359870148353
0.248529319011229,18.236512397449
0.210980876608156,18.2369526693296
0.177986041663886,18.2373407469969
0.148428671173917,18.2376964343473
0.121633170575671,18.238031940199
0.0971349780764063,18.2383561084081
0.0745554904329908,18.2386768004886
0.0535009639645655,18.2390032195619
0.0333593231916776,18.2393512967523
0.0121683083058185,18.2397744380283
0.00184208224349511,18.2400117272582
-0.0054938909263688,18.2401975238809
-0.0121998173388869,18.2403833205036
-0.0181045723507699,18.2405627067082
-0.0241261073112894,18.2407648945905
-0.029990064909813,18.2409858894165
-0.0355154278577412,18.2412230627225
-0.0406009570353082,18.2414753588603
-0.0451930742774554,18.2417427516526
-0.049266733590207,18.2420259332037
-0.0528104455257621,18.2423261604025
-0.0559363948736025,18.2426596146027
-0.0583740150715407,18.2429978645968
-0.0603057070838112,18.2433596699907
-0.0617475736468454,18.243748711812
-0.0627137147010749,18.2441692818317
-0.0632163849391392,18.2446267187935
-0.0632643829583919,18.2451277600998
-0.0628610576959511,18.2456810803642
-0.0619994753359217,18.2462993826285
-0.06065829726409,18.2469994199337
-0.0587933177669001,18.2478057609706
-0.0563140209719846,18.2487593360152
-0.053004279990505,18.2499456770757
-0.0489327441228549,18.2513561005685
-0.0449787643683178,18.2527179883956
-0.0411980890026882,18.2540379999564
-0.0376186137905924,18.2553189911975
-0.0342546438663594,18.25656208718
-0.0311127904916161,18.257767536446
-0.0281945609213067,18.2589351596879
-0.0254977131340818,18.2600645859237
-0.0230171163929333,18.2611553751459
-0.0207453988114026,18.262207077819
-0.01867349065747,18.2632192572921
-0.0167911031189491,18.2641914890586
-0.0150871547883653,18.2651233445015
-0.0135115028051531,18.2660374723735
-0.0119942826944592,18.2669749030833
-0.0105402450517743,18.2679370447009
-0.00915336954898314,18.2689259469687
-0.00783745308478651,18.2699440096264
-0.00659605617421967,18.2709940714141
-0.00543245208398553,18.2720795231428
-0.00434957383789233,18.2732044593692
-0.00334995917426023,18.2743738864427
-0.00243569318928673,18.2755940154994
-0.00160834785511231,18.2768726881581
-0.000868916681483448,18.2782200186658
-0.000217741114751464,18.2796494081776
0.000345578102835398,18.2811792425037
0.00081383987462607,18.2828022984424
0.00117928091932763,18.2844691967705
0.0014585578156278,18.2861982418662
0.00166632190119112,18.2880098221111
0.00181625643932082,18.2899309905426
0.00192145514737144,18.2919997094357
0.00199496999988798,18.2942735899993
0.00205079765684828,18.2968506423376
0.00210644850341747,18.2999333400259
0.00218315896050667,18.303666556001
0.00228763767405956,18.3075931033293
0.00243860276402912,18.312110612986
0.00261561420151247,18.316663285101
0.00278650984419104,18.3207118349677
0.00295543855900863,18.3245503932365
0.00312501043729439,18.3283101612431
0.00329740266298174,18.3320628937252
0.00347487922579203,18.3358571040851
0.0036599031093694,18.3397307532486
0.00385514570725224,18.3437165093099
0.00406351649694462,18.3478449385525
0.00428820902922589,18.3521464374402
0.00453278907022109,18.3566525965585
0.00480137726793882,18.3613975418932
0.00509899480920159,18.3664193547136
0.00543215394501655,18.3717612529353
0.00578169644268635,18.3770546905188
0.00614818405828739,18.3822733815863
0.00653365168867582,18.3874059158962
0.00694146691835354,18.3924531713314
0.0073759195951664,18.3974217086486
0.00784185476463259,18.4023183074848
0.00834459378947668,18.4071483603809
0.00888988323144824,18.4119147075339
0.00948397891109446,18.4166179667163
0.0101337345544731,18.4212569068244
0.0108522119590405,18.4258626116415
0.0116616044174108,18.4304963037288
0.0125780883699679,18.4351542107388
0.0136257771384303,18.4398546175314
0.014839679478259,18.4446365809558
0.0162803335191124,18.449595455633
0.0180868408662606,18.455002579912
0.0205540611171332,18.4614139628034
0.0221597395534186,18.4652263309701
0.0238134154204814,18.4690386991367
0.0252634308370634,18.4724427216978
0.0264891166731164,18.4755401606773
0.0275082229721704,18.4785071856484
0.0282766815299481,18.4813432652866
0.028778354417247,18.4840931860385
0.0290051058253372,18.4868798796997
0.0289118592084324,18.4898818890147
0.0283238133636129,18.4935875115323
0.0275086273897414,18.4965726610553
0.0264425989095758,18.4995578105782
0.0253668608260218,18.5021305105315
0.0242972883924943,18.5044668556365
0.0232263368780389,18.5066824789629
0.0221545280899608,18.5088314268899
0.0210850919130057,18.5109439011944
0.0200217530233707,18.5130396436434
0.018968143197272,18.5151329269986
0.0179276458442726,18.5172348316307
0.0169033607534836,18.5193544543515
0.0158981032565475,18.5214996256502
0.014914417042419,18.5236773641772
0.0139545859826752,18.5258941951542
0.0130206464782581,18.5281563841594
0.0121144017476728,18.5304701144902
0.0112374268837075,18.5328416569925
0.0103910821479452,18.5352775046813
0.00957652408530856,18.5377845061813
0.00878193669341244,18.5404139116359
0.00799889383921869,18.5432191588654
0.00723114403468867,18.5462208473655
0.00648253786824495,18.5494433202302
0.00575717258501096,18.5529147609162
0.00505935604209515,18.5566679545215
0.00439355643406287,18.5607411861315
0.00376429965742493,18.5651795330994
0.00317599125148842,18.5700369956787
0.00263264720946365,18.5753804005879
0.00213756891325014,18.5812965924484
0.00169482917296403,18.5878756640339
0.0013211211790583,18.594932091967
0.00101315055058077,18.6025593263981
0.000822481992768715,18.6090568391243
0.000632557781811527,18.6177124195412
0.000486538271464005,18.6269473676322
0.000375394140710022,18.6369473676322
0.000299682875354553,18.6469473676322
0.000249282544732451,18.6569473676322
0.00021685189957862,18.6669473676322
0.000197122302584477,18.6769473676322
0.000186429012848895,18.6869473676322
0.000182297091501162,18.6969473676322
0.000183092289180514,18.7069473676322
0.000187761052418473,18.7169473676322
0.000195655467754015,18.7269473676322
0.000206422525523479,18.7369473676322
0.0002199368482562,18.7469473676322
0.000236262672135913,18.7569473676322
0.000255637571569085,18.7669473676322
0.000278475143422084,18.7769473676322
0.000305387191440691,18.7869473676322
0.000337229097061111,18.7969473676322
0.000375176236622683,18.8069473676323
0.000420845896261352,18.8169473676323
0.000476490414004475,18.8269473676323
0.000543391584090965,18.8366929333346
0.000619935389360553,18.8456826150739
0.000707216293727657,18.8539582916491
0.0008066713082346,18.8615784372947
0.00091996726558754,18.8685976165776
0.00104900334388611,18.8750661457287
0.00119593495057079,18.8810304904622
0.00136320768009894,18.8865336259817
0.00155359952879338,18.891615338412
0.0017702697713728,18.8963125024688
0.00201681915030421,18.9006593501518
0.00229736328197481,18.9046877328422
0.00261662662130807,18.908427370734
0.00298006100781695,18.9119061108087
0.0033940071568283,18.915150216952
0.00386591496703693,18.9181847069395
0.00440465838691922,18.9210337648308
0.00502100871698655,18.923721304642
0.00572635851342011,18.9262651519567
0.00651195978651428,18.9286235625815
0.00739224935975558,18.9308428756265
0.00839145109068196,18.932975637417
0.00955512559608378,18.935093347116
0.0109971273658098,18.9373412884611
0.0126246031187809,18.9395485989952
0.013975844229357,18.9412141405736
0.0153992866184143,18.9428796821521
0.0166680530774337,18.9443444741084
0.0177917094272976,18.9456788822015
0.0187894522460249,18.9469524046814
0.0196578854527905,18.9482109626492
0.0203787900866869,18.9494965828074
0.0209172421079136,18.9508636124466
0.0212042729230689,18.9524130584358
0.0210318571501237,18.9544823431985
0.0204147087913682,18.956251326415
0.0194415500015739,18.9580203096315
0.0183652520042325,18.9595735721222
0.0171856228149397,18.9610798860282
0.0159069157072488,18.9626065445766
0.0145384118678021,18.9641919490281
0.0140651307053241,18.9647375094341
0.0135985519292005,18.9652830698402
0.0115478199049031,18.9678631259359
0.00961139670808747,18.970650295972
0.00804029229173398,18.9732631571662
0.00672744357600378,18.9757829431936
0.00560738824964895,18.978264170541
0.00465091878809299,18.9807100495489
0.00380906210262042,18.9831980598156
0.00302179372817917,18.9859073336185
0.00229420482278667,18.9888587861514
0.00187195587738046,18.9908332240434
0.00149410866414172,18.9928076619354
0.0011839046988535,18.9946065578653
0.000914266051256652,18.9963257804072
0.00066388463359081,18.9980744669255
0.000416406330354867,18.9999711915694
0.000148954841671128,19.0022418446459
-0.000230395304537079,19.005938809469
-0.000561405578601924,19.0097318113749
-0.000808750845844845,19.0129919369171
-0.00103487776945289,19.0163514873365
-0.0012730524864865,19.0203514937662
-0.001551781739304,19.0257917911829
-0.00176828746082928,19.0309618299074
-0.00191255831541781,19.0356218474401
-0.00198286347583342,19.0398424029968
-0.00197308786543957,19.0436649362244
-0.00187717005347024,19.0471361622823
-0.00168941415567197,19.0503158520768
-0.00140355614884266,19.0532632092468
-0.00100992572961293,19.0560461911485
-0.000488984868159547,19.0587534027092
0.000205194181512352,19.0615266439188
0.00116856037484557,19.0645771322782
0.00241860217682031,19.0678266487133
0.00402299449983588,19.0713816158493
0.00520295460470838,19.0737107387826
0.00650121208549163,19.0760398617159
0.00780158904125668,19.0781374911663
0.00907465014289762,19.0799705998472
0.0104394973008456,19.081712591114
0.0119029480641638,19.0833537705512
0.0135189719096535,19.0849354610581
0.0153063773900791,19.0864536930703
0.017300283922512,19.087917957555
0.0195203331796976,19.0893239976146
0.022001812438443,19.0906776313627
0.0247745403533726,19.0919794178062
0.0278712872249507,19.0932306018552
0.0313361316773556,19.0944355131946
0.0352155581729413,19.0955969949668
0.0395635740981692,19.0967181636971
0.0444414263852337,19.0978019108486
0.049925354767356,19.0988521697515
0.0561037263376095,19.0998725273973
0.0630820488457308,19.1008667030822
0.0709878874719771,19.1018386492974
0.0799769704607037,19.1027926024074
0.0902442073694715,19.1037334073098
0.102036373738385,19.1046665861322
0.115674299817981,19.1055987676914
0.13158840848665,19.1065383095965
0.150380941256829,19.1074964111361
0.172585297331773,19.1084745433835
0.198309655259626,19.1094573490955
0.228241369929493,19.1104556923111
0.263314026969648,19.111485398465
0.304965423094291,19.1125741206822
0.341768398717386,19.1134566481758
0.380460941599475,19.1143391756693
0.414548010407495,19.1151064161655
0.444204032925499,19.1157925410889
0.470137277815919,19.1164364771203
0.492460593258423,19.117064280932
0.510848828830131,19.1176982196947
0.524490337372881,19.118363761667
0.531690119530765,19.1191002356021
0.529244161731832,19.1199009264942
0.51526830669186,19.1207235689756
0.488382270830081,19.121584710489
0.446774051770008,19.1224964379415
0.388430193261442,19.1234671321681
0.343409248412536,19.1240982669551
0.293721237553021,19.1247294017421
0.249556788175375,19.1252576787094
0.211755047274902,19.125699365377
0.178575130972007,19.1260881069695
0.148872004504352,19.1264440597156
0.121956274642179,19.126779581805
0.0973563306618349,19.1271035785624
0.0746899782318445,19.1274239214084
0.053562752386334,19.1277497609161
0.0333682722552943,19.1280967905437
0.0122017748528157,19.1285166599885
0.00157986827676716,19.1287592106088
-0.00578555736276561,19.1289448024902
-0.0125186466371042,19.1291303943715
-0.0184209169727148,19.1293087417292
-0.0244500653945961,19.129510008559
-0.0303281130581754,19.1297301576162
-0.0358709914086194,19.12996651205
-0.0409756129779432,19.1302179837622
-0.0455872924682663,19.1304845237252
-0.0496803147412754,19.1307668061235
-0.0532438650777224,19.1310660720181
-0.0564348732244849,19.1314038526468
-0.0588824347761429,19.131741408525
-0.0608226756022067,19.1321023900786
-0.0622722767788711,19.1324905343647
-0.063245370473417,19.1329101211814
-0.0637542497501506,19.1333664735235
-0.0638077593950948,19.1338663087718
-0.0634093003282862,19.1344182751604
-0.0625520514863173,19.1350350074054
-0.0612147469303508,19.1357332175778
-0.0593533052151173,19.1365373691533
-0.0568775121559965,19.1374881683689
-0.053572458619582,19.1386704530015
-0.0494869983911722,19.1400822250217
-0.0455181688855703,19.1414453519746
-0.0417221642165767,19.1427666333101
-0.0381272273067234,19.1440489382912
-0.0347478730806601,19.1452933948918
-0.0315908659466122,19.1465002497627
-0.0286578364961413,19.1476693195348
-0.0259466447683179,19.1488002284185
-0.0234522432259692,19.1498925316606
-0.0211673251721643,19.1509457755458
-0.0190828687472069,19.1519595201637
-0.0171886166583846,19.152933338941
-0.015473504122753,19.1538668026208
-0.0138915012171391,19.1547799981665
-0.0123676717954265,19.1557164545203
-0.0109068112022656,19.1566775459359
-0.00951290019850303,19.1576653093904
-0.00818973811085559,19.158682128644
-0.0069408886784464,19.1597308225237
-0.00576962893419138,19.1608147566984
-0.0046788958425407,19.1619379934919
-0.00367123073680236,19.1631054971783
-0.00274872120933706,19.1643234227667
-0.00191293954123993,19.1655995350072
-0.0011648757476329,19.1669438393912
-0.000504861459700148,19.1683695767672
6.75228417454927e-05,19.1698948837721
0.000546032858492681,19.1715165192861
0.000921032857181693,19.1731812720202
0.00120935394542577,19.1749074573271
0.00142575634790446,19.1767152512105
0.0015840378108117,19.1786313768242
0.00169741920873106,19.1806932336401
0.00177910778255047,19.1829573708839
0.00184331317465051,19.1855194491313
0.0019078749048022,19.1885750157241
0.00199517642211084,19.1923083940461
0.00210609468769965,19.1961040386286
0.00223935488329389,19.1998652951259
0.00239211355578261,19.2036466679192
0.00256056010727699,19.2074904222697
0.00274163379792486,19.2114315162231
0.00293363724794629,19.2155015185433
0.00313630131736051,19.2197309567397
0.0033506310373529,19.2241510027064
0.00357869576504638,19.2287947990708
0.00382349388857064,19.2336989050554
0.00408899729018949,19.2389046479269
0.00438049994530173,19.2444596081146
0.00468981064813137,19.2501364159297
0.00500428489001891,19.2556464702915
0.00533030912174468,19.2610607278195
0.00566938988957649,19.2663577205599
0.0060256419496505,19.2715589343358
0.00640268633955112,19.2766743346628
0.00680445471549683,19.2817144676447
0.00723495355044185,19.2866858633608
0.00769846576446942,19.2915928197786
0.00819965085362641,19.2964375911595
0.00874366124528814,19.3012207454485
0.00933624164402957,19.3059413716636
0.00998383088030112,19.3105974031148
0.0106958639671822,19.3151995846141
0.0114972593442266,19.3198327479738
0.0124027930550057,19.324487680069
0.0134356455772406,19.3291817414613
0.0146288034251812,19.3339498539491
0.0160379474679855,19.3388766933828
0.0177848906957836,19.3441947993786
0.020252877238145,19.3506996509544
0.0218923357408296,19.3546210897598
0.023591885789492,19.3585425285651
0.0250753514415474,19.3620054677986
0.0263274604083532,19.3651298072519
0.027372438446165,19.3681053805153
0.0281747294670238,19.3709607027317
0.0287096808622917,19.3737159616116
0.0289721818242924,19.3764915720155
0.0289236525029573,19.3794539316366
0.0284206304567241,19.3830124971024
0.0276236109649333,19.3861094074905
0.0265483048679937,19.3892063178786
0.0254686794122764,19.3918259412241
0.0243989380740515,19.3941830459168
0.0233282033684483,19.3964103081309
0.022256203643008,19.3985666370965
0.0211860241125941,19.4006840278658
0.0201213777826439,19.4027831077695
0.0190659150485309,19.4048786738971
0.0180230438435064,19.406982159159
0.0169958881190657,19.4091029234502
0.0159872853739916,19.4112490134887
0.0149997992316383,19.4134276425371
0.0140357318302184,19.4156455249721
0.0130971362509255,19.4179091236203
0.0121858327466747,19.4202248345452
0.0113034122279239,19.4225991723618
0.0104512525312465,19.4250389096545
0.00963052792480156,19.4275512285988
0.00883518833038946,19.4301678944056
0.00805099394827302,19.4329591587493
0.00728173748230476,19.4359451839237
0.00653123854797349,19.4391500782144
0.00580356337422939,19.4426017576814
0.00510299329216302,19.4463326878692
0.00443397521680248,19.4503807775907
0.00380102639683118,19.4547906203478
0.00320856575636605,19.4596155077439
0.00266065011192959,19.4649211254791
0.00216064991573427,19.4707923515411
0.00171128656162133,19.4773399303437
0.00143288336713903,19.4823095874069
0.00120743885102574,19.4872792444701
0.000963389596140497,19.4942967616459
0.000757127845849509,19.5021894567521
0.000584311249496354,19.5111071329491
0.000446476230150508,19.5211071329491
0.000351930948612524,19.5311071329491
0.000288172961190756,19.5411071329491
0.000246095048298053,19.5511071329491
0.00021915934440432,19.5611071329491
0.000202814586015892,19.5711071329491
0.000193970361687129,19.5811071329491
0.000190556614477303,19.5911071329491
0.000191198496030271,19.6011071329491
0.000194997760259081,19.6111071329491
0.000201392475074304,19.6211071329491
0.000210067972951241,19.6311071329491
0.000220900753465582,19.6411071329491
0.000233925137598787,19.6511071329491
0.000249317628184002,19.6611071329491
0.000267396953261149,19.6711071329491
0.000288639966073548,19.6811071329491
0.000313715924811781,19.6911071329491
0.000343544915327222,19.7011071329491
0.000379391221444406,19.7111071329491
0.000423010919368819,19.7211071329491
0.000475465392445601,19.7308660328159
0.000535585449107022,19.7398917502277
0.000604278059752753,19.7482209956695
0.000682715459471591,19.7559073322994
0.000772249875821587,19.7630012010066
0.000874416674167621,19.7695494463906
0.000990952603459365,19.7755955723533
0.00112382117885986,19.7811799918331
0.00127524286197082,19.7863402503727
0.00144772960905721,19.7911112322709
0.00164412503288309,19.7955253565643
0.00186765202995867,19.7996127659543
0.00212197005078423,19.8034015083279
0.00241124479865522,19.8069177153225
0.00274023569985764,19.8101857840702
0.0031144068934249,19.8132285668329
0.00354007249776726,19.8160675739739
0.0040245916435876,19.8187232030152
0.00457663921193192,19.8212150133436
0.00520659687038836,19.823562077765
0.00592040391103399,19.8257645125068
0.00670959175003652,19.8277943431474
0.00758439787873164,19.8296860969022
0.00856040837813553,19.8314747098052
0.00966224348706378,19.8331981534905
0.0109344826918874,19.8349071951416
0.012520739034813,19.8367417270277
0.0149195298310577,19.8391118299873
0.0165038067927551,19.840513237152
0.0181706147150438,19.8419146443167
0.0196886387474937,19.8431734427636
0.0210450075333784,19.8443284213326
0.0222602994963318,19.845437445726
0.0233309245281043,19.8465412567226
0.0242360599883093,19.8476793114674
0.0249346636438949,19.8489061161455
0.0253415150676848,19.8503324274899
0.0251428905499095,19.8524260434716
0.0244615493637595,19.8539510535118
0.0234260281507201,19.855476063552
0.022241411239615,19.8568812889244
0.0209123897643716,19.8582837521701
0.019447457671236,19.8597353085001
0.0178555021640924,19.8612733427697
0.0168535529583668,19.8622418912985
0.0158769688343357,19.8632104398274
0.0132480844133237,19.8660615064076
0.0108428367522086,19.8690912697242
0.00897874923775382,19.8718424074017
0.00749900802330035,19.874384714115
0.00624484594639043,19.8768854805858
0.00514541172037311,19.8794373370372
0.00417757719948059,19.8820666340772
0.00332415013212547,19.8847964937565
0.00257096832853752,19.8876507853542
0.0019058553691231,19.8906556335898
0.00137037156448845,19.8935321538421
0.000924754363296204,19.8963485086946
0.000541399920193882,19.899177260392
0.000211248238452546,19.9020004498348
-6.47736140192198e-05,19.9047031752023
-0.000293917294778775,19.90723051816
-0.000488785512662734,19.9096120815606
-0.000660239491969418,19.9119019924885
-0.000816633191761245,19.9141593193526
-0.000965863023695238,19.9164667968268
-0.00112072402702124,19.9190174162434
-0.00125209067790933,19.9212984295946
-0.00137822290729737,19.9235794429458
-0.00147817951429392,19.9254417282474
-0.00156453783510747,19.9270832890853
-0.00164675933722164,19.9286693297726
-0.00173034713144955,19.9303001178717
-0.00182140176767749,19.9320924045896
-0.00193253478956018,19.9342948140297
-0.00214833029232326,19.9385916496137
-0.00235622047541985,19.942739415538
-0.00253424361743571,19.9463095222745
-0.00271918625869333,19.9500801454875
-0.00294772270528062,19.954984859412
-0.00315421541125449,19.9601509392228
-0.00327951342456821,19.9647912139051
-0.00331184382315716,19.968694092037
-0.00325880889722096,19.9722641498244
-0.00310896431592142,19.9757520358376
-0.00283880503980604,19.9792494110977
-0.00247087409531502,19.9824008935672
-0.00201049782105403,19.9852859048936
-0.00145543710971931,19.987978350206
-0.00079041954191482,19.9905652816137
2.364895715951e-05,19.9931659365536
0.00110362478971229,19.9960420734852
0.0019539366867996,19.9980210367426
0.00288263626982754,20
