ecg,time
0.0144020238914707,15.0004918888191
0.0158744920212718,15.0021146334785
0.0171881713367677,15.0035422496087
0.018352969767578,15.0048433452617
0.0193890351149335,15.0060859337853
0.0202931193967637,15.007315085412
0.0210466702080941,15.0085723027808
0.0216138871262667,15.0099117157789
0.0219235769383473,15.0114351169913
0.0217560990408247,15.0134921488033
0.0211346098450487,15.0152163896202
0.0201545021643383,15.016940630437
0.0190622043732102,15.0184661650576
0.0178594172594159,15.0199520585147
0.0165513839257405,15.0214628490114
0.0151475582517863,15.0230366448945
0.0146875540163104,15.0235499223355
0.0142314893138945,15.0240631997766
0.0135338591491772,15.0248715422127
0.0114220903421703,15.0275298472083
0.00950214146343631,15.0303072802979
0.00795059373622768,15.0329051455526
0.00665016769386728,15.0354215974662
0.00550840499206294,15.0379814506419
0.00453094254400019,15.0405285839312
0.0037008694788261,15.0430417498802
0.00297262441257138,15.0456041636846
0.00229026766328561,15.0484150465337
0.00165253556431612,15.0515320373075
0.00130118354800042,15.0535177318081
0.000986205049475966,15.0555034263088
0.000725128159322194,15.0573263923432
0.000495877966768577,15.0590835738146
0.000281069783982672,15.0608846148008
6.63236912346213e-05,15.0628580726432
-0.000170859404722976,15.0652711722424
-0.000548085932649683,15.0697153456558
-0.000846055280259145,15.0738752721058
-0.00106616465367493,15.0773961906166
-0.0012729432749034,15.0811114036749
-0.00149884153568951,15.085716455032
-0.00172825343046264,15.0912516839907
-0.00188188862756628,15.0960759053702
-0.00196767363232135,15.1004810035764
-0.00197756678977273,15.1044663128693
-0.00190448230450528,15.1080886185219
-0.00174197552856319,15.1113964306115
-0.00148380383813763,15.1144483024921
-0.00112161889973534,15.1173090424234
-0.000640910415235255,15.1200537631351
-1.33823342522175e-05,15.1227793269368
0.000829532194908336,15.1256611903553
0.00197019911786208,15.1288179958913
0.00342797102016805,15.1321913006956
0.00477390649276024,15.1349104859308
0.00594508529601689,15.1370453389202
0.00723988174997822,15.1391801919095
0.00857448131224945,15.141148888271
0.00992176314469104,15.1429144857929
0.0113779676352057,15.1445989172617
0.0129650246771757,15.1462068433422
0.0147105012279371,15.1477466627259
0.016650306812049,15.1492300755243
0.0188060527285354,15.1506546234066
0.0212129496937486,15.1520264179022
0.0238972918781947,15.1533444678156
0.0268974380277547,15.1546129891945
0.0302531456558229,15.1558346168408
0.0340091478560874,15.1570120282473
0.0382152783624835,15.1581477140654
0.0429349148259424,15.1592457476078
0.0482395923855289,15.1603095298475
0.0542139316058579,15.1613426010724
0.0609590394847752,15.1623486795482
0.0685961315595092,15.1633316101567
0.077275509482752,15.1642958213353
0.0871830257186304,15.1652461056336
0.0985543308885755,15.1661879897406
0.11169572329141,15.167128114092
0.127017945780625,15.1680748449958
0.145097291921944,15.1690394767408
0.166514173659253,15.170026551446
0.191326831712565,15.1710178819688
0.220200541558454,15.1720244784178
0.254038102461813,15.1730622271889
0.294211365585471,15.1741580845645
0.3403266859889,15.1752998351203
0.379647029800012,15.1762212827281
0.412614866280737,15.176988372547
0.441271754717969,15.1776784322199
0.466284053259372,15.1783298584467
0.487674310535869,15.1789674549964
0.505050507686622,15.1796131799756
0.517523865205835,15.1802927572757
0.523268399725032,15.1810463507432
0.519131066878183,15.1818561953336
0.503438463968772,15.1826883739463
0.474786500422134,15.1835582875569
0.431403257279086,15.1844768951501
0.3713623920978,15.1854529791694
0.328339508456258,15.1860491300434
0.281407229818896,15.1866452809174
0.23946928383823,15.1871512033878
0.203198800107618,15.1875808978151
0.171144633110985,15.18796309534
0.142332830518687,15.188315533668
0.116155223688416,15.1886495261078
0.0921800390594045,15.1889735615369
0.0700417233007391,15.189295510171
0.0493378358813689,15.1896251176234
0.0293832858113474,15.1899806624721
0.00751465217950809,15.1904355649245
-0.000884290931290227,15.1906369978724
-0.00853158017439886,15.1908384308203
-0.0148977530182713,15.191022695264
-0.0208706579111461,15.1912128924114
-0.0268325697690798,15.1914240581712
-0.0325528486260309,15.1916528207238
-0.0378877833581036,15.191897251335
-0.0427584226198283,15.1921567488703
-0.0471244588224236,15.1924315985519
-0.0509685736974038,15.192722731295
-0.0545158290044444,15.1930569272707
-0.0572291239170315,15.1933845516167
-0.0594285621143646,15.193733972223
-0.0611312403079607,15.194108637819
-0.0623514968979236,15.1945123601131
-0.0631026719902078,15.1949498508095
-0.0633956033574168,15.1954270021964
-0.063236894245925,15.1959513040239
-0.0626261549443166,15.1965328690828
-0.0615505429630125,15.1971861198468
-0.059980628079025,15.1979304275842
-0.0578569818130209,15.1987957293438
-0.0550531938319028,15.1998357505754
-0.0512190171340094,15.2011838331029
-0.0471988067478544,15.2025686372549
-0.0433262364902976,15.2039089606971
-0.0396430244810561,15.2052087758413
-0.0361694963624052,15.2064700482105
-0.0329157430615838,15.2076934646391
-0.0298856017777837,15.2088790667246
-0.0270785373442186,15.210026588745
-0.0244907208404484,15.211135635121
-0.0221157752090856,15.2122057706799
-0.0199453692923631,15.2132365612702
-0.01796972932736,15.2142275844337
-0.0161780922091161,15.215178420817
-0.0145591072314895,15.216088632174
-0.0130081504254672,15.2170150100696
-0.0115182742717964,15.2179652881602
-0.010093621227685,15.2189413186395
-0.00873807496857119,15.2199453262436
-0.00745530485266642,15.2209799307749
-0.00624871498277775,15.2220482467075
-0.00512139166129548,15.2231540149127
-0.00407604859659255,15.2243017813557
-0.0031149696637873,15.2254971455067
-0.0022399485461559,15.2267471157434
-0.00145222375408648,15.2280606355745
-0.000752406035699842,15.2294493959476
-0.000140392337957903,15.2309291558601
0.000384745628423761,15.2325220367641
0.000804054794392419,15.2341660133698
0.00112990236594075,15.2358637076766
0.00137771840410159,15.2376337040456
0.00156170962651683,15.2394995641135
0.00169533548587063,15.241493403312
0.00179179036064688,15.2436620540207
0.00186478290327539,15.2460805630889
0.00193024498669192,15.2488883312097
0.00201227057041,15.2524298572308
0.00211752692572142,15.2562007199244
0.00224700192850149,15.259977075774
0.00239971977453455,15.2638016951754
0.00257201861074824,15.2677117176184
0.00276019604304867,15.2717397537344
0.00296173442829206,15.27591664954
0.00317568425568103,15.2802732755776
0.003402641590996,15.2848420374582
0.00364458962543409,15.2896582652947
0.00390479135091799,15.2947616206166
0.00418789239482538,15.3001974502673
0.00449838518926688,15.3059813731817
0.00480878810895691,15.3115309715
0.00513054930618978,15.3170123229725
0.00546292624425409,15.3223620285439
0.00581061437146191,15.3276125477296
0.00617696061036647,15.3327710092107
0.00656590400657752,15.3378504711286
0.00698130882989777,15.3428583544021
0.0074272872747717,15.347800088376
0.00790825984904999,15.3526787843541
0.00842908896561934,15.3574958134458
0.00899517691487132,15.3622509626414
0.00961256803782316,15.3669427094324
0.0102880516058174,15.3715685939614
0.0110394157519897,15.3761849821555
0.0118860374610746,15.3808258804036
0.0128463550906466,15.3854950026395
0.013947074681478,15.3902151631583
0.0152290088766507,15.3950381402092
0.0167680096088701,15.4000934682644
0.0187660626315106,15.4057931455973
0.0206834995592151,15.4106465038345
0.0222998438994848,15.4144601494779
0.0239572425886097,15.4182737951213
0.0253839240115668,15.4216357434286
0.0265886072491739,15.4247112839142
0.0275866086094117,15.4276719799836
0.0283272583476614,15.4304933911426
0.028801236108512,15.4332409795066
0.0289977942978921,15.4360405147358
0.0288654203667338,15.4390835938699
0.0281927642251368,15.4429526456337
0.0273624816731663,15.4458447732534
0.0263039660974081,15.4487369008731
0.0252318159131262,15.4512683815941
0.0241626161120325,15.453586554776
0.0230914535906253,15.4557929888773
0.0220195433565621,15.4579373772886
0.0209502534620163,15.4600482719996
0.0198873150037171,15.4621446389724
0.0188343312004624,15.4642403463306
0.0177946461251288,15.4663462653669
0.016771316487881,15.4684714049803
0.015767115797227,15.4706235882715
0.0147845446642076,15.4728098971965
0.0138258471523498,15.4750369750698
0.0128930210561946,15.4773112642259
0.0119878299723725,15.479639193494
0.0111118174679281,15.482027333068
0.0102663112163641,15.484482563845
0.00945244102071788,15.4870122085314
0.00865897509667332,15.4896664955359
0.00787749473712871,15.4924996734035
0.00711177931491281,15.4955328235547
0.00636570586040055,15.498790885529
0.00564339460776907,15.5023027629649
0.00494917158695856,15.5061021087861
0.00428751151846088,15.5102282812793
0.00366293181106441,15.5147276953892
0.00307979773001132,15.5196561624066
0.00254204515760132,15.525083114783
0.00205284852591197,15.5310994336066
0.00161946408448174,15.5377429819227
0.00126037584155802,15.544875798226
0.00103187072928489,15.5510355226475
0.000806923587262672,15.5589985204594
0.000624391183027897,15.5677202578888
0.000477957390745057,15.5774579672997
0.000373920552810331,15.5874579672997
0.000303503637914966,15.5974579672997
0.000256798955087157,15.6074579672997
0.000226658448028639,15.6174579672997
0.000208077839638963,15.6274579672997
0.000197645234946819,15.6374579672997
0.000193068560758638,15.6474579672997
0.000192819346076875,15.6574579672997
0.000195890032668664,15.6674579672997
0.000201637295341054,15.6774579672997
0.00020968224558213,15.6874579672997
0.000219846917261786,15.6974579672997
0.000232115185769089,15.7074579672997
0.000246612051894558,15.7174579672997
0.000263598534380667,15.7274579672997
0.000283481606917183,15.7374579672997
0.000306840727650905,15.7474579672997
0.000334475250218943,15.7574579672997
0.000367481113115424,15.7674579672997
0.000407371914447572,15.7774579672997
0.000456271200694021,15.7874579672997
0.00051251807823501,15.7967541562804
0.000576758344442405,15.8053376147162
0.000650069500492716,15.81326090477
0.000733713715110419,15.820575222961
0.000829128104586733,15.827328222607
0.000937938368788687,15.8335641990219
0.00106198167631194,15.8393243334499
0.00120333446667141,15.8446469134917
0.00136434458040228,15.8495675342429
0.00154766768681102,15.8541192890055
0.00175631071120203,15.8583329531284
0.00199368282121828,15.8622371611556
0.00226365765786359,15.8658585791906
0.00257064965719713,15.8692220778427
0.00291971007964451,15.8723509108186
0.00331665072899769,15.8752669024753
0.00376820665091457,15.8779906529514
0.00428225760785673,15.8805417755717
0.00486813975792773,15.8829391880216
0.00553710249146978,15.8852014964784
0.0062835958413703,15.8872978091282
0.00710894778314232,15.8892375602336
0.00802513030723391,15.8910545466424
0.00905022208575029,15.8927831077263
0.0102138688861974,15.8944628521461
0.0115743992734749,15.8961534908173
0.0133606442442506,15.8980635907733
0.0151986051428847,15.8997853774004
0.0172213648807796,15.9015071640275
0.0189501581752401,15.9029076886583
0.0204411900051386,15.9041133084428
0.0217744687823741,15.9052345284386
0.0229662416341484,15.9063245596177
0.0240071713216537,15.9074219396922
0.0248707065301983,15.9085685783046
0.0255056374845611,15.9098296626042
0.0257942835833757,15.911361835726
0.0254661664578854,15.9131790370462
0.0245138950357622,15.9149962383665
0.0233971533521832,15.9164641741769
0.0221436857532406,15.9178525597423
0.0207466856076588,15.9192619292451
0.0192139272519738,15.9207371104928
0.0175523498081479,15.9223159446495
0.0161860737633404,15.9236424403885
0.0148963839101439,15.9249689361274
0.0123843995549818,15.9278318952845
0.0101937883508205,15.9307389015416
0.00847523929491891,15.9334051686687
0.0070942961558019,15.9358950572934
0.00589494488724598,15.9384055794088
0.00484187096882198,15.9409769956744
0.00391470344501127,15.9436332104845
0.00309737982028673,15.9463973378128
0.00237648209107509,15.9492937718696
0.00175201706971895,15.9522883543722
0.00124573186535022,15.955174589039
0.000817120125141009,15.958053812899
0.000444052432967484,15.960990755292
0.000126287053096939,15.9639002888461
-0.000133914692959985,15.9666307456943
-0.000348487799395084,15.9691632358044
-0.000531667077059199,15.9715538524944
-0.000693859715145589,15.9738625988434
-0.000842869342900433,15.97615090765
-0.000986556562739419,15.978511199796
-0.00113944544949288,15.9811835935839
-0.0012575553512155,15.9833534438951
-0.00137147804051914,15.9855232942063
-0.00146563639022399,15.9873654907348
-0.00154849756236933,15.9890169531082
-0.00162804803297281,15.9906240190228
-0.00170949705586419,15.9922864668598
-0.00179905189514314,15.9941287225883
-0.00191049478927832,15.9964342305802
-0.0021183035660464,16.0007460672431
-0.00230831641465414,16.004690332624
-0.00247088455083182,16.0080776282193
-0.00264315222369673,16.0117185430637
-0.00285461866193722,16.0163947294438
-0.00305884068758973,16.0215829115528
-0.0031879004904696,16.0263336501304
-0.00322355639090007,16.0303733727801
-0.0031721172143515,16.0340028897822
-0.00302569735294981,16.0374911558262
-0.00275968340375063,16.0409908848807
-0.00239566020873751,16.0441401322786
-0.0019376362345811,16.047025232638
-0.00138293129283893,16.0497197067189
-0.00071672329161728,16.052307715877
9.85747694055919e-05,16.0549036255211
0.00117237700454586,16.0577500475162
0.00256773975171927,16.0608870319974
0.00411834862969788,16.0639509736923
0.00580288908648494,16.0669666622354
0.00705818118027569,16.0690359479177
0.00842065538002753,16.0711052336
0.00981551301687524,16.0730258461116
0.0112092249490204,16.0747449907288
0.0127222008826521,16.076400983002
0.0143548469281786,16.0779711241885
0.0161662027675487,16.0794909686502
0.0181724776178046,16.0809514003829
0.0204131370557367,16.082361363353
0.0229135343332712,16.0837182715142
0.0257071876601489,16.0850241382596
0.0288330133072388,16.086282015192
0.0323321818414202,16.0874940834159
0.0362493739857696,16.0886622553636
0.0406433632367069,16.0897907725216
0.0455795465338868,16.0908830039445
0.0511350335847817,16.0919424810549
0.0574014032824005,16.0929728783508
0.064488941703495,16.0939781210623
0.0725331575740449,16.094962585779
0.081701108581694,16.0959310069451
0.0922036621285836,16.0968888052751
0.104313336281893,16.0978424293923
0.118394237469353,16.0987999929927
0.134953373108729,16.0997723113259
0.154739095255106,16.1007749604555
0.177651151192963,16.1017797024104
0.204295926707172,16.1027973291446
0.23549232615716,16.1038431858524
0.272445834215571,16.1049417816383
0.315147599985798,16.1060871468707
0.355546143877799,16.1070996616677
0.389474174863821,16.1079313311944
0.418871071582944,16.1086662122369
0.444583182071815,16.109349591743
0.466756391394679,16.1100085760687
0.48513720500009,16.1106647829975
0.499071107841622,16.1113404794366
0.507272034221923,16.1120651007618
0.507090671580526,16.1128843539302
0.496017997685118,16.113715631294
0.472881698904379,16.1145747580422
0.436149079575617,16.115473638423
0.384090252128388,16.1164213426523
0.340881167083801,16.1170739883562
0.29255316391482,16.1177266340601
0.249288268671821,16.1182715540529
0.212167751537303,16.1187252363661
0.179529266190508,16.1191232722381
0.150269071554157,16.119486791034
0.123726245336915,16.1198285913074
0.0994521389119464,16.1201577396404
0.0770885283141575,16.1204820223077
0.0562782516010218,16.1208100572651
0.0365119728135931,16.1211554804449
0.0164457501707057,16.1215561633474
0.00825639646055349,16.1217401883114
0.000695661770024095,16.1219242132753
-0.00696465410900509,16.1221279248121
-0.0134361422674455,16.122317024457
-0.0193261595390302,16.1225062370956
-0.0252448133616858,16.1227172689101
-0.0309504527002094,16.1229465108726
-0.0362885904527808,16.1231917543704
-0.0411739833233499,16.1234522281472
-0.0455625918914938,16.1237281098577
-0.0494322028567654,16.1240202547537
-0.0529614929597652,16.1243503921372
-0.0557129510179494,16.1246783733599
-0.0579533234601176,16.1250279722849
-0.0596986663230543,16.12540249083
-0.0609630698768633,16.1258056334788
-0.0617598637743213,16.1262419704541
-0.0621001439762616,16.1267171989635
-0.0619911233581645,16.1272385297026
-0.0614337531423695,16.1278155105904
-0.0604172912582389,16.1284620011693
-0.0589159419255595,16.1291961808161
-0.0568775843289767,16.1300456116246
-0.0541939592936786,16.1310580342444
-0.0505868475536309,16.1323423812598
-0.0465945965130275,16.1337302524166
-0.0427431665898726,16.1350719927109
-0.0390782013819442,16.1363721492167
-0.0356214168694807,16.1376330954481
-0.0323834797885258,16.138855753178
-0.0293684576490557,16.1400403043755
-0.0265758899057539,16.1411865709167
-0.0240019525644339,16.1422942141124
-0.0216402458967962,16.1433628369402
-0.0194824095847039,16.1443920313337
-0.0175186449568385,16.1453813926655
-0.0157381732299414,16.1463305133668
-0.0141296390489153,16.1472389622052
-0.0125840564879453,16.1481665104102
-0.0110997980955998,16.1491180063424
-0.0096809619323902,16.1500953419339
-0.00833142880180236,16.1511007591914
-0.00705486269669641,16.1521368991862
-0.00585466038652104,16.1532069027399
-0.00473389907611628,16.1543145439634
-0.00369528187885449,16.1554644115851
-0.00274108093252233,16.156662161313
-0.00187307751248001,16.157914877394
-0.00109249770071584,16.159231608868
-0.00039994073631182,16.1606241991008
0.000204705612328369,16.1621086379888
0.000722374211807928,16.1637074194296
0.00113338881561218,16.1653535534289
0.00145170169314549,16.1670542982435
0.00169261377536421,16.168828308162
0.00187025201246771,16.1706994652721
0.00199800337201306,16.1727004071953
0.0020889979367604,16.1748789040751
0.00215689346755072,16.1773119206413
0.00221761699080105,16.1801437384698
0.00229557574378278,16.1837383546176
0.00239696660718969,16.1875295836425
0.00252977004262891,16.1915023661508
0.00267965935748593,16.195321948246
0.00284276711226554,16.1990838546172
0.00301631214268163,16.2028521959975
0.003198865548379,16.206672283407
0.00339032493828135,16.2105804382502
0.00359172618639598,16.2146087722094
0.00380503389556769,16.2187877995861
0.00403296885717918,16.223148225031
0.0042789037698655,16.2277222672481
0.00454689925355025,16.2325450773954
0.00484194923290232,16.237656122471
0.00517052866573219,16.2431004384303
0.00551039538487914,16.248447509287
0.0058656721856005,16.2537273770091
0.00623731433532162,16.2589107712001
0.00662911134588966,16.2640064744409
0.00704509308800273,16.2690207363204
0.00748990195402047,16.2739620959714
0.00796846453562362,16.2788363214771
0.00848609825177267,16.2836469890062
0.00904856196505749,16.2883952961059
0.00966216235876627,16.2930805057643
0.0103338717721099,16.2977005204683
0.0110824784046792,16.3023171682156
0.0119264419706198,16.3069575456455
0.0128844945239896,16.3116266273314
0.0139833889921549,16.316347033325
0.0152640600102541,16.3211707010723
0.0168026422834038,16.3262277447478
0.0188024254011221,16.3319331638742
0.0207149803579897,16.3367743424205
0.0223295542290474,16.3405844680864
0.0239848932627294,16.3443945937524
0.0254097530129712,16.3477541006205
0.0266128463333975,16.3508283056797
0.0276092280054627,16.3537884158894
0.0283477405681264,16.3566081661906
0.0288195672462132,16.3593547632053
0.0290137272324371,16.3621541346535
0.0288783003702229,16.3651985991006
0.0281994289321725,16.3690764847155
0.0273675853898593,16.3719621253241
0.0263089336727969,16.3748477659327
0.0252367070400544,16.3773755887413
0.0241674654367695,16.3796912976165
0.023096395932291,16.3818956465958
0.0220247346093695,16.3840380418458
0.0209558521133758,16.3861468933264
0.0198934803538414,16.3882410686883
0.0188412250323272,16.3903343500404
0.0178024338510326,16.3924375238902
0.0167801689931461,16.3945595065558
0.0157772098889645,16.3967080176409
0.0147960641588384,16.3988900178663
0.0138389830282922,16.4011120077899
0.0129079710693481,16.4033802603363
0.0120047987965775,16.4057009994664
0.0111310147203696,16.4080805513673
0.0102879506891314,16.4105254999007
0.00947673770997171,16.4130428105167
0.00868304615141447,16.4156929278106
0.00790134633470621,16.4185212787554
0.00713538286202924,16.421548961856
0.00638903796281209,16.4248007792715
0.00566643797582935,16.4283054614896
0.00497191666738308,16.4320964381041
0.00430995747520329,16.4362127821106
0.00368508749818388,16.4407005423556
0.00310168349083214,16.4456150495572
0.00256369672276276,16.4510250736099
0.00207432288585703,16.457020530312
0.00164001943328003,16.4636523699089
0.00127380389114796,16.4707717923555
0.000977147120538412,16.4784755160876
0.000738810687924364,16.4872688545357
0.000580132445239708,16.4953954494036
0.000443205664431426,16.5049948806349
0.00034369884539665,16.5149948806349
0.000275924790343409,16.5249948806349
0.000230771981060336,16.5349948806349
0.00020159630128135,16.5449948806349
0.000183657766910751,16.5549948806349
0.000173683263002938,16.5649948806349
0.000169469111969015,16.5749948806349
0.000169555727249899,16.5849948806349
0.000172992983095175,16.5949948806349
0.000179185182726198,16.6049948806349
0.000187792974320646,16.6149948806349
0.000198672427413445,16.6249948806349
0.000211838681423663,16.6349948806349
0.000227447577079929,16.6449948806349
0.000245792462655148,16.6549948806349
0.000267315789821408,16.6649948806349
0.000292637244262255,16.6749948806349
0.000322602824998352,16.6849948806349
0.000358363290855427,16.6949948806349
0.000401496941407841,16.7049948806349
0.000454203082558613,16.7149948806349
0.000516477227965529,16.7245573496879
0.000587679976695191,16.7333803892839
0.000668892777149812,16.7415104364956
0.000761470008570913,16.7490031733158
0.000866970834258868,16.7559104797938
0.000987167177225357,16.7622803151185
0.00112406721178166,16.7681570558908
0.00127994624208274,16.7735818014113
0.00145738406340146,16.7785926369064
0.00165930737946239,16.7832248793768
0.00188904192676446,16.7875113127328
0.00215037411779305,16.7914824134164
0.0024476289000525,16.7951665641313
0.00278576610321766,16.7985902711838
0.00317050698376335,16.8017783971337
0.00360850225225012,16.8047544150996
0.00410756199901175,16.8075407014047
0.0046769853315082,16.8101589035474
0.00532805187849004,16.8126304378289
0.00606122146337918,16.8149382542091
0.00687527243892149,16.8170788676053
0.00778417969477767,16.8190925103442
0.00881036892616793,16.8210228558741
0.00999402213440756,16.8229262447637
0.0114261437171005,16.8249047824496
0.0135509372005215,16.8274140692902
0.0150102948504087,16.8289536439246
0.0165523755687631,16.830493218559
0.0179569140111736,16.8318706598601
0.0192048301304077,16.8331230604216
0.0203186227185096,16.8343168953057
0.0212967458994895,16.8354966600381
0.0221212785958471,16.8367026692889
0.0227567048255772,16.8379868519864
0.0231325935947364,16.8394456357107
0.023037806225783,16.8414009219024
0.0224388080811359,16.8430977330537
0.0214469230763549,16.844794544205
0.0203330583834075,16.8462838851551
0.0190977671889393,16.8477358612836
0.0177455187983818,16.8492168503573
0.0162857477859089,16.8507655033472
0.0154088916135472,16.8516914611308
0.0145516268025588,16.8526174189143
0.0124841916189565,16.8550323646893
0.0103344691621369,16.8579017969561
0.00860300180374112,16.8605872809482
0.00720569730801798,16.8630977280481
0.00599168151575843,16.8656231272372
0.00492357564236237,16.8682081458076
0.00398686181608802,16.8708594949023
0.00322547988588159,16.8733760435367
0.00259709173575578,16.8757818172554
0.00206778361985877,16.8781124719989
0.00161042095917704,16.8804165319494
0.00120027753999725,16.8827752731561
0.000804730679641447,16.8853836096582
0.000494051810342696,16.8877207458197
0.000218201084523831,16.8900578819812
1.3564486355727e-05,16.8919808464726
-0.00015238326237963,16.893676327048
-0.000301303439598258,16.8953136430567
-0.000444033278551203,16.8969957064362
-0.000590115730517557,16.8988415258552
-0.000755918370142855,16.901101142032
-0.00103971243256274,16.9054088583741
-0.00127722689073125,16.9094766812142
-0.00146037682549446,16.9129177211101
-0.00163915019294373,16.9165425470512
-0.00184647052468028,16.9211060064885
-0.00207843220564574,16.9268525451708
-0.00223969560105224,16.9318006112968
-0.00233502230114957,16.9362986601467
-0.00235308346842572,16.9403442889716
-0.00228582261068777,16.9439931884711
-0.00212772105121936,16.9472971182977
-0.00187455088537351,16.950319048706
-0.00152104417425464,16.9531230262181
-0.00105654025822173,16.9557833087188
-0.000456550066549435,16.9583984070376
0.000338259527296341,16.9611289389338
0.00142587642671378,16.9641550412752
0.00283834206131633,16.9674489787708
0.00445969248134448,16.970752109791
0.00565780380643724,16.9729671997806
0.00696390753941451,16.9751822897703
0.00829212793650495,16.9772210113339
0.00958248928841549,16.9789958074286
0.0109758552648312,16.9806990489885
0.0124742792457288,16.9823107940781
0.0141315775594905,16.9838677511022
0.0159675629769996,16.98536513472
0.0180156073897167,16.9868094262361
0.0203035646418115,16.9882008518054
0.0228560052471047,16.989537611852
0.0257105234203135,16.9908242787355
0.0289032877182814,16.992062656638
0.0324728205527787,16.9932542463156
0.0364705726247003,16.9944032253751
0.0409531400215394,16.9955128265996
0.045986394899077,16.9965863514224
0.0516479991976168,16.9976272476917
0.0580291172764478,16.9986389373969
0.0652411962430854,16.9996253546767
0.0734184335566952,17.0005905286201
0.0827255353937267,17.0015388283116
0.0933682178415766,17.0024751569981
0.105608377913108,17.0034051895301
0.119788862922115,17.004335836485
0.136372550026657,17.0052758758039
0.156013489416312,17.0062372369466
0.179074357000744,17.0072130618907
0.205808671876254,17.0081954433853
0.236947725041577,17.0091959163988
0.273501445784073,17.0102317746838
0.317097164127987,17.0113351201057
0.352931601492306,17.0121731227714
0.390243264665278,17.0130111254371
0.42334573410378,17.013751495515
0.452259025186125,17.0144221302093
0.477512903339558,17.015057349406
0.499118837005425,17.0156817166479
0.516658148375922,17.0163176964635
0.529172315297065,17.0169928462568
0.53461530934803,17.0177534299726
0.529682888327265,17.0185555134454
0.512912194020442,17.0193842110391
0.482799729316104,17.0202553616887
0.43743727637002,17.0211801254529
0.37513197591006,17.0221616541703
0.331220571450976,17.0227539335164
0.283476203240638,17.0233462128624
0.240940497024762,17.023848592374
0.204233032741109,17.0242751342724
0.171840287597268,17.0246545201436
0.14275331848418,17.0250044445815
0.116343879228426,17.0253361947375
0.092166417644259,17.0256582655041
0.0698428270628554,17.0259785962593
0.0489526351564538,17.026307173322
0.0287612811556388,17.0266632600537
0.00617417172862719,17.0271306979554
-0.00181655591367161,17.0273219424076
-0.00911679497009081,17.0275131868597
-0.0154102426730933,17.0276939577087
-0.0214342070384383,17.0278843673044
-0.0274259467606739,17.0280952780681
-0.0331601821195904,17.0283234365843
-0.0384989997530706,17.0285670691719
-0.043366840986202,17.0288256688825
-0.0477254212932734,17.0290995802836
-0.0515590015988691,17.0293897759787
-0.0548579998983486,17.0296977548308
-0.0576032762859614,17.0300230524569
-0.0598302436014103,17.0303698441879
-0.0615579105095152,17.0307417414156
-0.0628008336331673,17.0311425471401
-0.0635725607731605,17.0315769630121
-0.0638841256663341,17.032050873558
-0.0637422934009532,17.0325717658478
-0.0631468435210201,17.0331497084704
-0.0620849515992222,17.0337991716064
-0.0605269389581484,17.034539587348
-0.0584126259889879,17.0354010562637
-0.0556134301503857,17.0364378123744
-0.05176987677324,17.0377857334912
-0.0477253442828933,17.0391742238996
-0.0438255711924433,17.0405186317425
-0.0401133838053298,17.0418228863855
-0.0366098300949237,17.0430888956259
-0.033325551028601,17.0443172992028
-0.030264851276193,17.0455080991019
-0.0274276035484805,17.0466609958665
-0.024810329835586,17.0477755653468
-0.0224069449340823,17.0488513487596
-0.0202093488723207,17.0498878934129
-0.0182079389768818,17.0508847636808
-0.0163920658527849,17.051841532841
-0.0147504396831187,17.0527577616123
-0.0131934486260571,17.0536806470504
-0.0116968367660527,17.0546272635304
-0.0102649120001518,17.0555993386281
-0.00890158689884577,17.0565990458559
-0.00761056924382437,17.0576289408045
-0.00639531045775591,17.0586920575283
-0.00525895362246459,17.0597920347191
-0.004204279355599,17.0609332863289
-0.00323364945974087,17.0621212378599
-0.00234894782876885,17.0633626629042
-0.00155151739396714,17.0646661787443
-0.000842090648802828,17.0660430063167
-0.000220708931583703,17.0675081954278
0.000313379293831916,17.0690827303815
0.000744317588910204,17.0707203426215
0.00107917076822515,17.0724088469317
0.00133365504095773,17.0741666633058
0.00152206170958944,17.0760163854444
0.001657858205483,17.0779885609181
0.00175412992145299,17.0801272297519
0.00182426457136735,17.0825018097754
0.00188336177185417,17.0852377523568
0.00195269666873023,17.0886272050768
0.00204512126372577,17.0923851007667
0.00216484060463835,17.0962522734502
0.00230396106904111,17.1000325385579
0.00245862358932456,17.1037966770735
0.00262537198921764,17.1075959739834
0.00280197228559678,17.111469758512
0.00298757248440969,17.1154515489924
0.00318257148078722,17.1195723979776
0.00338840310946291,17.1238629328566
0.00360732488396248,17.1283548492769
0.00384228098099733,17.1330822637614
0.00409692479086503,17.1380831941917
0.00437587822199916,17.1434009005452
0.00468532499515134,17.1490852998255
0.00499898587420588,17.1545878494075
0.00532523788344607,17.1600207396888
0.00566380123805046,17.1653321700563
0.00601895493774916,17.1705464521197
0.00639418766893495,17.1756709706754
0.00679355641280809,17.1807175849655
0.00722116156404638,17.1856936792657
0.00768137082775259,17.1906043761974
0.0081788846689084,17.1954523673492
0.00871887364509801,17.2002385495479
0.00930707946632333,17.2049622389725
0.00994991665292909,17.2096214882989
0.010655842957195,17.2142213948619
0.0114503825765719,17.2188530270562
0.0123478629286738,17.2235055284101
0.013371028441656,17.2281956038906
0.0145519380457327,17.2329561713556
0.0159440493582892,17.2378669224894
0.017661629411561,17.2431433769917
0.0201282866210832,17.2496929591593
0.0217853748413822,17.2536717922542
0.0235089506950554,17.2576506253491
0.0250085964076704,17.2611421047918
0.026272983731226,17.2642786406616
0.0273297604109729,17.2672576381027
0.0281473684065084,17.2701206939116
0.028697298717067,17.2728773344432
0.0289756135411502,17.275647003104
0.0289465327543016,17.2785911902097
0.0284782750958308,17.2820899790259
0.0276890206447032,17.2852376912068
0.026608404646072,17.2883854033877
0.0255266161239946,17.2910241173485
0.0244567424871727,17.2933882089408
0.0233861857653251,17.2956184611566
0.022314281763379,17.2977759135906
0.0212440450272359,17.2998932856211
0.0201791825054584,17.3019915338989
0.0191233534618589,17.3040856301194
0.0180799787275672,17.30618710474
0.0170521956550863,17.3083053716253
0.0160428549075884,17.3104485031534
0.0150545328900171,17.3126237177436
0.014089543498725,17.3148377199434
0.0131499516153769,17.317096947426
0.0122375879789082,17.3194077596373
0.0113540535914829,17.3217766206627
0.0105007364752382,17.3242102359173
0.00967881899990178,17.3267157078297
0.00888270212979551,17.3293230820495
0.00809753562010105,17.3321040417805
0.00732710774715427,17.3350785786203
0.00657522797829928,17.3382706204322
0.005845953628148,17.3417078721454
0.00514356051257737,17.3454225456736
0.00447249390117024,17.3494522486693
0.0038372764221081,17.3538412033192
0.00324234480477259,17.3586422003144
0.00269178905923343,17.3639201976435
0.00218903031218734,17.3697589253038
0.00173658282962841,17.3762716894307
0.00135323856239089,17.3832606742406
0.00108833298571379,17.3897367320321
0.000856106347305591,17.39738051743
0.000666137976720918,17.4057910102174
0.000515592999722195,17.4148992340766
0.000399075477210033,17.4248992340766
0.000319778494727333,17.4348992340766
0.00026689665554196,17.4448992340766
0.00023256799984947,17.4548992340766
0.000211216992665898,17.4648992340766
0.000199010038444163,17.4748992340766
0.000193367087738721,17.4848992340766
0.000192572629222796,17.4948992340766
0.000195500802364678,17.5048992340766
0.000201435503851287,17.5148992340766
0.000209956463562152,17.5248992340766
0.000220867858710023,17.5348992340766
0.000234155112047266,17.5448992340766
0.000249962475063462,17.5548992340766
0.000268588229929709,17.5648992340766
0.00029049709253514,17.5748992340766
0.000316351930440393,17.5848992340766
0.000347070188903115,17.5948992340766
0.000383915436648415,17.6048992340766
0.000428642806368002,17.6148992340766
0.000482752028038631,17.624736424655
0.000544703775957873,17.6338337789911
0.000615386731324603,17.6422259316045
0.000695980878214313,17.6499675167641
0.000787855464533601,17.657110004157
0.000892568489611072,17.6637011296815
0.00101188388180309,17.6697851746281
0.00114779717786069,17.6754032370085
0.00130256651309084,17.6805934709431
0.00147874829471988,17.6853913050258
0.0016792385445287,17.6898296493878
0.00190732234257963,17.6939390946776
0.00216673325250079,17.6977481022687
0.00246172604974749,17.7012831906611
0.00279716849371572,17.7045691261414
0.00317865837265873,17.707629123144
0.00361267795031836,17.7104850600422
0.00410680286974317,17.7131577257715
0.00466999511484148,17.7156671206817
0.00531303130559149,17.7180328489799
0.00603815284815178,17.7202440722762
0.00684064820222629,17.7222868273319
0.00773197959089765,17.7241968818595
0.00872975688063187,17.7260109880899
0.00986285362408071,17.7277711910405
0.0111869168952634,17.7295389163126
0.0129047726790966,17.731511510507
0.0146834477450381,17.7333005604936
0.0166416337421697,17.7350896104802
0.01830618014644,17.7365372303564
0.0197389854335142,17.7377816185783
0.0210180510031344,17.738937825499
0.0221588501243436,17.7400606523442
0.0231520710457184,17.7411894611162
0.0239717420913649,17.742366630668
0.0245681171444749,17.7436572647084
0.0248283303951994,17.7452147109586
0.0244919810168468,17.7470775840272
0.0235467343483165,17.7489404570958
0.0224452717330982,17.7504417826282
0.0212166343282464,17.751854678269
0.0198536871660685,17.7532830825943
0.0183642957024989,17.7547723694777
0.0167559937107438,17.75635968544
0.0150614005000544,17.7580901665961
0.0136739081840856,17.7596164216471
0.0113232086286309,17.7625055936297
0.0093773069495481,17.7652912344297
0.00782916021957476,17.7678710735912
0.00653711677813806,17.7703688783905
0.00540586195490723,17.7729108759315
0.00441025118398794,17.7755253211567
0.00353230609733755,17.7782354805091
0.0027573662141732,17.7810649825536
0.00207344549175385,17.7840369357445
0.00152846522120514,17.7868457640267
0.00108129009860933,17.7895456737872
0.000703322672426796,17.7921925108606
0.000378674957195238,17.7948067568653
9.97553814096761e-05,17.7973651739986
-0.000140518204686326,17.7998479239325
-0.000352152032808339,17.8022838580132
-0.000546988112528989,17.8047590835753
-0.00074249213691165,17.8074875902347
-0.000900241638506299,17.8098771018802
-0.00104787434185256,17.8122666135257
-0.00116309277878557,17.8142314580992
-0.00126098155348884,17.8159657566716
-0.00135274223835151,17.8176416787393
-0.0014446950920213,17.8193653856492
-0.00154349367344304,17.8212611880314
-0.00166249806050684,17.823595996582
-0.00189009817289288,17.828179923149
-0.00209845355416247,17.8324811313549
-0.00227078826975999,17.8361136426448
-0.00244799252734515,17.8399533796994
-0.00266146213428605,17.8448678928227
-0.00285343805528252,17.8500646999689
-0.00296930758087045,17.8548299027781
-0.00299086965818405,17.8588730727624
-0.00292169216860783,17.8625038233141
-0.00274994709973605,17.865989890235
-0.00246559603140045,17.8693094684788
-0.00207570333681485,17.8723748062671
-0.00158313844929446,17.8752234708516
-0.000982717120070702,17.8779182957111
-0.000252634081968081,17.8805513693086
0.000662305042465078,17.8832653452911
0.00189932751395946,17.8863282532862
0.00340206956984562,17.8895083700031
0.00503874446753509,17.8925678742909
0.00633443148450032,17.8947713213384
0.00774904244514524,17.8969747683858
0.00916335281470893,17.8989687230793
0.0105905089511773,17.90077341807
0.0120805457960589,17.9024487535966
0.0137094950085192,17.9040632499035
0.0154764762491407,17.9055951725708
0.017438512185873,17.9070751330862
0.019615286884068,17.9084974379695
0.0220431502474258,17.909867848962
0.0247551143247603,17.9111878759747
0.0277816420717621,17.9124570678377
0.0311680608200303,17.9136801812517
0.034960342970496,17.9148597915914
0.0392117294956739,17.9159988552803
0.0439823011485026,17.9171001346399
0.049347740828161,17.9181677095501
0.0553952866562161,17.9192052145782
0.0622294814209725,17.9202164910484
0.0699771750650891,17.9212056667444
0.0787939871725649,17.9221772206303
0.0888764349983011,17.9231363839244
0.100475716768393,17.9240892142189
0.113923266184734,17.9250431713441
0.129673331238033,17.9260079815806
0.14838234605496,17.9269972959399
0.170286970421741,17.9279987382435
0.195718093702571,17.9290090961448
0.225413596140077,17.9300418221192
0.260418363626935,17.9311173209641
0.302067785981003,17.9322631553821
0.336360830164407,17.9331373937924
0.371988751126821,17.9340116322026
0.403748338489615,17.9347887746594
0.431570907339151,17.9354952250968
0.455827851365609,17.936163329349
0.47647772471611,17.9368168231605
0.493106322903146,17.937477024719
0.504829138937669,17.9381684491127
0.509896123929102,17.9389276266428
0.505309093119763,17.9397486681548
0.489366291318293,17.9405890521553
0.460724239476879,17.9414632132066
0.417731957703146,17.9423815069954
0.358593761957877,17.9433537315017
0.317388101017459,17.9439333729023
0.272632546228007,17.944513014303
0.23244532627257,17.9450088896994
0.197430901988959,17.9454339932697
0.166331916573352,17.9458144878378
0.13829067378753,17.9461668220854
0.112758446875141,17.9465017440714
0.0893359104890069,17.9468275136967
0.0676753277630409,17.9471519912646
0.0473792481324795,17.9474852193497
0.0277349959396694,17.9478468268504
0.00974187177497241,17.9482282368127
0.000856090614598472,17.9484420132718
-0.0072040842932721,17.9486557897309
-0.0136742006033519,17.9488448362136
-0.0195759271731246,17.9490344696104
-0.0254979540509693,17.9492457583224
-0.0312015691321783,17.9494751543775
-0.0365344779787644,17.9497205003652
-0.0414127176674686,17.9499810565116
-0.0457930075231308,17.9502570209428
-0.0496536877275989,17.9505492637917
-0.053176489180998,17.9508798968241
-0.055918010886312,17.9512080792453
-0.05814832556723,17.951557930773
-0.0598835863742262,17.951932773242
-0.0611379085667752,17.9523363307916
-0.0619246055433597,17.9527731991621
-0.0622547121070808,17.9532491099975
-0.0621353237667836,17.9537713222125
-0.0615671505955594,17.9543494858869
-0.0605390951922889,17.9549975504722
-0.0590247824685794,17.955733890413
-0.0569709620799051,17.9565864473473
-0.054266652954728,17.9576038875525
-0.0506234054152693,17.9588986844679
-0.0466292359876793,17.960285606736
-0.0427773203664196,17.9616266734193
-0.0391125465368139,17.9629263108216
-0.0356563082441319,17.9641868254688
-0.0324191130162867,17.9654091023136
-0.0294049394533341,17.966593302567
-0.0266132720637592,17.9677392361037
-0.0240402503688848,17.9688465571309
-0.0216794492055055,17.9699148643153
-0.0195224903285132,17.9709437468763
-0.0175595625856641,17.9719327983643
-0.0157798789912258,17.9728816098458
-0.0141720794496921,17.9737897489011
-0.0126264355699305,17.9747174510732
-0.0111421477032823,17.9756691103204
-0.00972330511352363,17.9766466243801
-0.00837378625079624,17.9776522375808
-0.00709725225392449,17.9786885939748
-0.00589709650524403,17.979758838178
-0.00477639221250855,17.9808667491811
-0.00373783777669673,17.9820169220746
-0.0027836997662363,17.9832150210127
-0.00191575283533287,17.9844681417157
-0.00113521510548026,17.9857853492658
-0.000442676056207311,17.9871785102955
0.00016198885128753,17.9886636500787
0.000679728672753836,17.9902633197865
0.00109070597938299,17.9919097558387
0.0014091226523441,17.9936109401774
0.00165027471269155,17.9953855367098
0.00182829575233304,17.9972574757718
0.00195658720072758,17.9992594742074
0.00204830634811187,18.0014394452752
0.00211716218950677,18.0038746482462
0.0021791901119176,18.0067101212718
0.00225911658676606,18.0103129451427
0.00236261587388336,18.0141056232254
0.00249029410387952,18.017879870682
0.00263905089020104,18.0216440204403
0.00280521387004244,18.0254469978403
0.00298550752195898,18.0293273963821
0.00317793318980056,18.0333184040875
0.00338196175856053,18.0374508873192
0.003598432610367,18.0417554455192
0.00382935598781633,18.046263840446
0.00407774932588515,18.0510103568338
0.00434761886696497,18.0560332335384
0.0046441949885317,18.0613759712499
0.00496686075074562,18.0669571853823
0.00529494177551657,18.0723605706376
0.00563739992004461,18.077697929095
0.00599439048493423,18.082924332836
0.00637039508651989,18.0880615580472
0.00676919769533648,18.0931159948781
0.00719517111808301,18.098097470745
0.00765282247080653,18.1030118701324
0.00814699911072829,18.1078629180892
0.00868295324188445,18.1126520266252
0.00926646912629377,18.1173788441809
0.00990397139105572,18.1220416266751
0.0106028079283647,18.1266388059484
0.0113892222619628,18.1312688511577
0.0122770165284334,18.1359189343742
0.0132884335027592,18.1406050387385
0.0144544478908996,18.1453577348774
0.0158259603211112,18.1502510087139
0.0175088352226597,18.155481525065
0.0198746607988216,18.1618420886137
0.0215690883824703,18.1659470816487
0.0233429920124156,18.1700520746838
0.0248733408209682,18.1736030033666
0.026159872097275,18.1767654401934
0.0272375508311517,18.1797535452293
0.0280826299801255,18.182633648852
0.0286592584124637,18.1853956321887
0.0289657053481436,18.1881576326123
0.0289705674187027,18.1910734605574
0.0285600290352542,18.194478762023
0.0277841742736007,18.1977233341282
0.026692330130748,18.2009679062334
0.0256059842157101,18.2036421563823
0.0245356130331316,18.2060195547455
0.0234652170612044,18.2082562124202
0.0223933925739314,18.2104169643958
0.0213230243385359,18.2125357718964
0.0202578064420406,18.2146341500321
0.0192014120857981,18.2167273667451
0.0181572835066627,18.2188271191293
0.0171285807543271,18.2209429144597
0.016118177244996,18.2230828705324
0.0151286714276163,18.2252542170218
0.0141623980531267,18.2274636431842
0.0132214427996832,18.2297175453343
0.0123076548140596,18.2320222217284
0.0114226532609991,18.2343840493745
0.0105678443108649,18.2368096169046
0.00974442462084526,18.2393058868731
0.00894754039337809,18.241900116213
0.00816133593835315,18.2446664054408
0.00738959331904994,18.2476244702958
0.00663610531708243,18.2507979454
0.00590491404887249,18.2542141841011
0.00520028430971106,18.257904967033
0.00452665445437745,18.2619073792531
0.00388854932722153,18.2662649828643
0.00329042384790867,18.2710296763139
0.00273640777352199,18.2762651205918
0.00222998850036295,18.2820529977393
0.00177375568830022,18.288503450327
0.00138514185144267,18.2954502150991
0.00106952107117077,18.3029454258221
0.00081556697730135,18.3114500791292
0.000644382855050538,18.3193208992695
0.00049410807188963,18.3286805401086
0.0003813001423133,18.3386805401086
0.000304255355780543,18.3486805401086
0.000252669932029032,18.3586805401086
0.000219026763480102,18.3686805401086
0.00019795631849954,18.3786805401086
0.000185744574736244,18.3886805401086
0.000179884862100731,18.3986805401086
0.000178709611804728,18.4086805401086
0.000181123948766367,18.4186805401086
0.000186429146770896,18.4286805401086
0.000194210438773016,18.4386805401086
0.000204266641078361,18.4486805401086
0.000216567114345292,18.4586805401086
0.000231228348786614,18.4686805401086
0.000248506678353065,18.4786805401086
0.000268806234441992,18.4886805401086
0.000292703416761959,18.4986805401086
0.000320991770353875,18.5086805401086
0.000354754999976158,18.5186805401086
0.000395482068109009,18.5286805401086
0.000445249057460306,18.5386805401086
0.000503935098820507,18.5482258553688
0.000571051488515667,18.5570388688608
0.00064763195235561,18.5651653152379
0.000734962802345402,18.5726594367909
0.000834522973325042,18.5795718709028
0.000947991884487755,18.5859495237586
0.00107727143300145,18.5918358700854
0.00122451472724646,18.5972712279803
0.00139216038022036,18.6022930005546
0.00158297144032419,18.6069359011157
0.0018000823513646,18.6112321678941
0.00204705429573216,18.6152117699718
0.00232794390239496,18.6189026037588
0.00264738752522748,18.6223306899332
0.00301070977416025,18.6255203793136
0.00342406490438086,18.628494572565
0.00389462626829037,18.631274964845
0.00443085034481248,18.6338823388845
0.00504285781402267,18.6363369404494
0.00574188581037701,18.6386555983431
0.00651573193158476,18.6407911809855
0.00737464182305211,18.6427805731172
0.00833455333011208,18.6446617439586
0.00942099301031597,18.6464764364566
0.0106812519008035,18.6482818744056
0.0122560451439518,18.6502224780734
0.0146612477053543,18.6527554839051
0.0161572170058789,18.6541732904383
0.0177190297821893,18.6555910969715
0.0191388286541422,18.6568720398956
0.0204083800399076,18.6580573369017
0.0215415471058846,18.6592015883946
0.0225314233652963,18.6603452722629
0.0233549035138868,18.661529654668
0.0239676618937869,18.6628144380642
0.024274585745159,18.6643284588996
0.0238937451788149,18.6666183011128
0.0231423259139045,18.6681406348793
0.0220866958446785,18.6696629686459
0.0208956657484389,18.6710909844213
0.0195722892712922,18.6725244458327
0.0181257222040332,18.6740102337767
0.016564543123717,18.6755849076177
0.0153563675314334,18.6768222658535
0.0142107089315436,18.6780596240892
0.0118632849459378,18.6808574831577
0.00980796923411051,18.6836974695036
0.00817485008016343,18.6863249796826
0.00683716551071064,18.6888206665768
0.00566780582648583,18.6913521119238
0.00463892293302619,18.6939501700125
0.00373152736177402,18.6966383830798
0.00293032258016197,18.6994401767891
0.00226218568375898,18.702201012229
0.00172412683838466,18.7048066903239
0.00128092887770111,18.7072934629964
0.000906657088430951,18.7097031905447
0.000583366209789971,18.7120727210798
0.000298393742312815,18.714434673482
4.09999753540313e-05,18.7168341291818
-0.000203067376149413,18.7193860163589
-0.000474030212556141,18.722588107569
-0.000622663766038767,18.7245305428143
-0.000761469173882836,18.7264729780597
-0.000880053631748729,18.7282345324634
-0.000986158697542731,18.7298918318434
-0.00108795670985096,18.7315537958947
-0.00119207985001294,18.7333253202405
-0.00130804540828197,18.735380471786
-0.00146590269006737,18.7383079143885
-0.00165774716572139,18.7420457391652
-0.00181137621503514,18.7451651219602
-0.00195610555170132,18.7481974960519
-0.00211612548725832,18.7516582212141
-0.0023099798614378,18.7560426349873
-0.00252921985823228,18.7614854715188
-0.00269083709446228,18.7665260782477
-0.00277254444359269,18.7710243141777
-0.00276352729817931,18.7750510065161
-0.00265764376338755,18.7786705232241
-0.0024517083560297,18.7819668994568
-0.00214300449363472,18.7850100633558
-0.00172833898929911,18.7878543557255
-0.00120087117900389,18.7905551566278
-0.000543358843884648,18.7931858179638
0.000293574774187992,18.7958843186076
0.00143256390322355,18.7989048943214
0.00287709083781406,18.8021424687294
0.00452207952803461,18.8053774862445
0.00585561364348456,18.8077588567263
0.00731257701263524,18.8101402272081
0.00864973572154362,18.8121189607979
0.0100218227010965,18.8139440725563
0.0114448997611706,18.8156284436869
0.0129931933571648,18.8172446708529
0.0146906257222706,18.8187945286065
0.0165719633974847,18.8202879975939
0.0186646228227706,18.8217260418731
0.0210008291027062,18.8231118587189
0.0236053485469089,18.8244433367715
0.026517385449941,18.8257253329982
0.0297744395866104,18.8269597206573
0.0334167467262399,18.8281481284078
0.0374972310874935,18.8292946369196
0.0420746090071898,18.8304025270709
0.0472172989285872,18.831475146212
0.0530061784107691,18.8325160082205
0.0595364094371562,18.8335286115955
0.0669251889672573,18.8345170648816
0.0753140345810805,18.8354855681818
0.0848780436895597,18.8364387625612
0.0958379748903201,18.8373819480984
0.108478275900399,18.8383213870354
0.123177769993075,18.8392649280515
0.140459813186903,18.8402228858172
0.161089866716059,18.8412099664728
0.184969947204223,18.8421988297547
0.212719291411963,18.843199574991
0.245165044337992,18.8442264527179
0.283512733224651,18.845302293269
0.328443556000461,18.8464384710731
0.370040163440801,18.8474217087084
0.404537230925384,18.8482211389314
0.434320304822716,18.8489272183715
0.460356108661164,18.8495860188549
0.482807361793352,18.8502246658272
0.501396733792669,18.8508652485038
0.515398104552546,18.8515317298668
0.523329481901286,18.8522585580618
0.52221490259786,18.8530649056564
0.509844869181862,18.8538888455358
0.484938482708691,18.8547468356663
0.44580272693329,18.8556510878909
0.390531813725367,18.8566102736297
0.345814027078121,18.8572583732989
0.296056825313108,18.8579064729681
0.251756410343244,18.8584466767207
0.213888519059973,18.8588959855114
0.180678725986233,18.8592899903664
0.150958961590103,18.8596498147582
0.124032555691511,18.8599882421053
0.0994280405617514,18.8603143433056
0.0767690328555253,18.8606359639293
0.0556775531570707,18.8609619259513
0.0356019217260274,18.8613065992687
0.0149939836806195,18.8617124602656
0.00204802619518174,18.862007488245
-0.00532358501581514,18.8621949790969
-0.0120606451661027,18.8623824699489
-0.0179268272209231,18.8625614321774
-0.0239260080631549,18.8627635642806
-0.0297791210863716,18.8629847637747
-0.0353007392615282,18.8632222868757
-0.0403870733543881,18.863475009187
-0.0449830557913321,18.8637428625875
-0.0490627241264891,18.8640265110465
-0.0526121142646537,18.8643271900764
-0.0556728705320584,18.8646524010665
-0.0581307334069818,18.8649903211384
-0.0600838994493564,18.8653517468525
-0.0615474625681135,18.8657402083581
-0.0625354700797447,18.8661599354595
-0.0630602439296941,18.8666161849293
-0.0631307874716309,18.8671155795187
-0.0627508448166185,18.8676666268238
-0.061914348034217,18.8682816892331
-0.0606012030488044,18.868977138528
-0.0587696150549586,18.8697767153048
-0.0563345516298813,18.8707194752879
-0.0530974810611454,18.8718848880672
-0.049030065564139,18.8732974364538
-0.0450776940478281,18.8746602468381
-0.0412973071256793,18.8759806757678
-0.0377176024865702,18.8772617827524
-0.0343532223604332,18.8785048052515
-0.0312109207840705,18.8797100571556
-0.0282922611606056,18.8808773987824
-0.0255950176122421,18.8820064841717
-0.0231140572744695,18.8830968896917
-0.0208419988202691,18.884148176823
-0.018769761332568,18.8851599164344
-0.0168870459803498,18.8861316891218
-0.0151827639242242,18.8870630695871
-0.0136053591775295,18.8879775321991
-0.012086418525316,18.8889153088787
-0.0106306768487134,18.8898778189885
-0.00924210928159288,18.8908671168678
-0.0079245065122987,18.8918856078476
-0.00668142110193623,18.8929361375055
-0.00551611639942962,18.8940221051738
-0.00443151323534125,18.8951476162367
-0.00343013444761082,18.8963176910929
-0.00251404690176431,18.8975385595465
-0.00168480008878764,18.8988180887223
-0.000943359377320067,18.9001664289071
-0.000290030148364354,18.9015970343595
0.00027563469513383,18.9031283734643
0.000746096613800236,18.9047519347868
0.00111401928249729,18.9064195741247
0.00139606705274424,18.9081495954873
0.00160692491690205,18.9099624587551
0.00176032877153361,18.9118853278163
0.00186945578546694,18.9139563539672
0.00194749617196459,18.9162335057189
0.00200869854540192,18.9188155872142
0.00207113095585777,18.921907436365
0.00215618214759356,18.925640794224
0.002268248575972,18.9295222095454
0.00240149505529788,18.9333071466226
0.00255261864787874,18.9370692603527
0.00271790922578586,18.9408616996558
0.00289463526089423,18.9447246904749
0.00308145882840612,18.9486921731257
0.00327840070718181,18.9527953176375
0.0034866534773845,18.9570646885918
0.0037083673252393,18.9615317680278
0.00394649122682102,18.9662302904365
0.00420476313718,18.9711977118894
0.00448793292698049,18.976476540427
0.00480232635304379,18.9821157462332
0.00512135592207977,18.9875735148675
0.00545395159819745,18.9929687123119
0.00579965940727258,18.9982468336002
0.00616282755279709,19.0034311283035
0.00654702443984461,19.0085279786629
0.00695644770568047,19.0135485523514
0.00739537639668649,19.0184997646205
0.00786838878114959,19.0233863453897
0.00838041836162731,19.0282105741147
0.00893688708747361,19.032972889741
0.00954381166490654,19.0376721929441
0.0102079110049679,19.042306244847
0.0109444648769686,19.0469183143881
0.0117743537652031,19.0515564334798
0.01271486171054,19.0562205232087
0.0137914119900062,19.0609311685859
0.015041948310546,19.0657338972253
0.0165346032967365,19.0707410304729
0.0184380432778037,19.0762899609867
0.0209111451704858,19.0825810109069
0.0224886844815093,19.0862844028041
0.0240979269960073,19.0899877947013
0.025501898922931,19.0933119217541
0.0266887013276139,19.0963717162253
0.0276686683482882,19.0993287581296
0.0283859962286559,19.1021392112513
0.0288365565498554,19.1048855739795
0.0290072496328427,19.1076963417249
0.0288408699589229,19.1107752282487
0.0280879157836281,19.1148031862421
0.0272437032001714,19.1176224195728
0.02618891542411,19.1204416529035
0.0251186843600889,19.1229382307653
0.0240495084498735,19.1252395527034
0.0229782495609237,19.1274365423412
0.0219066123500169,19.129575313155
0.0208380595552386,19.1316829566981
0.0197763229365816,19.13377769482
0.0187249826913863,19.1358729589271
0.0176873540507807,19.1379793397422
0.0166664655657677,19.1401056506406
0.015665062869134,19.1422595727065
0.0146856214245147,19.1444480746867
0.0137303612350666,19.1466777060489
0.0128012562493501,19.1489548279153
0.0119000502239889,19.1512857842335
0.011028263710336,19.1536770686942
0.0101872033124397,19.1561354765365
0.00937797909568996,19.1586682309618
0.00858555409000696,19.1613390278762
0.00780553076685468,19.1641904922026
0.00704166608464773,19.1672441564762
0.00629786713875704,19.1705252918854
0.0055782822245906,19.1740631911528
0.00488725906773273,19.1778919780898
0.00422928880324247,19.1820515614293
0.00360889013555214,19.1865890538738
0.0030304020714301,19.1915612698141
0.00249770423308678,19.1970391751357
0.00201388615174279,19.2031161426958
0.0015877701452782,19.2098025059278
0.00131286572429111,19.2151366318889
0.00109638604047036,19.2204707578501
0.000864660495484327,19.2279618866372
0.000673662740415063,19.2362599318439
0.00051963817760133,19.2453934950769
0.000400693097750245,19.2553934950769
0.00031957488925838,19.2653934950769
0.000265334910175169,19.2753934950769
0.000230008856519483,19.2853934950769
0.000207927850547678,19.2953934950769
0.000195179678558952,19.3053934950769
0.000189125968524003,19.3153934950769
0.000188011591800266,19.3253934950769
0.000190684638077543,19.3353934950769
0.00019641152742996,19.3453934950769
0.000204759586888928,19.3553934950769
0.000215523498579105,19.3653934950769
0.000228680691359864,19.3753934950769
0.000244367813610358,19.3853934950769
0.0002628748389494,19.3953934950769
0.000284656188501801,19.4053934950769
0.000310360756275111,19.4153934950769
0.000340885876186242,19.4253934950769
0.000377465035234556,19.4353934950769
0.000421807021197345,19.4453934950769
0.000476073867816918,19.4553524673136
0.00053826288955835,19.4645637742187
0.000609232389255224,19.4730583385866
0.000690156513372296,19.4808919360207
0.000782404790231542,19.4881172021371
0.000887538441989946,19.4947828996948
0.00100732620468392,19.5009342166937
0.00114376991108259,19.5066130583825
0.00129913568616393,19.5118583026911
0.00147599023042758,19.5167060298622
0.00167724240891167,19.5211897397204
0.00190619364376809,19.525340559949
0.00216659795250139,19.5291874447748
0.0024627361246222,19.5327573682106
0.00279950911524104,19.53607552179
0.00318255768218823,19.5391655232591
0.00361842097629669,19.5420496418334
0.00411475153031258,19.5447490566437
0.00468061858415151,19.5472841746676
0.00532695422959932,19.5496750493545
0.00605511075355556,19.551908057033
0.00686160884936209,19.5539732526749
0.00775856709795161,19.5559074506612
0.00876478678752643,19.5577489569296
0.00991179330216845,19.5595429378253
0.0112627532372976,19.5613589906404
0.0130625157045537,19.5634377488555
0.0146991659372264,19.5651051874788
0.016478808087629,19.566772626102
0.0180830465534354,19.5682122019504
0.0194806109238609,19.569467664111
0.0207289402129036,19.57063753103
0.021840494033713,19.5717750333516
0.0228051417650409,19.5729196835899
0.0235963585597749,19.5741145883103
0.024163500111485,19.5754267210862
0.0243902905921057,19.5770165153921
0.0240266471713463,19.5788829710614
0.0230769725302662,19.5807494267308
0.0219794093276272,19.5822600740634
0.0207581323342855,19.5836837636856
0.0194067188095216,19.5851223019205
0.0179332135326682,19.5866206264458
0.0163452535204482,19.5882156312666
0.0146806252959632,19.5899520613563
0.0130080289571453,19.5918516553612
0.010778660632404,19.5947093392554
0.0089520634920177,19.5974337757281
0.00748679258209442,19.59997241956
0.00623793443489923,19.602481042963
0.00514200644073303,19.6050421798727
0.00417649854966066,19.6076818575846
0.00332447698414044,19.6104232999338
0.00257194035064506,19.6132905486213
0.00195254016004751,19.6160845029863
0.00145192881206904,19.6187321631005
0.00103645260946372,19.621279600275
0.00068288411013864,19.623769388938
0.000376398928295166,19.6262282470876
0.000107091463603184,19.6286710704148
-0.000134582762140108,19.6311317739714
-0.000362504645222057,19.633723728767
-0.00061205049820925,19.6369058952533
-0.000755381602235229,19.6389119539748
-0.000889851011013785,19.6409180126963
-0.00100500009675719,19.6427324689913
-0.00110784874497147,19.6444277155824
-0.00120653940467563,19.6461187196406
-0.00130752546900578,19.6479112194132
-0.00141974487475422,19.649971899161
-0.00156936869183441,19.652820596
-0.00177182883271419,19.65683120441
-0.0019331011181328,19.6601360935204
-0.00208152454221601,19.6632581736069
-0.00224477838987228,19.6667933281357
-0.00244139348626765,19.6712628486809
-0.00264975754001976,19.6765700288913
-0.00279589648960121,19.681535024017
-0.00285436261873809,19.6859525216772
-0.00281888403326427,19.6897873797821
-0.00268505397072902,19.6933341326993
-0.00244565937304394,19.6966388389125
-0.00210049186276909,19.6997019636347
-0.00164818661846725,19.702568212214
-0.00108347519770024,19.7052880617556
-0.000388354442186202,19.7079388762057
0.000484655735424573,19.7106491150608
0.00167184815778489,19.7137019616865
0.00315987211952579,19.7169467317147
0.0047938012992135,19.7200745083974
0.00612897454414381,19.7223903514301
0.00759196041457875,19.7247061944628
0.0089626842982694,19.7266660452437
0.0103791222467379,19.7284830313835
0.0118480961882611,19.7301579348908
0.0134499752117462,19.7317679400962
0.0151999290395596,19.7333062607901
0.0171418878884531,19.7347908643562
0.019296309066318,19.736217160775
0.0217003627603192,19.7375917745543
0.0243812145941755,19.7389134791298
0.0273767990527684,19.7401858292432
0.030727707994611,19.7414115452692
0.0344788802645471,19.7425931681772
0.03868039261489,19.7437331261367
0.0433960108770941,19.7448355030201
0.0486976879582801,19.7459037137533
0.0546706334259897,19.7469413376351
0.0614164683348207,19.7479521044793
0.0690583107825414,19.748940038376
0.0777482364864527,19.7499096500896
0.0876752884426766,19.7508659006664
0.099080377105841,19.7518145640786
0.112278731810371,19.7527626532557
0.127697442658513,19.753719154686
0.145944282873089,19.7546964375965
0.167453337484725,19.7556918987972
0.192396908588298,19.7566936654093
0.221468967006042,19.7577138726717
0.255629131611248,19.7587703985434
0.296390593987797,19.7598947471349
0.331891945709005,19.7607954549883
0.369110614576831,19.7616961628417
0.402117974978724,19.7624859835466
0.430939020565089,19.7631957317569
0.456121467694414,19.7638619988505
0.477721823987968,19.764510079445
0.495403709575234,19.7651615839152
0.5083821211484,19.7658404301771
0.515090191731868,19.76658116843
0.512554141824184,19.7673959367465
0.498774444518485,19.7682283459661
0.472454564736647,19.7690938585907
0.431939719969402,19.7700037282897
0.375404757361361,19.7709668809372
0.332491725333405,19.7715836906993
0.285237607441116,19.7722005004613
0.242963234077755,19.7727209439962
0.206485344996384,19.7731599001994
0.174294186379941,19.7735484292621
0.145379416226343,19.7739054347204
0.119119316836533,19.7742427455784
0.0950797325470068,19.7745690402966
0.0729015519451292,19.7748921161468
0.052205435960359,19.7752211847317
0.0323927468034996,19.7755723096576
0.0115192244112923,19.7759997539815
0.00143024512480151,19.7762374299777
-0.00583516329291852,19.7764260313058
-0.0124734181614967,19.7766146326338
-0.0183386587908965,19.7767974805789
-0.0243009130184243,19.7770030990557
-0.0300942192631326,19.7772275359489
-0.0355439993132756,19.7774682155866
-0.040553021968992,19.7777241272113
-0.0450701292848276,19.7779952833919
-0.0490717005582545,19.7782824120145
-0.0527331536079348,19.7786058499062
-0.0556139797076195,19.7789278279436
-0.057979166509516,19.7792707913262
-0.0598445521707331,19.7796378946863
-0.0612243110879617,19.780032676077
-0.0621321794003057,19.7804594969634
-0.062579973707633,19.7809237837915
-0.0625759791993361,19.7814323834935
-0.0621229599158815,19.7819941120905
-0.0612129237519116,19.7826220600358
-0.0598236901017519,19.7833331761537
-0.0579097950555679,19.7841525669379
-0.0553782701347257,19.7851222921739
-0.0520050792164544,19.7863313607114
-0.0479707170946354,19.7877333812589
-0.0440620530008472,19.7890872992052
-0.0403317587509602,19.7903990670522
-0.036805506326396,19.7916714858298
-0.0334962193497406,19.792905679533
-0.0304094839646757,19.7941019193774
-0.0275459747033852,19.795260058575
-0.0249027558939311,19.7963797609918
-0.0224741256359587,19.7974606194762
-0.0202522576513238,19.7985022125894
-0.0182277401262399,19.7995041250253
-0.0163900482859192,19.8004659452693
-0.0147279623453366,19.8013872479162
-0.013164100479344,19.8023074947721
-0.0116599796622351,19.8032513268988
-0.0102200463821402,19.8042203731936
-0.00884823504826504,19.8052167690415
-0.00754828095445068,19.8062430214381
-0.00632366809087854,19.8073021029938
-0.00517757744521531,19.8083975738841
-0.00411283308121644,19.809533746323
-0.00313184594588916,19.8107159116319
-0.00223655492751352,19.8119506624788
-0.00142836400520207,19.8132463653773
-0.000708073128011938,19.8146138814329
-7.57982156581092e-05,19.8160677207257
0.000469129001135598,19.8176280094343
0.000913398237181865,19.8192609590963
0.00125958953823232,19.8209425627979
0.00152372889536254,19.8226911665009
0.00172025596910411,19.8245286400522
0.00186275364142637,19.826484369528
0.00196437888854984,19.8286003501888
0.00203851963988687,19.8309419571044
0.00210010107714994,19.8336249675036
0.00216948177756464,19.8369079885821
0.00226274822042473,19.8406531715591
0.00238103590719798,19.844437507192
0.00252157757774989,19.8482001451308
0.00268098967929051,19.8519923924692
0.00285565221749856,19.8558545890314
0.00304299498467735,19.8598207725434
0.00324189791657936,19.8639221424975
0.00345266923738652,19.8681892490241
0.00367686700110559,19.8726535486666
0.00391710954859139,19.8773487390578
0.00417699788306557,19.8823122043692
0.00446125717653597,19.8875863315771
0.0047762256962127,19.8932199466028
0.00509605448164482,19.898684141211
0.00542892447009264,19.9040824100328
0.00577468410597758,19.9093647292751
0.00613759842306453,19.9145526243812
0.00652126866719517,19.9196528833834
0.00692988740746983,19.9246766518402
0.00736772957558515,19.929630936608
0.00783936066368069,19.9345205283466
0.00834969608899277,19.9393477724568
0.00890413391255075,19.9441131688964
0.00950866166103006,19.9488156728927
0.0101699629322911,19.953453079209
0.010902350008005,19.9580633735894
0.0117273610056578,19.9627004607921
0.0126618568447378,19.9673627656742
0.0137308492255096,19.972070209286
0.0149713591142861,19.9768663079928
0.0164491118756252,19.9818579999436
0.0183230617657448,19.9873608837432
0.0207927422074621,19.9936804418716
0.0221308061212082,19.9968402209358
0.0235027456336832,20
