ecg,time
0.00355034811536179,15.0020116530795
0.00379221469488992,15.0058055827344
0.00403871973676974,15.0095861296063
0.00429425865418709,15.0134035554873
0.00456285460764303,15.017296745829
0.00484856171686719,15.0212985704061
0.00515577908409186,15.0254393259796
0.00548951856275252,15.0297487800324
0.0058556929687222,15.0342574456587
0.00626153270206715,15.0389977842211
0.0067162477822811,15.0440054055812
0.00719630474382064,15.0489602575594
0.00770608829721268,15.0538712639567
0.00824801535914282,15.0587185644824
0.00882683238865495,15.0634978551566
0.00944848212829704,15.0682075083097
0.0101203047736343,15.0728493330207
0.0108606486351547,15.077484658473
0.0116886949864322,15.0821491152442
0.0126228649569049,15.0868494978186
0.0136891923474155,15.0916095731891
0.014926378845904,15.0964789570815
0.0164038547880501,15.1015776179723
0.0182960490329864,15.1072711681088
0.0207058349392731,15.1136305543304
0.0222401514257507,15.1173885128004
0.023797485882267,15.1211464712704
0.0251508262050715,15.1245261659072
0.0262905223909449,15.1276483766008
0.0272241678346653,15.1306751538875
0.0278954435069809,15.1335557846214
0.0283002747305819,15.1363799142913
0.0284224827689252,15.1392836755792
0.0281968089234853,15.1424936675197
0.0273120982586385,15.1468673420562
0.0264385095247469,15.149682414143
0.025376738959507,15.1524974862297
0.0243010625662437,15.1550245991306
0.0232264757280033,15.1573742338234
0.0221513277100187,15.1596276252614
0.0210777372889173,15.1618277873527
0.0200092206779894,15.1640007663973
0.018949495623339,15.1661644099428
0.0179021238142236,15.1683320492469
0.0168704153560199,15.1705142939471
0.0158574011860956,15.1727200453033
0.0148658411927866,15.1749570944626
0.0138982285257329,15.1772325344416
0.0129568024875157,15.1795530370525
0.0120435609463764,15.1819250575181
0.01116026139034,15.1843550237256
0.010308436113986,15.18684946382
0.00948940017772145,15.1894151359159
0.00870425375496704,15.1920591717461
0.00793951007504516,15.1948437281615
0.00718967032502577,15.1978176305976
0.00645851525052478,15.2010030951151
0.00574990742646754,15.2044262145543
0.00506788413847961,15.2081171531588
0.0044166059355942,15.212110914666
0.00380025538893517,15.2164484792967
0.00322288339247663,15.2211785781338
0.00268820153149078,15.226360649705
0.00219942088149808,15.2320706566192
0.00175889459609994,15.2384091611373
0.00137220808304557,15.2454282514012
0.00104869509331266,15.253007204954
0.000781647813115736,15.2612622640445
0.000564691313868214,15.2703497524833
0.000396951560809091,15.2803497524833
0.000286614135842254,15.2903497524833
0.000211450973669168,15.3003497524833
0.000159194433289546,15.3103497524833
0.000122872418366387,15.3203497524833
9.79857094794676e-05,15.3303497524833
8.1287214333019e-05,15.3403497524833
7.0366431798302e-05,15.3503497524833
6.34789070910385e-05,15.3603497524833
5.94062470558152e-05,15.3703497524833
5.73172404305333e-05,15.3803497524833
5.66489552807462e-05,15.3903497524833
5.70192003483854e-05,15.4003497524833
5.81678734684457e-05,15.4103497524833
5.99189464436664e-05,15.4203497524833
6.21554569841341e-05,15.4303497524833
6.4802497378782e-05,15.4403497524833
6.78153755677345e-05,15.4503497524833
7.11713668139174e-05,15.4603497524833
7.48640624494378e-05,15.4703497524833
7.88996105658031e-05,15.4803497524833
8.32943282769908e-05,15.4903497524833
8.80733124092116e-05,15.5003497524833
9.32697955498016e-05,15.5103497524833
9.89250873060958e-05,15.5203497524833
0.000105089010064575,15.5303497524833
0.000111820791497132,15.5403497524833
0.000119190419878964,15.5503497524833
0.000127280509236557,15.5603497524833
0.000136188764818085,15.5703497524833
0.000146031190759376,15.5803497524833
0.000156946247590292,15.5903497524833
0.000169100256242939,15.6003497524833
0.000182694470449711,15.6103497524833
0.000197974420662393,15.6203497524833
0.000215242401085835,15.6303497524833
0.000234874377554421,15.6403497524833
0.000257343221394425,15.6503497524833
0.000283251165146832,15.6603497524833
0.000313375977808724,15.6703497524833
0.000348738014695507,15.6803497524833
0.000390699833507581,15.6903497524833
0.000441118062507412,15.7003497524833
0.000500542878331568,15.7100437749928
0.000567716452102792,15.7190115152778
0.000643458325640471,15.7272915554037
0.000728837803316837,15.7349365011195
0.000825092871856311,15.7419957891382
0.00093363105791983,15.7485152987271
0.0010560467284564,15.7545376447033
0.00119414454366101,15.7601024510476
0.00134996943928081,15.7652465210572
0.00152583681605317,15.7700040013658
0.00172437102847987,15.7744065897123
0.00194854924902418,15.7784837686631
0.00220175735725984,15.7822629765962
0.00248784567553223,15.7857697302867
0.00281120950633445,15.7890278046325
0.00317688587961862,15.7920594462263
0.00359067411137379,15.794885520036
0.00405929644769816,15.7975256919905
0.00459061729226518,15.799998681625
0.00519394583173123,15.8023225119643
0.00588047727010377,15.8045148503082
0.00664302628294607,15.8065426527012
0.0074831323767369,15.8084170275168
0.00841213529134518,15.8101697880952
0.00944679063008532,15.8118325748937
0.0106137082988115,15.8134405036378
0.0119653944026442,15.8150460974178
0.0136894545901236,15.8168121232068
0.0159017070957665,15.818771458645
0.017616296937688,15.8201405903865
0.0194281609696445,15.821509722128
0.0210620483594375,15.8227227165215
0.0225222877388083,15.8238315078239
0.023835798465575,15.8248949218334
0.0250011606084919,15.8259529691729
0.0259985979325257,15.827043927699
0.0267879842288025,15.8282203529119
0.0272861489332547,15.8295884337034
0.0272948259904176,15.8311357191188
0.0268260191501146,15.8325561487246
0.0260076584691109,15.8339354719127
0.024925272960974,15.8353030095438
0.023662409793302,15.8366606855728
0.022243450964274,15.8380543604659
0.0206812541538965,15.8395222115186
0.0189831875258779,15.8411026662259
0.0176455813384517,15.8423742175268
0.0163809566324107,15.8436457688276
0.0144568961610689,15.8457513969854
0.0125075102056149,15.8481605086952
0.0105861458112786,15.8509164636403
0.009049901156712,15.853513819133
0.00780532998080456,15.8559937527911
0.00673866839355376,15.8585114331392
0.00582524454623165,15.8610966367475
0.00504980439670825,15.863772556689
0.00440231680926841,15.8665623934925
0.00387742992384123,15.8694910148395
0.00347499404139193,15.8725863564132
0.00320188470658414,15.8758809766607
0.00307608429734687,15.8794140209298
0.00311433705401517,15.882687628405
0.00328586645132835,15.8856339138072
0.00356885433987056,15.8883011029171
0.00395220337565,15.890735674671
0.00443257187136249,15.892981342744
0.00501480050383725,15.8950853376367
0.00571302108881728,15.8970971955952
0.0065554459958077,15.8990745462612
0.00759511437935922,15.9010926736468
0.00893521724695018,15.9032644030193
0.0107672421380299,15.9057492783871
0.0125505085570842,15.9078164560745
0.0146006618602198,15.9098836337619
0.0166144885242619,15.911653847292
0.0186476874903528,15.9132197227782
0.0207906379888105,15.9146648299587
0.0231068211889482,15.9160275822857
0.0256557072454005,15.9173304575283
0.028476984024075,15.9185786283442
0.0316216594628229,15.9197794497302
0.0351364102842523,15.9209356238607
0.0390780865431674,15.9220512571196
0.0435012385528811,15.9231277772983
0.0484763896489799,15.9241688615418
0.0540791369764755,15.9251769999733
0.0604000918332674,15.9261553187141
0.0675450996289013,15.9271069378043
0.0756393260629928,15.9280350704522
0.0848343795297135,15.9289432764971
0.0953136105899979,15.9298352907683
0.107302789141432,15.9307152245338
0.121083480139516,15.9315876667784
0.137012109589591,15.9324578492901
0.155549614762246,15.9333319797331
0.177309427762549,15.9342178126283
0.203150064560121,15.9351259977909
0.233080501049734,15.9360365168287
0.267769241020602,15.9369554692492
0.308199572485053,15.9378960088877
0.355965691372072,15.9388846813266
0.393835743984383,15.9396084723542
0.433190501001191,15.9403322633818
0.468117484349285,15.9409739759693
0.498738868486653,15.9415599285349
0.525678432905242,15.9421221571719
0.548936659879295,15.9426844982091
0.568008040581564,15.9432716522538
0.58166162433177,15.9439209686834
0.586719493448489,15.9446603703869
0.580030573525518,15.9454221805331
0.560378942914573,15.9462286016969
0.527043846170644,15.9470728160274
0.480856903549909,15.9479315519746
0.41928024038271,15.9488434406742
0.367647132290785,15.94950008142
0.310866763478467,15.9501567221659
0.261652933213054,15.9506944035439
0.2205054871613,15.9511350393397
0.184895899318553,15.9515186038497
0.153281609538485,15.951867847404
0.124786167222593,15.9521960800798
0.098834634409532,15.9525126193317
0.0749746845727515,15.9528256054825
0.0527468535762998,15.9531445697977
0.0314355769539517,15.9534864112933
0.00857255666934332,15.9539127750594
-0.0011838196592027,15.9541223913966
-0.0100069414760666,15.9543320077338
-0.0166925375608778,15.9545070595477
-0.0228536442002911,15.9546840614044
-0.0290733823645795,15.9548820609996
-0.0350922716713175,15.9550975793571
-0.0407436821722918,15.9553284896333
-0.045934353233916,15.9555740202773
-0.0506153155021029,15.9558343066682
-0.0547644769516466,15.9561101387182
-0.0583763059660371,15.9564028389211
-0.0614555190141074,15.9567142228694
-0.0640106722278544,15.9570466157094
-0.0661580899139954,15.9574269484045
-0.0676402176773465,15.9578091968718
-0.0686400074434765,15.9582229385158
-0.0691718665184283,15.958674034614
-0.0692448483283729,15.9591695485125
-0.0688618745142172,15.959718661567
-0.0680144059872407,15.9603349496705
-0.0666774419294985,15.9610366024379
-0.0647983574967417,15.9618511824879
-0.0622650338864161,15.9628269566901
-0.0587817219122668,15.9640765784466
-0.0546984439621078,15.9654921182434
-0.0507197427974556,15.9668632002824
-0.0469015199053525,15.9681949565136
-0.0432726010413503,15.9694894855698
-0.0398488249104042,15.9707474491313
-0.0366386149246643,15.9719687898274
-0.0336453761905423,15.9731531126934
-0.0308687241217009,15.9742998868305
-0.0283052609642651,15.9754085501317
-0.0259491693693856,15.976478559624
-0.0237927253156991,15.977509409486
-0.021826764457868,15.9785006285483
-0.0200411101913647,15.9794517638194
-0.0184249617919075,15.9803623536542
-0.0168760622602952,15.9812880150338
-0.0153854212634059,15.9822375751466
-0.0139571318839352,15.983212867122
-0.0125950103590306,15.9842161055132
-0.0113026539428135,15.9852498986692
-0.0100833860262116,15.9863173477916
-0.0089401987424471,15.9874221778246
-0.00787569184211903,15.9885689149847
-0.0068920069405716,15.9897631334604
-0.00599075531578925,15.9910118081836
-0.00517293581095782,15.9923238368099
-0.00443883634418942,15.9937108447901
-0.00378790643451449,15.9951884927842
-0.0032185746848388,15.9967787448768
-0.00275111011490201,15.9984215482585
-0.00237400632490524,16.0001177003303
-0.00207150669389428,16.0018857430735
-0.001828932696467,16.0037490935445
-0.00163210654689243,16.0057396359656
-0.00146672127002182,16.0079037929247
-0.00131723032223649,16.0103157826201
-0.00116424901121792,16.0131129262018
-0.000975192499241071,16.0166316359933
-0.00075958694285314,16.0203978786429
-0.000513330010543398,16.0243558026674
-0.00023678937457456,16.028527429978
6.50625619616147e-05,16.0329356429468
0.000386074924256481,16.0376043634753
0.000721234788103334,16.0425586774904
0.00104811483031989,16.0475193298051
0.00133789484155232,16.0520346309512
0.00160904359187763,16.0563566953294
0.00187924391234456,16.0607420551117
0.00217209749992498,16.0655599484347
0.00247070153967295,16.0705061294043
0.00276806042756407,16.0754303440659
0.00305394335339987,16.0801304531393
0.00330745103814314,16.0842455987403
0.00355035978006601,16.088128513493
0.00379222629135365,16.0919224397886
0.00403873160662373,16.0957029878662
0.00429427107963068,16.0995204182841
0.00456286785371058,16.1034136158819
0.00484857605415428,16.107415450113
0.00515579481006671,16.1115562176476
0.00548953601811874,16.1158656859848
0.00585571255904032,16.1203743683292
0.00626155493157937,16.1251147262497
0.00671627330882103,16.1301223698969
0.00719633092232078,16.1350772130214
0.00770611609728423,16.1399882187154
0.00824804467919115,16.144835515181
0.008826863570678,16.1496148022197
0.0094485155105518,16.1543244516361
0.0101203407948122,16.158966272858
0.0108606886927533,16.1636016001243
0.0116887398306466,16.1682660583108
0.0126229157588601,16.1729664433038
0.013689250693549,16.1777265227446
0.0149264472667082,16.1825959144527
0.0164039383406363,16.1876945927729
0.0182961634930776,16.1933881951052
0.0207059496762295,16.1997475460367
0.0222402561529849,16.2035054704643
0.0237975757569579,16.207263394892
0.0251509018181859,16.210643066714
0.0262905854982783,16.2137652670961
0.0272242180319768,16.2167920427339
0.0278954770940126,16.2196726664879
0.0283002914567639,16.2224967965433
0.0284224805595056,16.2254005681656
0.0281967806099799,16.2286105918607
0.0273119922423973,16.2329844372135
0.026438392719605,16.2357994561257
0.025376623898836,16.2386144750379
0.0243009486003357,16.2411415606458
0.0232263617794923,16.2434911816298
0.0221512137830692,16.2457445655503
0.0210776237113768,16.2479447235619
0.0200091078417504,16.2501177007643
0.0189493839156222,16.2522813440797
0.0179020135984681,16.2544489844021
0.0168703069669018,16.2566312311436
0.0158572949289124,16.2588369854198
0.0148657373441742,16.2610740382853
0.0138981273349121,16.2633494826989
0.0129567041771799,16.2656699904413
0.0120434657137799,16.2680420167236
0.0111601694081907,16.2704719894377
0.0103083475311352,16.272966436749
0.00948931512024196,16.2755321168052
0.00870417232690816,16.2781761613868
0.00793943001020045,16.2809607367968
0.0071895920339887,16.2839346603358
0.00645843912988717,16.2871201485251
0.00574983389422627,16.2905432945961
0.00506781362886083,16.2942342632596
0.00441653889107475,16.2982280588185
0.00380019224751509,16.3025656622025
0.00322282456711066,16.3072958054516
0.00268814738674549,16.3124779284504
0.0021993717401145,16.3181879959396
0.00175885065052249,16.324526573289
0.00137217111338765,16.3315457166797
0.00104866436985467,16.3391247339831
0.000781622637415015,16.3473798710866
0.000564671047718731,16.3564674561994
0.000396938175630029,16.3664674561994
0.000286605131926988,16.3764674561994
0.000211444830441036,16.3864674561994
0.000159190234614291,16.3964674561994
0.000122869582923236,16.4064674561994
9.79838392004198e-05,16.4164674561994
8.12860246883679e-05,16.4264674561994
7.0365719140505e-05,16.4364674561994
6.34785283526389e-05,16.4464674561994
5.94061036228387e-05,16.4564674561994
5.73172650794404e-05,16.4664674561994
5.66491023695559e-05,16.4764674561994
5.70194389721673e-05,16.4864674561994
5.81681828722426e-05,16.4964674561994
5.99193129661106e-05,16.5064674561994
6.21558719906924e-05,16.5164674561994
6.48029558417517e-05,16.5264674561994
6.78158750865422e-05,16.5364674561994
7.11719069465048e-05,16.5464674561994
7.48646442675576e-05,16.5564674561994
7.89002363725943e-05,16.5664674561994
8.32950014433388e-05,16.5764674561994
8.80740372992835e-05,16.5864674561994
9.32705775167929e-05,16.5964674561994
9.89259327473115e-05,16.6064674561994
0.00010508992653123,16.6164674561994
0.000111821787859461,16.6264674561994
0.000119191506552063,16.6364674561994
0.000127281698477429,16.6464674561994
0.000136190071110305,16.6564674561995
0.000146032631309269,16.6664674561995
0.000156947842968615,16.6764674561995
0.000169102031220086,16.6864674561995
0.00018269645509264,16.6964674561995
0.000197976651791036,16.7064674561995
0.00021524492423111,16.7164674561995
0.000234877249627722,16.7264674561995
0.000257346514384239,16.7364674561995
0.000283254971327025,16.7464674561995
0.000313380417219258,16.7564674561995
0.000348743246120531,16.7664674561995
0.000390706070979433,16.7764674561995
0.000441125600803475,16.7864674561995
0.000500551406674916,16.7961613783455
0.000567726064641223,16.8051290220498
0.000643469155077609,16.8134089729075
0.000728850005429226,16.8210538362852
0.000825106624557012,16.8281130483959
0.000933646562927797,16.8346324880445
0.0010560642142237,16.8406547696268
0.00119416426896998,16.8462195167339
0.00134999169772598,16.8513635322913
0.00152586193995265,16.8561209625874
0.00172439939534745,16.8605235050462
0.00194858128742551,16.8646006419501
0.00220179355494642,16.8683798114078
0.00248788658829969,16.8718865299464
0.00281125576944789,16.8751445722439
0.00317693822365082,16.878176184698
0.00359073337955191,16.8810022321011
0.0040593636213552,16.8836423802368
0.00459069352650585,16.8861153485297
0.00519403250281964,16.8884391599309
0.0058805760489899,16.890631481724
0.00664313507359819,16.8926592611123
0.00748325241044413,16.8945336172111
0.00841226843543982,16.8962863633751
0.00944693969575283,16.8979491401906
0.0106138779985816,16.8995570643186
0.0119656022920005,16.9011626708741
0.0136897341569472,16.9029287331861
0.0159020256607806,16.9048880664043
0.0176165789735613,16.9062571519517
0.0194283917683614,16.9076262374991
0.02106224985379,16.9088392106664
0.0225224686860736,16.909947992685
0.0238359603664399,16.9110114035792
0.0250013019765353,16.9120694526489
0.0259987150094236,16.9131604184555
0.0267880698047554,16.9143368599317
0.0272861862798781,16.9157049792272
0.0272947892918036,16.9172522574702
0.0268259264427985,16.9186726830961
0.0260075213206044,16.9200520070137
0.0249251084832456,16.921419539061
0.0236622227088428,16.9227772169622
0.0222432433788913,16.924170899556
0.0206810274613729,16.9256387633447
0.0189829422684506,16.9272192365786
0.0176451274509152,16.9284910033595
0.0163803219311474,16.9297627701405
0.0144562788962711,16.9318684537147
0.0125069131404609,16.9342776409248
0.0105856760530203,16.9370335375486
0.00904952921366421,16.9396308426916
0.00780501102441081,16.9421107821343
0.0067383938656479,16.9446284777131
0.00582500935121413,16.9472137030952
0.00504960502277664,16.9498896510833
0.0044021510098379,16.952679522468
0.00387729670356402,16.9556081855799
0.00347489392322389,16.9587035771454
0.00320182041900833,16.9619982571254
0.00307606226865231,16.9655313730037
0.00311435598399997,16.9688048862783
0.00328591837551273,16.9717510943871
0.00356893483691936,16.9744182182683
0.00395231023477493,16.9768527351133
0.00443270531021682,16.9790983612148
0.00501496252653407,16.9812023254826
0.0057132166348988,16.9832141660159
0.00655568471203805,16.9851915157
0.00759541516042701,16.987209665919
0.00893561467914125,16.9893814507849
0.0107677968873498,16.991866423159
0.0125510300341533,16.9939334737793
0.0146011294720454,16.9960005243997
0.0166149421788204,16.9977706702505
0.0186481576954165,16.9993365105827
0.0207911429404191,17.0007815961186
0.0231073737362991,17.0021443326388
0.0256563202672058,17.0034471956749
0.0284776651451484,17.0046953543768
0.0316224240517092,17.0058961663468
0.0351372664050456,17.0070523303898
0.0390790470516314,17.0081679542398
0.0435023183806808,17.009244465823
0.0484776053868206,17.0102855421306
0.0540805086598589,17.0112936734608
0.0604016414822088,17.0122719857119
0.0675468541900061,17.0132235990952
0.0756413172730061,17.0141517268046
0.0848366459741317,17.0150599287585
0.0953161997166076,17.01595193988
0.107305759213314,17.0168318714942
0.121086904647963,17.0177043127363
0.137016082719153,17.0185744955907
0.155554259639224,17.0194486279943
0.177314911811033,17.0203344649584
0.203156631178649,17.0212426572857
0.233088101369307,17.0221531774615
0.267778070700437,17.0230721334119
0.308209914587732,17.0240126807925
0.355978067736179,17.0250013705492
0.393846998765576,17.0257251282106
0.433200151606032,17.0264488858719
0.468125812421719,17.0270905777738
0.498746185595282,17.0276765207562
0.525684813903209,17.0282387466663
0.54894203960972,17.0288010908582
0.568012214588759,17.0293882553557
0.581664119158247,17.0300375954597
0.586719183770499,17.0307770000115
0.580027246936833,17.0315388185779
0.560372210262339,17.0323452534171
0.527034380666707,17.0331894611795
0.480843932116134,17.0340482094704
0.419263819405583,17.0349601060103
0.367632706962803,17.035616699792
0.310855379929586,17.0362732935737
0.26164381011779,17.0368109462858
0.220497757579464,17.0372515667425
0.184889111057767,17.0376351224431
0.153275530794411,17.0379843606119
0.124780658383792,17.0383125900732
0.0988295954365888,17.0386291278005
0.0749700276379566,17.0389421141086
0.0527424731802319,17.0392610809178
0.0314312600395116,17.0396029301242
0.00856710828606888,17.040029331621
-0.00118684788668648,17.0402389047807
-0.0100079471851379,17.0404484779404
-0.0166933290351445,17.0406235262789
-0.0228544639543185,17.040800531165
-0.0290741909490074,17.0409985332848
-0.0350930407283574,17.0412140537736
-0.0407443955143795,17.0414449660048
-0.0459350020678705,17.0416904985704
-0.0506158954854007,17.041950786948
-0.054764986462256,17.0422266211247
-0.0583767450828722,17.0425193236609
-0.061455888844192,17.0428307102131
-0.0640109727385678,17.0431631059974
-0.0661582744425246,17.0435434329648
-0.067640349464694,17.043925684474
-0.0686400885834237,17.0443394297945
-0.0691718982172395,17.044790530233
-0.0692448312632316,17.0452860493222
-0.0688618085582363,17.0458351686873
-0.0680142894177531,17.0464514648044
-0.066677270912585,17.0471531278992
-0.0647981241500356,17.0479677219852
-0.0622647205832042,17.0489435173299
-0.0587812734387105,17.0501931805231
-0.0546980027085175,17.0516087146119
-0.0507193162198264,17.0529797921594
-0.0469011122301457,17.0543115442439
-0.043272214565764,17.0556060692819
-0.0398484609173518,17.0568640288458
-0.0366382740563449,17.0580853655125
-0.0336450586239672,17.0592696842945
-0.0308684296690817,17.0604164542854
-0.0283049891437728,17.0615251133787
-0.025948919463681,17.0625951186051
-0.0237924964243895,17.0636259641474
-0.0218265555459823,17.0646171788396
-0.0200409201336815,17.0655683096908
-0.0184247894129714,17.0664788950533
-0.0168758955032452,17.0674045589472
-0.0153852606736788,17.0683541217026
-0.0139569778885302,17.0693294165393
-0.0125948633657185,17.0703326580479
-0.011302514333674,17.0713664546242
-0.0100832541516421,17.0724339075288
-0.00894007491479729,17.073538741781
-0.00787557632890642,17.0746854836947
-0.00689189995713646,17.0758797075868
-0.00599065701713242,17.0771283885627
-0.00517284628227413,17.0784404245204
-0.00443875558916196,17.0798274412599
-0.00378783435952468,17.08130509997
-0.003218511075108,17.0828953655869
-0.00275105723540569,17.0845381736653
-0.00237396232583582,17.0862343325136
-0.00207146995408615,17.0880023842488
-0.00182890167340744,17.08986574665
-0.00163207972354289,17.0918563051168
-0.00146669706913724,17.0940204843453
-0.00131720693747069,17.0964325068193
-0.00116422394863245,17.099229704466
-0.000975160481782588,17.102748531405
-0.000759551297473758,17.106514801394
-0.000513290262212879,17.1104727561608
-0.000236745870985644,17.1146444176081
6.51091103542633e-05,17.119052668259
0.000386123806558503,17.1237214301689
0.000721285520517365,17.1286757895063
0.00104815838876273,17.1336363524763
0.00133793425262402,17.1381516050272
0.001609081595142,17.1424736594766
0.00187928319223459,17.1468590499013
0.00217214297451834,17.1516770532875
0.0024707456254479,17.15662321349
0.00276810561364272,17.1615474442907
0.00305398015406373,17.1662474080071
0.00330748510508343,17.1703625019876
0.00355039310380824,17.1742453961237
0.00379225986928935,17.1780393159354
0.00403876612952932,17.181819866116
0.00429430713578547,17.1856373048957
0.00456290601056374,17.1895305159572
0.00484861690378096,17.1935323681427
0.00515583901301365,17.1976731579445
0.00548958433926264,17.2019826528833
0.0058557659152019,17.2064913663589
0.00626161446484088,17.2112317603124
0.00671634050376208,17.2162394454157
0.00719640070496571,17.2211942684137
0.00770619057325748,17.2261052701973
0.00824812384820665,17.2309525561863
0.00882694832738489,17.2357318336122
0.00944860676286695,17.2404414731808
0.0101204396782478,17.2450832849746
0.0108607990058446,17.2497186173258
0.0116888635739384,17.2543830793174
0.0126230561060536,17.2590834707901
0.0136894119755214,17.2638435612283
0.0149266364321237,17.2687129742722
0.0164041693215401,17.2738117004826
0.0182964798127322,17.279505446683
0.0207062667851663,17.285864700086
0.0222405456483644,17.2896225305244
0.0237978242575427,17.2933803609628
0.0251511109439831,17.2967599697977
0.0262907600852925,17.2998821417157
0.027224356953193,17.3029089128162
0.027895570114035,17.3057895172813
0.0283003378787979,17.3086136484001
0.0284224746453702,17.3115174485812
0.0281967025408285,17.3147275600414
0.027311699346532,17.319101877645
0.0264380699943696,17.3219167495752
0.0253763059837786,17.3247316215054
0.0243006337025555,17.3272586316594
0.0232260469231455,17.3296082147347
0.0221508989810196,17.3318615778591
0.0210773098711045,17.334061724576
0.0200087960478673,17.3362346966667
0.0189490752399904,17.3383983393243
0.0179017090473854,17.3405659824368
0.016870007467384,17.3427482347921
0.0158570013269577,17.3449539971058
0.0148654504068144,17.3471910601752
0.0138978477536009,17.3494665167983
0.0129564325702896,17.3517870386664
0.0120432026296203,17.3541590809554
0.0111599153273922,17.3565890715678
0.0103081028686179,17.3590835387208
0.00948908022811848,17.3616492406496
0.00870394749653965,17.3642933092605
0.00793920894437716,17.3670779371164
0.0071893758678038,17.3700519189208
0.00645822895925908,17.3732374724693
0.00574963087423963,17.3766606920732
0.00506761895943882,17.3803517437344
0.00441635379490534,17.3843456333179
0.00380001793483083,17.3886833437129
0.00322266217880315,17.393413609607
0.00268799792983225,17.398595874639
0.00219923607320572,17.4043061094491
0.0017587293159338,17.4106448880149
0.00137206904483236,17.4176641780908
0.00104857955883577,17.4252433714199
0.000781553159155108,17.4334987239451
0.00056461514180537,17.4425865760334
0.000396901039502296,17.4525865760334
0.000286579977655681,17.4625865760334
0.000211427531790979,17.4725865760334
0.000159178292112908,17.4825865760334
0.000122861398354966,17.4925865760334
9.79783133324461e-05,17.5025865760334
8.12823716192353e-05,17.5125865760334
7.03633771834327e-05,17.5225865760334
6.34771032598799e-05,17.5325865760334
5.94053234558358e-05,17.5425865760334
5.7316943993008e-05,17.5525865760334
5.66491136301755e-05,17.5625865760334
5.70196962002142e-05,17.5725865760334
5.81686274697113e-05,17.5825865760334
5.991990571883e-05,17.5925865760334
6.21565873712386e-05,17.6025865760334
6.48037780826201e-05,17.6125865760334
6.78167954607168e-05,17.6225865760334
7.11729219000817e-05,17.6325865760334
7.48657541630364e-05,17.6425865760334
7.89014446715892e-05,17.6525865760334
8.32963142074227e-05,17.6625865760334
8.80754629256876e-05,17.6725865760334
9.32721266544891e-05,17.6825865760334
9.89276183605138e-05,17.6925865760334
0.000105091764093623,17.7025865760334
0.000111823795675518,17.7125865760334
0.00011919370621341,17.7225865760334
0.000127284115473855,17.7325865760334
0.00013619273562812,17.7425865760334
0.000146035579265936,17.7525865760334
0.000156951117354018,17.7625865760334
0.00016910568384442,17.7725865760334
0.000182700548883268,17.7825865760334
0.000197981263842654,17.7925865760334
0.000215250149906343,17.8025865760334
0.000234883208147003,17.8125865760334
0.000257353356565019,17.8225865760334
0.000283262890485253,17.8325865760334
0.000313389664823355,17.8425865760334
0.000348754154757823,17.8525865760334
0.000390719088873693,17.8625865760334
0.000441141345126478,17.8725865760334
0.000500569230216194,17.8822802886316
0.000567746165304113,17.8912477306795
0.000643491811231187,17.8995274951447
0.000728875543567465,17.907172186598
0.000825135417316269,17.9142312402096
0.000933679032530223,17.9207505338207
0.00105610083854815,17.9267726809471
0.00119420558901914,17.9323373043675
0.00135003832694908,17.9374812062309
0.00152591457235123,17.9422385321048
0.00172445881893058,17.9466409787554
0.00194864839638275,17.950718027871
0.00220186936661142,17.9544971169982
0.00248797226155233,17.9580037621453
0.00281135262849308,17.9612617375305
0.00317704779102687,17.9642932891436
0.00359085741223893,17.9671192814099
0.0040595041637469,17.9697593798082
0.00459085298470067,17.9722323035316
0.00519421374327008,17.9745560753761
0.00588078255152922,17.9767483625894
0.00664336247353562,17.97877609397
0.00748350326934885,17.9806504109932
0.00841254663814887,17.9824031270404
0.00944725109041205,17.9840658829627
0.010614232387709,17.9856737973615
0.0119660362106975,17.9872794303768
0.0136903172656329,17.9890455685136
0.015902682370133,17.991004890622
0.0176171610399075,17.9923738813671
0.0194288690036602,17.9937428721122
0.0210626670133354,17.9949558015749
0.0225228437407474,17.9960645644375
0.023836296394424,17.9971279688681
0.0250015959157079,17.9981860214443
0.0259989591257125,17.9992770021782
0.0267882492647848,18.0004534770651
0.0272862666665315,18.0018216755401
0.0272947223987412,18.0033689107385
0.0268257587716171,18.0047893154476
0.0260072723748137,18.0061686398871
0.0249248094561235,18.0075361615175
0.0236618822132471,18.008893842813
0.0222428652756639,18.0102875395347
0.0206806143154479,18.0117554267169
0.0189824950878545,18.0133359339986
0.0176442973369226,18.0146080963792
0.0163791599735945,18.0158802587598
0.014455142130058,18.0179860521687
0.0125057975576673,18.0203954005333
0.0105847978546812,18.0231511903417
0.00904883493357237,18.0257484012518
0.00780441672516395,18.0282283515659
0.00673788355992438,18.0307460757409
0.00582457358110338,18.0333313420056
0.0050492373535808,18.036007342655
0.00440184745080176,18.0387972789726
0.00387705571066358,18.0417260205075
0.00347471695214331,18.044821505945
0.00320171331114757,18.048116298089
0.00307603823827719,18.051649548435
0.00311441290656489,18.0549228656609
0.00328604075516559,18.0578689123025
0.00356911416475662,18.0605358996298
0.00395254245871505,18.0629703018744
0.00443299114884134,18.06521583992
0.00501530650189647,18.0673197402557
0.00571362935192072,18.0693315447452
0.00655618669532216,18.0713088932764
0.00759604638983722,18.0733270928301
0.00893644949152597,18.0754989983131
0.0107689688090098,18.07798418598
0.0125521308283524,18.0800509701842
0.0146021151840518,18.0821177543884
0.0166158961703997,18.0838877583472
0.0186491437386786,18.0854535249919
0.0207921989598359,18.0868985651618
0.023108526497092,18.088261268596
0.0256575967626196,18.0895641062224
0.0284790810698512,18.0908122396812
0.0316240116559184,18.0920130321755
0.0351390421076666,18.0931691752522
0.0390810374641396,18.0942847795558
0.0435045543248027,18.0953612732709
0.0484801210825038,18.0964023330702
0.0540833455100446,18.0974104496287
0.0604048447055244,18.0983887483407
0.0675504792466734,18.099340349792
0.075645429358984,18.1002684671356
0.084841324334141,18.1011766604529
0.0953215417637287,18.1020686648594
0.107311884382338,18.1029485917855
0.1210939634758,18.1038210306698
0.137024267919546,18.1046912138887
0.155563822742783,18.1055653499203
0.177326194291052,18.106451194757
0.203170128596705,18.1073594011848
0.233103719581257,18.1082699232978
0.267796209775974,18.1091888860122
0.308231152636101,18.110129448679
0.356003469564514,18.1111181731579
0.393870125335573,18.1118418623304
0.433220019880687,18.1125655515029
0.46814299581845,18.1132072008281
0.498761318558785,18.1137931239159
0.525698048917803,18.1143553439484
0.548953243852559,18.1149176942912
0.568020971067758,18.1155048798656
0.581669461463725,18.1161542680992
0.586718812026,18.1168936781998
0.580020724491425,18.1176555137289
0.56035873942589,18.1184619763158
0.527015366576606,18.1193061698401
0.480817805179201,18.1201649426852
0.419230688669859,18.1210768548793
0.367603590667588,18.1217333536207
0.310832395691988,18.1223898523621
0.261625385043582,18.1229274470295
0.220482143085708,18.1233680363959
0.184875394845188,18.1237515742208
0.153263245247005,18.1241008014473
0.124769521880707,18.1244290243648
0.0988194061086711,18.1247455589741
0.0749606080564264,18.1250585455748
0.0527336097792915,18.1253775174169
0.0314225205841144,18.1257193822448
0.00855606507185725,18.126145860338
-0.00119298483454947,18.1263553459201
-0.0100099837677559,18.1265648315022
-0.0166949305776929,18.1267398727462
-0.0228561237858675,18.1269168837717
-0.0290758287836859,18.1271148910003
-0.0350945988510782,18.1273304157951
-0.040745840967644,18.1275613319714
-0.0459363169338388,18.1278068684129
-0.0506170708981103,18.1280671607972
-0.0547660190891626,18.128342999264
-0.0583776350535575,18.128635706509
-0.0614566383818798,18.128947098319
-0.0640115819258229,18.129279500052
-0.0661586528405565,18.1296598162605
-0.0676406199825755,18.1300420739956
-0.0686402554526201,18.1304558268317
-0.0691719639175495,18.1309069361493
-0.0692447971957786,18.1314024658649
-0.0688616744800326,18.1319515981589
-0.0680140518161008,18.1325679107069
-0.0666769219434707,18.1332695949931
-0.0647976476517107,18.1340842179047
-0.0622640803488133,18.1350600567112
-0.0587803558560181,18.1363098051871
-0.0546971007622313,18.1377253275873
-0.0507184451907688,18.1390963959557
-0.0469002807573629,18.1404281395777
-0.0432714273195966,18.1417226564235
-0.0398477204803267,18.1429806078421
-0.0366375816925781,18.144201936302
-0.0336444146416725,18.1453862467681
-0.030867833628423,18.1465330083181
-0.0283044400035238,18.1476416588456
-0.025948415702296,18.148711655389
-0.0237920361482427,18.1497424921395
-0.0218261365891459,18.1507336979374
-0.020040540148917,18.1516848197934
-0.0184244459536639,18.1525953960542
-0.0168755640149097,18.1535210650638
-0.0153849422491345,18.1544706331958
-0.013956673378254,18.1554459338544
-0.01259457357984,18.1564491817058
-0.0113022400289195,18.1574829852415
-0.0100829960192283,18.1585504458419
-0.00893983356755452,18.1596552886793
-0.00787535228753338,18.1608020402655
-0.00689169363528479,18.1619962751788
-0.00599046870480426,18.1632449688783
-0.00517267612650795,18.1645570197541
-0.00443860357011068,18.1659440543174
-0.00378770025811039,18.1674217348333
-0.00321839442410825,18.1690120279707
-0.00275096260211152,18.1706548456058
-0.00237388590557551,18.1723510182435
-0.00207140840945271,18.1741190882761
-0.00182885182801413,18.175982474954
-0.00163203845259897,18.1779730660723
-0.00146666112343634,18.1801372906173
-0.00131717259699114,18.1825493797949
-0.00116418608391936,18.185346687465
-0.000975108272329897,18.1888657528212
-0.000759492030512725,18.1926320689296
-0.000513223084951408,18.196590075645
-0.000236671587924007,18.2007617947806
6.51890037641533e-05,18.2051701091158
0.000386207852730947,18.2098389409663
0.000721372732980681,18.2147933769074
0.00104823352323782,18.2197537901874
0.00133800237270447,18.2242689612855
0.00160914731065391,18.2285909990868
0.00187935102563104,18.2329764408757
0.00217222119548709,18.237794628787
0.00247082154359527,18.2427407541676
0.00276818342109092,18.2476650120115
0.00305404396404046,18.252364732064
0.00330754439434764,18.2564797394849
0.00355045121520818,18.2603625990315
0.00379231848262859,18.2641565079448
0.0040388264122452,18.2679370616201
0.00429437008536975,18.2717545143846
0.00456297259186895,18.2756477479807
0.00484868812575702,18.2796496302245
0.00515591600294449,18.283790457309
0.00548966840388208,18.2880999967892
0.00585585862188881,18.2926087623899
0.00626171776644952,18.2973492166733
0.00671645693792094,18.3023569711802
0.00719652174612041,18.3073117597518
0.00770631980690629,18.3122227544677
0.00824826131168182,18.3170700223329
0.00882709557016822,18.3218492830961
0.0094487653607084,18.3265589055991
0.0101206115960494,18.3312007010219
0.0108609908427149,18.3358360422279
0.0116890788001495,18.3405005108246
0.0126233002339716,18.3452009135421
0.0136896925319032,18.3499610230782
0.0149269654991658,18.3548304732043
0.0164045711314777,18.3599292826948
0.0182970300841551,18.3656232791618
0.0207068184299393,18.3719823629173
0.0222410492606324,18.3757400298727
0.0237982565604287,18.3794976968282
0.025151474757573,18.3828771961142
0.0262910638170856,18.3859993185299
0.027224598639275,18.3890260817483
0.0278957319477004,18.3919066526654
0.0283004186456909,18.3947307856429
0.0284224643593425,18.3976346355211
0.0281965667117367,18.4008448997062
0.0273111895731261,18.4052200394403
0.0264375083123931,18.4080346556626
0.0253757526564355,18.4108492718848
0.0243000856192025,18.41337615075
0.023225498910118,18.4157256678572
0.0221503510622413,18.4179789947904
0.0210767636265414,18.4201791218507
0.0200082533655661,18.4223520850449
0.0189485379857679,18.4245157265573
0.0179011789729464,18.4266833745247
0.016869486186463,18.4288656366489
0.0158564903122979,18.4310714129493
0.0148649509937492,18.4333084937754
0.0138973611459459,18.4355839716446
0.0129559598446925,18.4379045180928
0.0120427447408163,18.440276588234
0.0111594731123423,18.4427066099892
0.0103076770499405,18.4452011116649
0.00948867141913502,18.4477668516481
0.00870355620484835,18.4504109620636
0.00793882420521534,18.4531956811999
0.00718899965692059,18.4561697644136
0.00645786318415012,18.459355431718
0.00574927754537499,18.4627787793043
0.00506728016531747,18.4664699754214
0.00441603166362598,18.4704640286537
0.00379971457277459,18.4748019253011
0.00322237957159435,18.4795324046606
0.00268773783002026,18.4847149169064
0.00219899997058386,18.4904254429501
0.00175851815568916,18.496764571755
0.00137189141493387,18.5037841171447
0.00104843196463086,18.5113636168574
0.000781432251323284,18.519619344341
0.000564517856802413,18.5287076611271
0.000396836388250275,18.5387076611271
0.000286536162670932,18.5487076611271
0.000211397382009386,18.5587076611271
0.000159157461799614,18.5687076611271
0.000122847107089635,18.5787076611271
9.79686481240414e-05,18.5887076611271
8.12759647406327e-05,18.5987076611271
7.03592512239336e-05,18.6087076611271
6.34745722225049e-05,18.6187076611271
5.9403914137702e-05,18.6287076611271
5.73163329399744e-05,18.6387076611271
5.66490801948984e-05,18.6487076611271
5.70200899173224e-05,18.6587076611271
5.8169346189057e-05,18.6687076611271
5.99208809965205e-05,18.6787076611271
6.2157774556372e-05,18.6887076611271
6.48051494826924e-05,18.6987076611271
6.78183356071274e-05,18.7087076611271
7.11746242955308e-05,18.7187076611271
7.48676190906457e-05,18.7287076611271
7.89034777675792e-05,18.7387076611271
8.32985255861151e-05,18.7487076611271
8.80778667117024e-05,18.7587076611271
9.3274740827058e-05,18.7687076611271
9.89304648521522e-05,18.7787076611271
0.000105094869113583,18.7887076611271
0.000111827190250987,18.7987076611271
0.000119197426961381,18.8087076611271
0.000127288205636502,18.8187076611271
0.000136197246426936,18.8287076611271
0.000146040571657495,18.8387076611271
0.00015695666430666,18.8487076611271
0.00016911187330554,18.8587076611271
0.00018270748767878,18.8687076611271
0.000197989082855504,18.8787076611271
0.000215259011038434,18.8887076611271
0.000234893313809549,18.8987076611271
0.000257364962817745,18.9087076611271
0.000283276325544045,18.9187076611271
0.000313405355635765,18.9287076611271
0.000348772665992077,18.9387076611272
0.000390741181516364,18.9487076611272
0.000441168066983653,18.9587076611272
0.0005005994830397,18.9684010181105
0.000567780285206457,18.9773681179348
0.000643530270888699,18.9856475660795
0.00072891889732276,18.993291965765
0.000825184297809637,19.0003507503931
0.000933734156537425,19.0068697961686
0.00105616301727631,19.0128917151143
0.00119427574077252,19.0184561286302
0.0013501174929438,19.0235998375481
0.00152600393046311,19.0283569862117
0.00172455970651976,19.0327592702705
0.00194876233094629,19.0368361704051
0.00220199807456605,19.0406151232076
0.00248811770945754,19.0441216438058
0.00281151706339041,19.0473795056378
0.00317723379645355,19.0504109540006
0.00359106796949774,19.0532368526967
0.00405974274178041,19.0558768666875
0.00459112366615532,19.0583497147731
0.00519452139188865,19.0606734194859
0.00588113307180514,19.0628656480124
0.00664374845975384,19.0648932979279
0.00748392906771813,19.066767548641
0.00841301884013083,19.0685202135778
0.00944777961889691,19.0701829340388
0.010614833875824,19.0717908319178
0.0119667726558522,19.0733965098165
0.013691306898528,19.0751627766165
0.0159037955254005,19.07712207872
0.0176181478406737,19.0784909089068
0.0194296783164637,19.0798597390936
0.0210633745604012,19.0810725944959
0.0225234799538275,19.0821813248883
0.023836866484,19.083244718359
0.0250020946878791,19.0843027768753
0.025999373467565,19.0853937829101
0.026788554027134,19.0865703144357
0.0272864034892185,19.0879386471639
0.0272946104873603,19.0894858042948
0.026825478639279,19.0909061712555
0.0260068562975051,19.0922854964134
0.0249243095871366,19.0936530005899
0.0236613129531048,19.0950106875646
0.0222422330842685,19.0964044079333
0.0206799234860384,19.0978723342737
0.0189817473088889,19.0994528985501
0.0176429078140629,19.1007257239175
0.0163772143586136,19.1019985492848
0.0144532372239852,19.104104528473
0.0125039248378468,19.1065141515253
0.0105833234903017,19.1092697625011
0.00904766952562287,19.1118668152136
0.0078034193552107,19.114346783812
0.00673702739453428,19.1168645560402
0.0058238427572335,19.1194498909975
0.00504862109580569,19.1221259801276
0.00440133910264858,19.1249160255422
0.00387665274559833,19.1278448988384
0.00347442191346075,19.1309405419936
0.00320153616052661,19.1342355225889
0.00307600141247002,19.1377689988607
0.00311451287160099,19.1410419829111
0.00328625137757945,19.1439877550343
0.00356942111578135,19.1466545101782
0.00395293895241199,19.1490887176173
0.00443347846148932,19.1513341059172
0.0050158923871078,19.1534378975966
0.00571433189914811,19.1554496409042
0.00655704087782971,19.1574269876729
0.00759712030897483,19.1594452714719
0.00893786994338734,19.1616173829421
0.0107709639133533,19.1641029387621
0.012554004812455,19.1661692700053
0.0146037932123059,19.1682356012486
0.0166175198918633,19.1700053639032
0.0186508215657057,19.1715710052106
0.0207939953685191,19.1730159682107
0.0231104870043318,19.1743786153746
0.0256597672395815,19.1756814097826
0.0284814882118573,19.1769295003241
0.0316267103176067,19.1781302597224
0.0351420601621902,19.1792863671619
0.0390844201020297,19.1804019382349
0.0435083539288467,19.1814784015777
0.048484395781025,19.1825194333141
0.0540881656484731,19.1835275247624
0.0604102870571334,19.184505800452
0.067556637991263,19.1854573816082
0.0756524152032687,19.1863854813146
0.0848492718298037,19.1872936599287
0.0953306163043088,19.1881856528921
0.107322288723404,19.1890655718122
0.1211059531523,19.1899380066418
0.137038170027425,19.1908081904213
0.155580064141225,19.1916823325436
0.177345354392803,19.192568190663
0.203193048161352,19.1934764209261
0.233130239729286,19.1943869462595
0.267827009537567,19.1953059203759
0.30826721319737,19.196246508896
0.356046598354457,19.197235292204
0.39390939618326,19.1979588651232
0.433253765395048,19.1986824380424
0.468172188829142,19.1993240150841
0.498787034591893,19.1999099043672
0.525720546282583,19.2004721143819
0.548972296880214,19.201034475125
0.568035871743998,19.2016216964425
0.581678568698669,19.2022711663677
0.586718222292091,19.203010585851
0.580009695730995,19.2037724501426
0.560335916661853,19.204578959807
0.526983139277204,19.2054231290711
0.480773510021673,19.2062819434994
0.419174514905382,19.2071938821497
0.367554220766138,19.2078502197441
0.310793419786053,19.2085065573384
0.261594137978826,19.2090440535712
0.220455661042402,19.2094845902032
0.184852131344381,19.2098680977024
0.153242407530519,19.2102173063624
0.124750632466547,19.2105455181751
0.0988021226864902,19.2108620474915
0.0749446296842969,19.2111750345871
0.0527185740660248,19.2114940149704
0.0314076936589187,19.2118359063186
0.00853732068576726,19.2122625145661
-0.00120341500795956,19.2124718517647
-0.0100134644251056,19.2126811889634
-0.0166976700951903,19.2128562181423
-0.0228589632380865,19.2130332396732
-0.0290786306803471,19.21323125564
-0.0350972644203884,19.213446787799
-0.0407483138073263,19.2136777107216
-0.0459385663776053,19.2139232537906
-0.0506190817696103,19.2141835530263
-0.0547677856804784,19.2144593988293
-0.0583791575828398,19.2147521141271
-0.0614579206498932,19.2150635149292
-0.0640126241018902,19.2153959268365
-0.0661593010235176,19.2157762248019
-0.0676410834066158,19.2161584932012
-0.06864054135423,19.2165722589089
-0.0691720765456572,19.2170233834342
-0.0692447389523382,19.2175189313519
-0.0688614449509879,19.2180680857936
-0.0680136449856873,19.218684426491
-0.0666763243745141,19.2193861470859
-0.0647968316519496,19.2202008193917
-0.0622629838646968,19.2211767326835
-0.0587787841039513,19.2224266273547
-0.0546955559601076,19.2238421297343
-0.0507169535172521,19.2252131823818
-0.0468988570063869,19.2265449115124
-0.0432700794843762,19.2278394143306
-0.0398464529760206,19.2290973518031
-0.0366363966748198,19.2303186662123
-0.0336433126280713,19.2315029624411
-0.0308668138550172,19.23264970954
-0.0283035006762826,19.2337583454032
-0.0259475542047825,19.2348283270813
-0.0237912492271851,19.2358591487804
-0.0218254205254436,19.2368503393518
-0.0200398909135378,19.2378014458084
-0.0184238593480244,19.2387120064874
-0.016874998001105,19.2396376842545
-0.015384398694762,19.2405872615908
-0.0139561537358079,19.2415625722159
-0.0125940792325143,19.2425658309258
-0.0113017722682734,19.2435996463754
-0.0100825560244722,19.2446671201505
-0.00893942238353146,19.2457719776852
-0.0078749708011882,19.2469187458301
-0.00689134255014376,19.2481129996111
-0.00599014851254598,19.2493617150927
-0.00517238707389838,19.2506737915078
-0.00443834561802297,19.2520608565851
-0.00378747302611099,19.2535385744324
-0.00321819710664164,19.2551289146851
-0.00275080300921082,19.2567717486823
-0.0023737575166653,19.258467944928
-0.002071305504123,19.2602360462867
-0.00182876896164559,19.2620994745278
-0.00163197026878973,19.2640901215478
-0.00146660205233131,19.2662544236789
-0.00131711626163167,19.2686666270619
-0.00116412369181388,19.2714641231165
-0.000975021278392937,19.2749835967515
-0.000759393012658251,19.2787499900605
-0.000513110605340376,19.2827080837547
-0.000236547042507964,19.2868798994796
6.53230452698824e-05,19.2912883204444
0.000386348892925702,19.2959572694005
0.00072151908288823,19.3009118336039
0.00104835966390759,19.3058719965877
0.00133811677000599,19.3103870314893
0.00160925767819166,19.3147090414754
0.00187946493322736,19.3190945692169
0.00217235248497536,19.3239130658841
0.00247094899008199,19.3288591330644
0.00276831404077145,19.3337834361836
0.00305415119090552,19.3384827487804
0.00330764407479888,19.3425976114252
0.00355054894150036,19.3464804131134
0.00379241706638986,19.3502743037956
0.00403892780857562,19.3540548633169
0.00429447596557571,19.3578723394753
0.00456308457320493,19.3617656107675
0.0048488078999322,19.3657675432936
0.00515604546046837,19.3699084327452
0.00548980973654294,19.3742180467348
0.00585601445891779,19.3787268995308
0.00626189138382412,19.3834674547332
0.00671665259245692,19.3884753253363
0.0071967251689721,19.3934300561553
0.00770653700940513,19.398341038928
0.00824849236503837,19.4031882763444
0.00882734307808078,19.4079675091062
0.00944903197174759,19.4126771029331
0.0101209006115148,19.4173188708396
0.0108613133558226,19.4219542269351
0.0116894406434681,19.4266187066348
0.0126237106738167,19.4313191282537
0.0136901642222046,19.4360792698958
0.014927518754741,19.4409487823713
0.0164052467013409,19.4460477319041
0.0182979553269983,19.4517421492962
0.0207077459739711,19.4581009478422
0.0222418960356494,19.4618583399425
0.0237989834307067,19.4656157320428
0.0251520864754171,19.4689950471782
0.0262915745095803,19.472117086388
0.0272250049979383,19.4751438363787
0.0278960040318681,19.4780243509087
0.0283005544085545,19.4808484870386
0.0284224469997248,19.4837524205269
0.0281963382007787,19.4869629416482
0.0273103316483276,19.4913394654528
0.0264365630606966,19.4941536516797
0.0253748214173458,19.4969678379065
0.0242991631860509,19.4994944959439
0.023224576592472,19.5018439020737
0.0221494289044163,19.5040971681197
0.0210758442884943,19.5062972621114
0.0200073400250495,19.5084702103422
0.0189476337829373,19.5106338499338
0.0179002868558577,19.5128015060776
0.0168686088709621,19.5149837846472
0.0158556302769484,19.5171895844912
0.0148641104858672,19.519426695205
0.0138965421915048,19.5217022088343
0.0129551642556532,19.5240227966531
0.0120419741239734,19.5263949136721
0.0111587288762804,19.5288249878425
0.0103069604108211,19.5313195476216
0.00948798340917075,19.5338853516518
0.00870289767833188,19.536529532425
0.00793817670837712,19.5393144051956
0.00718836651507684,19.5422886590914
0.00645724760771473,19.5454745178592
0.00574868291804878,19.548898080854
0.00506671000208879,19.5525895201071
0.00441548954607658,19.5565838487801
0.00379920404584803,19.5609220589142
0.00322190397684862,19.5656528975655
0.00268730011661501,19.5708358259107
0.00219860264440895,19.5765468421537
0.00175816280739286,19.5828865604838
0.00137159249492585,19.5899065356292
0.00104818359191626,19.5974865510627
0.00078122878936806,19.6057429097003
0.000564354149907493,19.6148320087042
0.000396727589726091,19.6248320087042
0.000286462423519523,19.6348320087042
0.000211346637094955,19.6448320087042
0.000159122399104562,19.6548320087042
0.000122823047988097,19.6648320087042
9.79523734790232e-05,19.6748320087042
8.12651729691999e-05,19.6848320087042
7.03522975834881e-05,19.6948320087042
6.34703023581913e-05,19.7048320087042
5.94015317661901e-05,19.7148320087042
5.73152937546249e-05,19.7248320087042
5.6649012876343e-05,19.7348320087042
5.70207412374302e-05,19.7448320087042
5.81705442168195e-05,19.7548320087042
5.9922510515619e-05,19.7648320087042
6.21597603836494e-05,19.7748320087042
6.48074449669131e-05,19.7848320087042
6.78209146615137e-05,19.7948320087042
7.11774759238105e-05,19.8048320087042
7.48707436995444e-05,19.8148320087042
7.8906884763978e-05,19.8248320087042
8.33022319033917e-05,19.8348320087042
8.80818960209908e-05,19.8448320087042
9.32791232733797e-05,19.8548320087042
9.89352372181501e-05,19.8648320087042
0.000105100075360983,19.8748320087042
0.000111832882427821,19.8848320087042
0.000119203666496519,19.8948320087042
0.000127295065076543,19.9048320087042
0.000136204811708096,19.9148320087042
0.000146048945051491,19.9248320087042
0.000156965968240771,19.9348320087042
0.000169122255341531,19.9448320087042
0.000182719127056057,19.9548320087042
0.000198002199180536,19.9648320087042
0.000215273875966813,19.9748320087042
0.000234910266970836,19.9848320087042
0.000251768516187337,19.9924160043521
0.000270462542914193,20
