ecg,time
0.0122101965367293,15.0022971019862
0.0113187434215709,15.0047226412128
0.010457929211895,15.0072147907781
0.00962907098337279,15.0097809949337
0.00883327808266576,15.0124292327417
0.0080641446144555,15.0151955968472
0.00730936061537048,15.0181504098495
0.00657279480970217,15.0213155273448
0.00585831280480251,15.0247170289724
0.00516996949030761,15.0283850959928
0.00451196301511854,15.032354782353
0.00388854295091197,15.0366671188501
0.00330386611578347,15.0413708053181
0.00276179004089959,15.0465250630431
0.002265569217791,15.0522052406827
0.00181767326868956,15.0585111353034
0.00142485575865906,15.0654768965771
0.00110475686614404,15.0729906756164
0.000882584343930516,15.0803181032399
0.000706786458058792,15.0881287171335
0.00055694531187017,15.0971581411583
0.00044068334979694,15.1071581411583
0.000362910964765954,15.1171581411583
0.000312871013063574,15.1271581411583
0.000282728106981482,15.1371581411583
0.000266898935300948,15.1471581411583
0.000261580057546366,15.1571581411583
0.000264308578000036,15.1671581411583
0.000273592779518111,15.1771581411583
0.000288649427313685,15.1871581411583
0.000309246554958247,15.1971581411583
0.000335632968335559,15.2071581411583
0.00036853972541411,15.2171581411583
0.000409253326006217,15.2271581411583
0.000458818544793484,15.2369825418981
0.000515751097659339,15.2460864161323
0.000580688959248363,15.2545023409166
0.000654594026540201,15.2622816825165
0.000738636250085236,15.2694729024445
0.000834172683837552,15.2761210514825
0.000942752820599203,15.2822680380272
0.00106613694607357,15.2879528774554
0.00120632110244787,15.2932119043934
0.0013655666174362,15.2980789608691
0.00154643417517719,15.3025855737666
0.00175182465353303,15.3067611240826
0.00198502725327111,15.3106330064403
0.00224977753852789,15.3142267815743
0.00255032900906855,15.3175663304228
0.00289154189759184,15.3206740132812
0.00327899711130814,15.3235708346759
0.00371914429954598,15.3262766224881
0.00421950098453005,15.3288102342578
0.00478892915291157,15.3311898058863
0.00543803337477414,15.3334330731252
0.00616906170384082,15.335529824156
0.00697588714152569,15.3374634553943
0.00786870865532751,15.3392662395926
0.00886279177656604,15.3409704318901
0.00998192611436004,15.3426107077559
0.0112682606658353,15.3442323429345
0.0128695359610866,15.3459720620695
0.0152354352294201,15.3481702153757
0.0169100084144211,15.3495574148706
0.0186857959204652,15.3509446143655
0.0203099083557767,15.3521861210456
0.0217582658596045,15.353314241897
0.0230598068551807,15.3543909755399
0.0242150476399419,15.355457768408
0.0252057751649848,15.3565525851561
0.0259943252884633,15.3577253783384
0.0265044718687555,15.359071839314
0.0264946535631377,15.3609363997841
0.0259067819278692,15.362484573404
0.0248966137194443,15.364032747024
0.0237248806681826,15.365420311787
0.0223980226604094,15.3667934178193
0.020922671488974,15.3682117374589
0.0193078230175229,15.3697139598566
0.0175577127841683,15.3713406400858
0.0161679874888854,15.3726881646525
0.0136241611000813,15.3754052278878
0.0111732424661703,15.3784425287876
0.00927209489050418,15.3812103085448
0.00777043429994892,15.3837623448706
0.00651046534289472,15.3862528516108
0.00540914399257281,15.3887913896884
0.00444244900431018,15.3914050107848
0.00359295178707745,15.3941167400613
0.00284646965393605,15.3969501883941
0.00225011446159219,15.3996386741289
0.00176831470154184,15.4021917985418
0.00136813745708303,15.4046618853401
0.00102716926786311,15.4070974126454
0.000731262763386952,15.4095320915045
0.000470892621757656,15.4119908837215
0.000235169953933995,15.4145408110335
1.94909394199497e-06,15.4174455580218
-0.000155369284043668,15.4196688300513
-0.000297296290865883,15.4218921020808
-0.000409014888765946,15.4238083463071
-0.000502433884240433,15.4255362343953
-0.000587645482268012,15.4272212491784
-0.000670527710989447,15.4289677342775
-0.000756887118079645,15.430908376997
-0.000858211429908013,15.4333538065159
-0.00102826448429166,15.4379023807375
-0.00116271874698493,15.4419444366805
-0.00126701922010777,15.44539978922
-0.00136955518135226,15.4491352598406
-0.00148433417383377,15.453893847293
-0.0015868022164791,15.4592731735233
-0.00163883602861186,15.4639805617569
-0.00163641503151547,15.4682129522697
-0.00157164519167114,15.472005870316
-0.0014369875638054,15.475432576775
-0.00122386989808117,15.4785732761839
-0.000922534352693845,15.4814914091876
-0.000523788081008689,15.484224679592
-1.70335770941043e-05,15.486811225309
0.000616364615543688,15.4893090972657
0.00140871098201471,15.4917909466226
0.00243095208600524,15.4943852168724
0.00382181003808661,15.4972790980154
0.00557753562957232,15.5003145876056
0.00702171978936609,15.5024681449501
0.00865749481401222,15.5046217022946
0.0102759200340514,15.5064985790645
0.0119614431772113,15.5082217162176
0.0137696283082395,15.5098451340399
0.0156978594936653,15.5113590358749
0.0178245129050375,15.5128139617168
0.0201682544420984,15.5142057427827
0.022772659334756,15.5155445418271
0.0256778491479552,15.5168346373817
0.0289185144469598,15.5180761713859
0.0325457366311835,15.5192742375256
0.0366105894927332,15.520431332685
0.041169600148356,15.521549720858
0.0462955846758372,15.5226335478893
0.0520706326161122,15.5236862164148
0.0585927364263745,15.5247113953517
0.0659787065232338,15.5257128561723
0.0743754102808591,15.5266952543744
0.0839643764149276,15.5276635847874
0.0949768673711067,15.5286236701738
0.107715961405639,15.5295826247332
0.122593225922628,15.5305496059194
0.14019628858224,15.5315372734572
0.160977032557726,15.5325445529898
0.185083192371081,15.5335582370379
0.213194928778625,15.5345909863067
0.24625970074211,15.5356615145461
0.285777101914187,15.5368025369686
0.32953901184687,15.5379558876003
0.36642400814465,15.5388821662465
0.397877830010873,15.5396699040103
0.425364532945165,15.5403847141399
0.449315989052543,15.5410608283714
0.469673960250733,15.5417216950666
0.486019373217649,15.5423882797579
0.497479185704269,15.5430844027713
0.502358663318504,15.5438446600851
0.497727940455015,15.5446706313338
0.481854717161693,15.5455142982771
0.453429868480431,15.5463897298283
0.410859687740731,15.5473071363671
0.365469371989773,15.5480778183155
0.323599085784941,15.5486916905056
0.277520064573826,15.5493055626957
0.236586977628747,15.5498204097282
0.201114995375814,15.5502568744514
0.169691830961215,15.5506448704781
0.141396141781446,15.5510024124194
0.115654504265132,15.5513409171414
0.0920600069252049,15.5516688845779
0.0702700691795654,15.5519940663325
0.0499149219008762,15.5523257700184
0.0303952657750309,15.552680536569
0.00968425171351305,15.5531161967636
0.00015230536851565,15.5533467790515
-0.008433515164126,15.5535773613395
-0.0148516366692672,15.5537680387591
-0.0207417879938409,15.5539606645684
-0.0266275647970854,15.5541746709241
-0.0322797943359139,15.5544066317113
-0.0375534512380904,15.5546545079112
-0.0423689471599197,15.5549176408609
-0.046685616127367,15.5551962882939
-0.0505922284760093,15.5555013606514
-0.0538056490036463,15.555812166042
-0.0564999513133873,15.5561424872226
-0.0586878895514504,15.5564949703326
-0.0603826979017099,15.5568726715376
-0.0615982935403848,15.5572793496309
-0.0623477441311608,15.5577196467415
-0.0626417713503685,15.5581993523388
-0.0624870880898956,15.5587257995846
-0.0618838040567797,15.5593088299839
-0.0608201375678366,15.5599624879186
-0.0592688654560599,15.5607053930881
-0.0571753558691391,15.561565934433
-0.0544256529536944,15.562593814772
-0.0507205333614223,15.563905349339
-0.0467310775840196,15.5652876635924
-0.0428890927286104,15.5666241922587
-0.0392373023292409,15.5679192160151
-0.0357959524017913,15.5691749909101
-0.0325748165912433,15.570392387876
-0.0295773275385289,15.5715715717196
-0.02680253237583,15.5727123638086
-0.0242462128611583,15.5738144325123
-0.0219016549799513,15.5748773903319
-0.0197602553403181,15.5759008381173
-0.0178120374806126,15.576884377543
-0.0160461044486579,15.5778276032917
-0.0144414908640429,15.5787356470052
-0.0128936306976018,15.5796666910518
-0.0114076083062242,15.5806219145153
-0.00998743327592016,15.581603285347
-0.00863694344346639,15.5826130994974
-0.00735974879425787,15.5836540653858
-0.00615918036619714,15.5847294085287
-0.00503823656719689,15.5858430110813
-0.00399952692415782,15.5869996019555
-0.00304521284872798,15.588205022468
-0.00217694437456828,15.5894666087385
-0.00139579072766727,15.5907937620894
-0.000702160573290521,15.5921988376087
-9.57037500162574e-05,15.5936986054816
0.00042366851317365,15.5953127557708
0.000835276186915578,15.5969658314984
0.00115681349591124,15.5986763228353
0.00140345226784282,15.6004632477404
0.00158936574751962,15.6023515489242
0.00172810773004896,15.6043756161107
0.00183317213416394,15.6065864042583
0.00191896371480479,15.6090675079526
0.00200313209114007,15.6119806179441
0.00211465955155548,15.615725946122
0.00224880194519447,15.619554739227
0.00241215849173064,15.6235024668686
0.00259074016360672,15.6273301029958
0.00278134202149919,15.6311213371882
0.0029817246895847,15.63493404037
0.0031909408456243,15.6388108027904
0.00340933387097915,15.6427868375896
0.00363836801092018,15.646894015391
0.00388043393189345,15.651163177637
0.00413869497344156,15.6556257654723
0.00441702702240183,15.6603151933499
0.00472013103753983,15.6652682989921
0.00505389103672208,15.6705265708165
0.00540959907612579,15.6758915607324
0.00577564852606257,15.6811431224212
0.00615798700170684,15.6863299452094
0.00655806297138722,15.6914269846308
0.00698034721386382,15.6964462191537
0.00742926636845896,15.7013930316288
0.00790988350836013,15.7062745686144
0.00842757798160986,15.7110950859022
0.00898819608905643,15.7158568918329
0.00959811614855615,15.7205602768393
0.0102643848794202,15.7252041488015
0.0110050238609032,15.7298473422123
0.0118388261949887,15.7345217391421
0.0127842472697221,15.7392327741161
0.013867884560774,15.744004728463
0.0151304059337234,15.748891596434
0.0166475460278907,15.7540278662664
0.0186227723473025,15.7598452308121
0.0204925145927379,15.7647437808716
0.0220732487820031,15.7686149662413
0.0236897152010389,15.772486151611
0.0250787384074461,15.7759033782714
0.0262490218751721,15.7790347690675
0.0272141195896179,15.7820533944277
0.027924411422122,15.7849367582591
0.0283686771669729,15.7877487844041
0.028534478140578,15.7906199545073
0.0283666192625247,15.7937539106396
0.027630743675819,15.7978036033771
0.0267815050789987,15.8007207944805
0.0257167202024335,15.8036379855839
0.0246397966211259,15.8062105385236
0.023566207175679,15.8085775133277
0.0224918106980279,15.8108360908878
0.0214180118554705,15.813034890382
0.0203481815070806,15.8152023107341
0.0192860302147662,15.817357415147
0.0182351479933684,15.8195142548007
0.0171988770402938,15.821683919667
0.0161802824147198,15.8238756542394
0.0151821511400273,15.8260975327662
0.0142070035917388,15.8283568938707
0.013257103756699,15.8306606506687
0.0123344695072241,15.8330155244973
0.0114408862204535,15.8354282234562
0.0105779103334976,15.8379056206553
0.00974688491687537,15.840454888489
0.00894894355759309,15.8430836636972
0.00817821295633793,15.8458254083511
0.00742137549454747,15.8487527023947
0.00668228865356717,15.8518869058355
0.00596479597224483,15.8552535564503
0.0052729397648441,15.8588821660051
0.00461091166867161,15.862806992125
0.00398297054313356,15.8670680671615
0.00339330611224371,15.8717127772292
0.00284583872469523,15.8767985226176
0.00234393014508897,15.8823978356684
0.00189017769727177,15.8886062953367
0.00148894524362539,15.8955040140321
0.00115270959413972,15.9029368190377
0.000888205802805849,15.9110131388605
0.000722752888718517,15.9181299343068
0.000568991791585983,15.9270609281936
0.000455620300586239,15.9363215147028
0.000371653250653602,15.9463215147028
0.000317185859852656,15.9563215147028
0.000284158246011617,15.9663215147028
0.000266740807440459,15.9763215147028
0.000260883003042397,15.9863215147028
0.000263941202334085,15.9963215147028
0.000274337317797959,16.0063215147028
0.000291293790971359,16.0163215147028
0.000314669510492564,16.0263215147028
0.000344893834201024,16.0363215147028
0.000382991165268571,16.0463215147028
0.000430702256426207,16.0563215147029
0.000486965179444309,16.0657473529545
0.000551622919180732,16.0744542790325
0.000625555277274159,16.0824915112451
0.000709920012703781,16.0899115674272
0.000806088570519656,16.0967631919844
0.000915640150165478,16.1030914815212
0.0010403758594619,16.1089382212537
0.00118234230492383,16.1143421730013
0.00134386177446748,16.1193393193971
0.00152756716520904,16.1239630859649
0.00173644498300439,16.1282445482445
0.00197388575671245,16.1322126260473
0.00224374667715736,16.135894264879
0.00255042781758161,16.1393146152906
0.00289896922121857,16.1424972179847
0.00329517611382015,16.1454641974752
0.00374578381450106,16.148236472816
0.00425868369223504,16.1508340041916
0.00484324232247003,16.1532760990717
0.00551077188528982,16.1555818201445
0.00625754940913302,16.1577242199837
0.00708401902817221,16.15970858476
0.00800277540974203,16.1615701060921
0.00903318696852395,16.1633452771239
0.0102078222646504,16.1650775821868
0.0115925417298968,16.1668352374891
0.0134620573664895,16.168874889542
0.0151294916905222,16.1704808313587
0.0169397727241492,16.1720867731754
0.0185874858035456,16.1734875903424
0.0200268598180111,16.1747125778712
0.0213144009168042,16.1758554509362
0.0224626999661549,16.1769679803417
0.0234614322171691,16.1780890341
0.0242834584871384,16.1792614798496
0.0248766814418244,16.1805527708576
0.0251198469916929,16.1821278474191
0.0247565270085236,16.1839578285461
0.0237986296950977,16.185787809673
0.0226885749579622,16.1872720255441
0.0214478748018457,16.1886769835487
0.0200704449902423,16.1901013392147
0.018564360158475,16.1915894466221
0.0169368797168516,16.1931786958667
0.0152208945504213,16.1949153500896
0.0137507406237846,16.1965220011609
0.0113771272388464,16.1994286893972
0.00942315138946146,16.2022192316036
0.00787169815574522,16.204800669543
0.00657979031740912,16.2072961679966
0.00544962564308777,16.2098352991454
0.00445589124501742,16.2124464553063
0.003580590827006,16.2151528810183
0.00285798234105163,16.2177841005791
0.00227593930871537,16.2202601686913
0.00179829808371669,16.2226096359163
0.00139795791899428,16.2248663754645
0.00105492205773065,16.2270664655477
0.000754066635192474,16.2292499965027
0.000482794101948851,16.2314706212786
0.000226671246949985,16.2338357728729
-5.05609296967296e-05,16.2367564409178
-0.000208003460163214,16.2386145562311
-0.000352956866214199,16.2404726715444
-0.000474568496558349,16.2421521790144
-0.000580907052067764,16.2437187094518
-0.000680751373568233,16.2452784318371
-0.000780485734265281,16.2469271562
-0.000888096420908745,16.2488125637153
-0.00102463857110078,16.2513703365331
-0.00121881484416979,16.2553360824499
-0.00136974979712083,16.2586919791897
-0.00149967545550423,16.2617751971256
-0.00163802744268877,16.2652615681618
-0.00180653292961746,16.2698164442938
-0.00199928223335006,16.275617221611
-0.00213417835939584,16.280621553742
-0.00221222081877861,16.2851383327697
-0.00222291255675131,16.2891714959451
-0.00215841202260901,16.2927836259037
-0.00201259239797231,16.2960378636393
-0.00177952725779314,16.2990082630376
-0.00145199092725477,16.3017617461024
-0.00101986058324071,16.3043596388873
-0.000465264960834566,16.306872927845
0.00025522030607549,16.3094247287913
0.00125528894345626,16.3122582534712
0.00256059535902311,16.3153052406199
0.00415508565602165,16.3185030809705
0.00556689201932224,16.3210420597366
0.00678576048943593,16.3230556301761
0.00811777407184584,16.3250692006156
0.0094940002898785,16.3269446266289
0.010884691858868,16.3286348941464
0.0123976051963684,16.3302603616243
0.0140436243911156,16.3318094527036
0.0158744277757981,16.3333086687081
0.0179076785165943,16.3347500824992
0.0201819835790885,16.33614153753
0.0227210618675505,16.3374795957014
0.0255621197283441,16.3387680556382
0.0287427256330665,16.3400089621006
0.032304077237464,16.3412043328876
0.0362914322251687,16.3423561206478
0.0407642906242341,16.3434685324981
0.0457884920916835,16.3445448259498
0.0514415869827632,16.3455884176003
0.0578157903164406,16.3466028962501
0.0650204368439228,16.3475918723388
0.0731908873694708,16.3485595789532
0.0824922863222234,16.3495104379351
0.0931311362186373,16.3504494184643
0.105371086053302,16.3513823089118
0.119557273205483,16.3523161213813
0.136158101113192,16.3532598705082
0.155838582694012,16.3542258739935
0.178914249276273,16.3552051353903
0.205674853878212,16.3561915970678
0.236861733074889,16.3571971949089
0.273505791034461,16.3582399505777
0.317290273139251,16.3593537139803
0.352760220905966,16.3601888746964
0.389611014508163,16.3610240354125
0.422335755725663,16.3617641394627
0.450943647651405,16.3624364688755
0.475913022697887,16.3630743546967
0.497228090601642,16.363702017773
0.514449905995278,16.3643418610855
0.526595134139997,16.3650215337148
0.53157354908414,16.3657875414323
0.526126197681317,16.3665926498905
0.508832351831118,16.3674243814585
0.47818470016053,16.3682981865749
0.43229381768901,16.3692248671782
0.383529931219518,16.3700057802428
0.338586820795659,16.3706291189442
0.289193832451544,16.3712524576455
0.245715479920192,16.3717710760848
0.208420305375503,16.3722068123157
0.175609663622867,16.3725919497728
0.146195962005041,16.3729456551595
0.119518335005587,16.3732798322234
0.0951182516880544,16.37360320368
0.0726174007284598,16.3739236442813
0.0516142417963981,16.3742505803398
0.0314619352209533,16.3746008832306
0.0099176852112124,16.3750354729049
0.000499664437929034,16.3752541184342
-0.00800977030970229,16.3754727639635
-0.014512563544518,16.375657174984
-0.0205046216095177,16.375844014431
-0.0265121944012721,16.3760520678242
-0.0322953540024627,16.376277885447
-0.0377018330379046,16.3765194039131
-0.0426475195663976,16.3767759289366
-0.0470890347102879,16.3770476774746
-0.0510075358212574,16.3773355243735
-0.0545955574834391,16.3776620314306
-0.0573840358687435,16.3779855639537
-0.0596555575905865,16.3783305635965
-0.0614268109903315,16.37870035356
-0.06271228118434,16.3790986546887
-0.0635256183828626,16.379530065928
-0.0638781232345149,16.3800003342884
-0.0637770298091734,16.3805167556291
-0.0632230619107523,16.3810889857831
-0.0622047334283796,16.3817311414415
-0.0606945377663255,16.3824618789646
-0.0586366119052198,16.3833097671134
-0.0559132908252063,16.3843251721454
-0.0522109403020777,16.3856277659157
-0.0481544595237541,16.3870210002566
-0.0442364954434065,16.3883693252493
-0.0405033343136185,16.3896770505821
-0.0369775076643948,16.3909463124141
-0.0336704469015305,16.3921778712
-0.030586949022257,16.3933717922241
-0.0277272294653737,16.3945278086034
-0.0250880640269964,16.3956455122252
-0.0226635591723695,16.3967244516224
-0.0204457575109254,16.3977641772072
-0.018425157451388,16.3987642549886
-0.0165911746683636,16.3997242601781
-0.0149325531488556,16.4006437569545
-0.0133675590560672,16.4015648330125
-0.0118624933032898,16.4025095481091
-0.0104217501116247,16.403479563854
-0.00904925110926824,16.4044770275992
-0.00774871653125782,16.405504461923
-0.00652361299047968,16.4065648593954
-0.00537710138881848,16.4076618059143
-0.00431198257546712,16.4087996472044
-0.00333064064491653,16.4099837189321
-0.00243498331964718,16.4112206736698
-0.00162637814298928,16.4125189610234
-0.000905581906315547,16.4138895613107
-0.000272658285494663,16.4153471632474
0.000273126458334268,16.4169121764891
0.000717447060278022,16.418546600401
0.00106435560433858,16.4202304315936
0.00132980194639004,16.4219820322074
0.00152820710088147,16.4238235088417
0.00167315321036514,16.4257846271329
0.00177782306252769,16.4279080490998
0.00185567690633581,16.4302604616308
0.00192182091824006,16.4329607513013
0.00199718716470002,16.4362780731142
0.00209613328158991,16.4400268010733
0.00222920397196882,16.4440918378601
0.002408594974618,16.4486786902546
0.00258726490218849,16.4527688012422
0.00276653633875058,16.4566440777603
0.00294760641336781,16.4604386166151
0.00313175987129262,16.4642256968748
0.00332072670216635,16.4680547931235
0.00351667939898675,16.4719644943994
0.00372217067957898,16.4759881427955
0.00394008664251147,16.4801568496217
0.00417364817187569,16.4845015876734
0.0044264635733344,16.4890545971344
0.00470269375359554,16.4938508141812
0.00500738873153221,16.4989292589826
0.00534708396054926,16.5043342663678
0.00569676401881291,16.5096117884052
0.00606368331741924,16.514842010068
0.00644764750317816,16.519979515054
0.00685277241390663,16.5250365802314
0.00728305675193593,16.5300171436064
0.00774328264427811,16.5349290045362
0.00823859117853172,16.5397776272421
0.0087745656658553,16.5445664431195
0.00935728755339203,16.5492967210046
0.00999344751795775,16.5539680047366
0.0106928498632542,16.558593680964
0.0114796967435273,16.5632565290421
0.0123687400922025,16.5679486800872
0.0133830275622847,16.572688889061
0.0145553194726848,16.5775136464716
0.0159409245170196,16.5825104356638
0.0176611630037473,16.5879198357392
0.0200728797396979,16.5944999287279
0.0216788337991677,16.5984851200609
0.0233403033793816,16.6024703113938
0.0247879115101349,16.6059919456911
0.0260074080023443,16.6091731671385
0.0270214559973356,16.6122058477045
0.0277957186048556,16.6151236037432
0.0283035532223663,16.6179420034549
0.0285384966093749,16.6207852627684
0.0284595858218034,16.6238281229941
0.0279126725248909,16.627514766452
0.0270972415275709,16.6306457039777
0.0260153754150392,16.6337766415034
0.0249308177010451,16.6364426775424
0.0238563950937129,16.6388515268906
0.0227820443705209,16.6411323479656
0.021707666035924,16.6433435443285
0.0206363335246086,16.6455172756373
0.0195717337177987,16.6476744513026
0.0185175033602955,16.6498301678837
0.0174770511088564,16.6519961555601
0.01645351069288,16.6541820731927
0.0154497378493815,16.6563962658351
0.0144683180535594,16.6586462524323
0.0135115770858903,16.6609390633003
0.012581595155092,16.6632814819924
0.0116802131200285,16.6656802535068
0.0108090437856529,16.6681422508349
0.0099694845386766,16.6706746211784
0.00916272104187312,16.6732849545819
0.00838929631010052,16.6759830440144
0.00762882094272503,16.6788619090492
0.00688519187263869,16.6819418676313
0.00616220279522985,16.6852475922389
0.00546385462192869,16.688807588313
0.00479431660089218,16.6926549146133
0.00415785262438292,16.6968281563478
0.00355870310034841,16.701372843336
0.00300090282656254,16.706343808733
0.00248801424457669,16.7118096310477
0.00202288655286038,16.7178600066936
0.00160760569087132,16.7246160585591
0.00125778748398122,16.731906618306
0.000981251849420675,16.739897031419
0.000813453767982409,16.7467278627175
0.000654078009939346,16.7554735737269
0.000538302469389718,16.7644584438546
0.000451766653573978,16.7744584438546
0.000398864771521852,16.7844584438546
0.000370985215773559,16.7944584438546
0.000362062907290276,16.8044584438546
0.000368123247376908,16.8144584438546
0.000386928772844776,16.8244584438546
0.000417688022542721,16.8344584438546
0.000460898151163515,16.8444584438546
0.00051653490210821,16.8541674204163
0.000582616356523531,16.863131871435
0.000659428291047867,16.8713941194325
0.000747848789001442,16.8790110483768
0.000849131610451619,16.8860354560617
0.000964832146227451,16.8925158882447
0.00109678770879306,16.8984970959759
0.00124712517263296,16.9040204251856
0.0014182843812036,16.9091241336441
0.0016130515120939,16.9138436686071
0.00183460347058283,16.9182119219567
0.00208656351146965,16.9222594682914
0.00237307225721755,16.9260147842299
0.00269887600097667,16.9295044631087
0.00306944330471157,16.9327534409055
0.0034911180645273,16.9357852406163
0.00397132827169108,16.9386222463489
0.00451888153996939,16.9412860412467
0.00514439984076959,16.9437978568432
0.00585673546346633,16.946166308989
0.00664705528660253,16.9483560574942
0.00752764164864286,16.9504069179024
0.0085181093377507,16.9523614472994
0.00965214188928986,16.9542710729378
0.0110001807206542,16.9562191400157
0.0128352868456226,16.9584934902904
0.0143824589484095,16.9601919269481
0.0160485574623198,16.9618903636057
0.0175209689399308,16.96334238361
0.0188119124719159,16.964628583626
0.0199639961233541,16.9658376573297
0.0209830334151256,16.9670198108473
0.0218558777204745,16.9682151090442
0.0225533706671395,16.9694698224158
0.0230199020450827,16.970859960725
0.0231189265308596,16.9725847184652
0.0226529098768201,16.9744415579825
0.0216822105997456,16.9762983974998
0.0205921030942975,16.9778294670376
0.0193879195760227,16.9792848787706
0.0180660273954536,16.9807559222622
0.0166350181344297,16.9822853466088
0.0156465245875648,16.9833312622107
0.014673978658041,16.9843771778126
0.0137748588017638,16.9853886013199
0.0115506439258199,16.9881296666154
0.00958585637383055,16.9909266935282
0.00801067703993331,16.9935299872381
0.00670087698091072,16.9960366156295
0.00555327333969843,16.998584492369
0.00454227003426489,17.0012028712122
0.0036946846851638,17.0037679053255
0.00299387535957932,17.0062349058746
0.00240213403734954,17.0086442679272
0.00188770912508677,17.0110587778434
0.0014182615499159,17.0136017579785
0.000929998963428343,17.0167003696489
0.000652472787954336,17.0187274572819
0.000402952325316574,17.0207545449148
0.00019824613111274,17.0225884290506
2.31933942590438e-05,17.0242980329033
-0.000137842245057279,17.0260013680302
-0.000295461822730678,17.0278045498742
-0.000461946395036012,17.0298722961283
-0.000668822889815662,17.0327038063143
-0.000937487775329931,17.0368736768035
-0.00113368296520343,17.0403203065701
-0.00129974480324526,17.0435334650729
-0.00147120059626288,17.0471670446972
-0.00166758428146583,17.0517947917071
-0.00187023914479582,17.057360552412
-0.00200557492919617,17.0622055469259
-0.00207718311085298,17.0666192832603
-0.00207582506341494,17.0706047745428
-0.00199393756680309,17.0742152914076
-0.00182537258116378,17.0774995893279
-0.00156431827213832,17.080518986458
-0.00120320007233959,17.0833375352837
-0.000728212386838684,17.0860314977433
-0.000108955929118133,17.0887096613462
0.000719940659184787,17.0915342933717
0.0018373736453315,17.0946212933536
0.00327985435372553,17.097963861828
0.00506734571768565,17.1015424098227
0.00622196790980893,17.1036097027868
0.00748994417709685,17.1056769957509
0.00879677719301964,17.1075918053832
0.0101604845176015,17.1093701403312
0.0116123692705686,17.1110408106821
0.0132008852162834,17.1126418096836
0.014955535611141,17.114180881801
0.0169059118495533,17.1156628911803
0.01907988693192,17.1170894721038
0.021509303579367,17.1184635763471
0.0242200804309707,17.1197838244152
0.0272524466119979,17.1210551000924
0.0306459172774086,17.1222796404239
0.0344449095231966,17.1234598479445
0.038702489633493,17.1245989627251
0.0434825230009647,17.1257008123772
0.0488584692597007,17.1267688947452
0.0549175873782625,17.1278068761045
0.0617641381546851,17.1288185658634
0.0695251978391117,17.1298081344803
0.0783579466788417,17.1307802247595
0.088458965914476,17.1317400131508
0.100080474675709,17.1326935926657
0.113555405835582,17.1336484650436
0.129340991899082,17.1346144541654
0.148099657705483,17.1356053982838
0.170046767942064,17.1366078701152
0.195529788070463,17.1376195548758
0.225291933748826,17.1386540836374
0.260389104829968,17.1397322119043
0.301985012299872,17.1408771196304
0.336150457321584,17.1417493463199
0.371612842695192,17.1426215730094
0.40323422447276,17.143397849623
0.430943392968867,17.1441043323336
0.455094310713895,17.144772964021
0.475635283875558,17.1454273217712
0.49214393952384,17.146088683594
0.503725738113091,17.146781598365
0.508613345775368,17.1475427159055
0.503813889340475,17.148364583684
0.487651181665158,17.1492058839795
0.458779056232769,17.1500809249086
0.415550277864938,17.1509999709311
0.369509954371374,17.1517722118517
0.327030546760358,17.1523878482032
0.280293669609663,17.1530034845547
0.238850818387693,17.1535189954832
0.203008042845737,17.1539552636758
0.171299660278021,17.154342645498
0.142772629391706,17.1546993756314
0.116836472108803,17.1550369659899
0.0930740470485302,17.1553639602946
0.0711356315163694,17.1556881335986
0.0506451230112287,17.1560188140494
0.0309939555442062,17.156372597664
0.0101153600493989,17.1568078414232
0.00059836345803274,17.1570360208743
-0.00797922852293254,17.1572642003255
-0.0144173793251486,17.1574535726747
-0.0203302284660511,17.1576449714485
-0.0262430080500008,17.157857718441
-0.0319242335564434,17.1580883811731
-0.0372273220416767,17.1583349141617
-0.0420717280288883,17.1585966505968
-0.046416220343749,17.1588738392605
-0.0502355914442572,17.1591673897977
-0.0534993337861761,17.1594766546422
-0.056234867929806,17.1598046689863
-0.0584619989010924,17.1601546475056
-0.0601940805089337,17.160529620927
-0.0614451620905328,17.160933308368
-0.0622285152682057,17.1613703033324
-0.0625551314324951,17.161846334157
-0.0624320609517198,17.1623686546491
-0.0618599664467478,17.1629469064078
-0.0608276954112825,17.1635950262652
-0.0593088303127216,17.1643313639591
-0.0572501051465983,17.1651838106977
-0.0545406388010344,17.1662009048342
-0.0508928192898041,17.1674946122317
-0.0468908934767754,17.1688814133176
-0.0430317040971128,17.1702223079107
-0.0393601132040511,17.1715217350931
-0.0358974759324953,17.1727820120377
-0.032654265050493,17.1740040305335
-0.0296344271868154,17.1751879564545
-0.0268374174320531,17.1763336030339
-0.0242593485838767,17.1774406269877
-0.021893771762429,17.178508628878
-0.0197322882317046,17.1795371993302
-0.017765069710879,17.1805259328694
-0.0159813154696164,17.1814744211289
-0.0143696550009627,17.1823822318457
-0.0128192050035351,17.18331012772
-0.0113300848295573,17.1842619900241
-0.00990636893966108,17.1852397233401
-0.00855192692977782,17.1862455748876
-0.00727040907995501,17.1872821923369
-0.00606519557830506,17.188352724836
-0.00493934359110407,17.1894609571378
-0.00389553194134917,17.1906114917896
-0.00293600312759792,17.191810002794
-0.00206250187104456,17.1930635992034
-0.00127620845664007,17.1943813646972
-0.00057766345517409,17.1957751928394
3.33228549665699e-05,17.1972611498149
0.000557790123087865,17.1988618529939
0.000975414285299555,17.2005086576711
0.00130070630228772,17.2022103682753
0.00154901714065623,17.2039856610542
0.0017345611345047,17.2058585228289
0.00187085190699855,17.2078617629627
0.00197121357041391,17.2100434616729
0.00204962843976382,17.2124812218904
0.00212265678861297,17.2153209658234
0.00221641678510578,17.2189333950851
0.0023338950812832,17.2227278226394
0.00247592130263047,17.2265255237823
0.00263939909308112,17.2303278174859
0.00282074018627331,17.234180689926
0.00301669935130881,17.2381215081444
0.00322533516010137,17.2421831633714
0.00344623972312176,17.2463968180737
0.00368044842308037,17.2507938168118
0.00393024875402487,17.2554070988794
0.00419904129031212,17.2602726509708
0.0044913685006031,17.2654308407634
0.00481325325573622,17.270927831311
0.00514487647763308,17.2763617847951
0.0054877319890465,17.2817161495762
0.00584357304603066,17.2869739924071
0.00621570470048786,17.2921397831515
0.00660795553242193,17.2972219752622
0.00702454508442286,17.3022301196542
0.0074699148846432,17.3071715875775
0.00794879228385626,17.3120514820849
0.00846626543989809,17.3168726028698
0.00902790284321182,17.321635863949
0.00963987567347798,17.3263406966567
0.0103090902796461,17.3309855497377
0.0110540347110303,17.3356320032253
0.0118932314754609,17.3403093343795
0.0128454580881086,17.3450240091794
0.0139378127714284,17.3498014300081
0.0152121613266807,17.3546984756347
0.0167476686277914,17.3598577654782
0.0187642144857584,17.3657495393
0.0205975439817805,17.3705244297566
0.0225599211708323,17.3752993202132
0.0241584060066289,17.3791368931189
0.0254767823040495,17.3824462808175
0.0265818329169001,17.3855262181117
0.0274764018252938,17.3885276611558
0.0281003942593144,17.3913764363998
0.0284568886346325,17.3941924913289
0.028523638854435,17.3971200372543
0.0282175897355881,17.4004261062537
0.0272364164726648,17.4047959343768
0.0263456056142229,17.4075125941092
0.0252870667219779,17.4102292538417
0.0242139511174374,17.4126998049933
0.0231399582602003,17.4150163469073
0.0220651051769272,17.4172478944441
0.0209920257434075,17.4194326947937
0.0199243251151784,17.4215946753238
0.0188656875299896,17.4237506005582
0.0178196051403323,17.4259132128688
0.0167893038533082,17.4280928217527
0.0157777303937998,17.4302982080002
0.0147875566498051,17.4325371912075
0.0138211928959584,17.4348170054498
0.0128807971907948,17.4371445804016
0.011968286513991,17.4395267569634
0.0110853498120701,17.4419704609393
0.0102334518246416,17.4444828827449
0.00941385020453537,17.4470716147805
0.00862759788387542,17.4497448357779
0.00786224145681039,17.4525625610624
0.00711235853132629,17.4555745514354
0.00638179072084684,17.4588039223747
0.00567446565658851,17.4622778758437
0.00499449146162609,17.4660279295594
0.00434609709613647,17.4700907901317
0.00373353316431792,17.4745095732114
0.00316090587643462,17.4793358176733
0.00263195501267792,17.4846329047292
0.00214974601798737,17.4904827211568
0.00171655541037925,17.4969949415568
0.00134379132823785,17.5041061158506
0.00104175806667177,17.5120858353803
0.000863319680251576,17.5186656428685
0.000688387434693751,17.527220779371
0.000559282857783461,17.5359634297437
0.000457226639160274,17.5459634297437
0.000391731065336326,17.5559634297437
0.000352919542465246,17.5659634297437
0.000333679575768703,17.5759634297437
0.000329124362421135,17.5859634297437
0.000336148940768511,17.5959634297437
0.000353027311835787,17.6059634297437
0.000379114347413357,17.6159634297438
0.000414691439476996,17.6259634297438
0.000460965334020324,17.6359634297438
0.000516928147247749,17.6454519395225
0.000581827502039343,17.6542197475255
0.000656279047486848,17.6623138367458
0.000741289459327291,17.6697869128705
0.000838136003185538,17.6766879441729
0.000948332503400395,17.6830622197963
0.00107362974059185,17.6889517015516
0.00121603214154103,17.6943953208918
0.00137782428286991,17.6994292242573
0.00156160312119482,17.7040869967772
0.00177031948994365,17.7083998709458
0.00200732690396504,17.7123969219393
0.0022764432153503,17.7161052467108
0.00258202511328178,17.7195501411875
0.00292906384677944,17.7227552846027
0.00332330839483191,17.7257429321714
0.00377142728141406,17.7285341229627
0.00428123047832087,17.7311489239669
0.0048619820031906,17.733606733035
0.00552485955799792,17.7359266802492
0.00626799838324571,17.7380866580748
0.00709021953125007,17.7400860893356
0.00800385544551538,17.741960300515
0.00902787960626489,17.7437458814175
0.0101940097382526,17.74548602164
0.0115654596127695,17.7472471148805
0.0133992599920462,17.7492717431244
0.0150896578880999,17.7509167692386
0.0169302685528388,17.7525617953529
0.0185823797489442,17.7539746136057
0.0200210638107295,17.7552053169661
0.0213073980914313,17.7563521994755
0.022454761292066,17.7574678171663
0.0234531755999519,17.7585911789491
0.0242759094508532,17.7597649963285
0.0248716735603716,17.761055983607
0.0251220599961393,17.7626253878717
0.0247695840132038,17.7644642679742
0.0238187200165647,17.7663031480767
0.022713544363847,17.7677923952997
0.0214785647374776,17.7691996584531
0.020107634287512,17.7706250760166
0.0186088604360297,17.772113303193
0.0169896751406589,17.7737016398705
0.0152829111821169,17.7754359624458
0.0138470438724634,17.7770102716908
0.0114834639402253,17.7799118866521
0.00953496292839369,17.7827019556656
0.00798813200865014,17.7852835917016
0.00670069147985714,17.7877795585595
0.00557530918750699,17.7903191820284
0.00458680311629324,17.7929308531788
0.00371730850754774,17.7956378239329
0.00298933729556289,17.7983152374883
0.00238982596614699,17.8009097171983
0.00188210269831217,17.8034830750299
0.00143276727203872,17.8061499308189
0.000994013546934711,17.8092344295104
0.000706908174019384,17.8115968390783
0.000455238390183498,17.8139592486463
0.000261325882696087,17.816010460679
0.000102108726589767,17.8178764788118
-4.00376174143624e-05,17.8197056880569
-0.000175077939770689,17.8216093687834
-0.000312307918073949,17.8237361094413
-0.000469387560180586,17.8264495478195
-0.000715910796212625,17.8314484520026
-0.00088907979822882,17.8356683610482
-0.00101633488343345,17.8392720993486
-0.00113635755111709,17.8432105559997
-0.00126028611256487,17.8481731393314
-0.00135089990758533,17.8532803427065
-0.00138798232755976,17.8578523713983
-0.00136815474120063,17.8620113008144
-0.00128461435810624,17.8657859482319
-0.00113038341510022,17.8692192838536
-0.000898086724420751,17.8723641183513
-0.000579065615580869,17.8752772510382
-0.000161442376146171,17.8780201059167
0.000373271493611361,17.8806613489845
0.00105415245527555,17.883275480965
0.00193848386466518,17.8859789236914
0.00312316408726239,17.8889103262626
0.00465526710706726,17.8920239171078
0.00632289751018645,17.8948662198648
0.0078810434187598,17.8971490558125
0.00939898860975339,17.8990921568548
0.0109651699279055,17.9008512528446
0.0126575925966679,17.9025161364374
0.0144747665976356,17.9040761006487
0.0164727643820496,17.9055682271142
0.0186889157963749,17.9070031723976
0.0211416124656367,17.9083767255507
0.0238771913727511,17.9096996816807
0.0269311799081139,17.9109735983545
0.0303442579465235,17.9122008526456
0.034167016882438,17.9133854571741
0.0384541250175251,17.9145303107026
0.0432677748901774,17.9156382450208
0.048685946898035,17.9167133609165
0.0547986529709969,17.9177593291512
0.0617142952103985,17.918780108322
0.0695643698309645,17.9197799267664
0.0785139975191669,17.9207637678804
0.0887722577133117,17.9217373399511
0.1006110981513,17.922707505165
0.11439745575811,17.9236830339985
0.130650571795637,17.9246759111584
0.149992376329916,17.925695950158
0.172413524208168,17.9267201392856
0.198535360659616,17.927760748483
0.22921777930803,17.9288356897157
0.265781701494605,17.9299747747779
0.306689199726128,17.9311313670972
0.344073853412031,17.9321273993097
0.376142342810081,17.9329685103903
0.404203740546273,17.9337226559856
0.428763378130096,17.9344277499089
0.449840460032976,17.9351084504858
0.467128196535724,17.9357851774421
0.479956316361844,17.9364788717592
0.487079569171911,17.937216083739
0.486067853468756,17.9380391905788
0.474496743518718,17.9388828882169
0.45119088822168,17.9397496401773
0.414743847265812,17.9406505612483
0.363588863336948,17.9415955156423
0.323046535397425,17.9422209047585
0.278036004092263,17.9428462938747
0.237450827726939,17.9433749379949
0.202233220616356,17.9438213624654
0.171026374671657,17.944216781295
0.142913977713133,17.9445801419377
0.117329712168595,17.9449232964703
0.0938764121076416,17.9452549048609
0.0722256547546362,17.9455826454624
0.052035132564752,17.9459153372066
0.0327868942344498,17.9462675866752
0.0129854800226454,17.946683190339
0.00078227921640984,17.9469791452658
-0.00642817682595018,17.947174128323
-0.0130097440383008,17.9473691113801
-0.0187687811362335,17.947556450842
-0.0246175541111268,17.9477669871855
-0.0302961031934675,17.9479966949258
-0.0356333644970343,17.948242926045
-0.0405345068772969,17.9485046458538
-0.0449498607025341,17.9487818683302
-0.0490001839562369,17.9490881516413
-0.0523169276299714,17.9493971485282
-0.0551159442214853,17.9497251601522
-0.0574092950859932,17.9500747372741
-0.0592094513488321,17.9504487700069
-0.0605300193817361,17.9508508106661
-0.0613841837202143,17.9512852343194
-0.061783242057293,17.9517574721691
-0.0617350484109904,17.9522743589279
-0.0612421020701905,17.9528446689761
-0.0602961330346777,17.9534815494008
-0.0588755556997746,17.954201659068
-0.0569365980119587,17.9550296430619
-0.0543908268419471,17.9560063586034
-0.0510294786275181,17.957216436369
-0.0470466782095965,17.9586093701387
-0.043197300647573,17.9599532705026
-0.039531471724255,17.9612539793684
-0.0360728439249938,17.9625144866205
-0.0328328721787637,17.9637360638869
-0.0298159240348975,17.964919101622
-0.0270216198597912,17.9660635516427
-0.0244461189272803,17.9671691595886
-0.0220829657796473,17.9682355849581
-0.0199237355223487,17.9692624583088
-0.0179585713522379,17.9702494013958
-0.0161766503833322,17.9711960240702
-0.0145657607751816,17.9721023863438
-0.0130111345400126,17.9730316579432
-0.0115179603559044,17.9739849519982
-0.0100902598276517,17.9749642145535
-0.00873188587280586,17.9759717133267
-0.00744646602008951,17.9770101210075
-0.00623735143564421,17.9780826175999
-0.00510756325039543,17.9791930266782
-0.00405973619586388,17.980346000662
-0.00309605912793694,17.9815472791116
-0.00221821137105791,17.9828040595592
-0.00142729270587414,17.9841255489035
-0.000723742779181022,17.9855238190307
-0.000107241652301592,17.9870152070695
0.000423425704549179,17.9886227693014
0.000846436533810642,17.9902721474217
0.0011781760956216,17.9919774609336
0.0014339985313696,17.9937574790478
0.00162821077950313,17.9956365682126
0.00177448754578566,17.9976481593242
0.00188642994506724,17.9998414557595
0.00197852312476439,18.0022963817174
0.00206838452008978,18.0051648828386
0.00218531998378718,18.0088428952536
0.00232571970910032,18.0126498648029
0.0024922082616512,18.0164995229556
0.00268353053301632,18.0204253691547
0.00289608165067797,18.024461614919
0.00312641801427181,18.0286400129726
0.00337251887108442,18.0329918202697
0.0036341957205037,18.0375493831382
0.00391310022543859,18.0423476395986
0.00421263690791678,18.0474254641885
0.00453801607404396,18.0528269437617
0.00487975705432928,18.0583321576073
0.00522697188545042,18.0637112367787
0.00558571702648136,18.0690133422796
0.00595772142565645,18.0742156911294
0.00634728609332496,18.0793328448692
0.00675846617740561,18.0843723717284
0.00719571689812716,18.0893430529165
0.00766366283506231,18.0942506401086
0.0081672511753561,18.0990987591884
0.00871184500274045,18.1038889898191
0.00930335290843162,18.1086213192344
0.00994835302266288,18.1132945352802
0.0106566883176154,18.1179220673748
0.0114527912292972,18.122586852548
0.0123515210985347,18.1272811803984
0.0133762142767611,18.1320243593263
0.0145602399369838,18.1368542291486
0.0159604106519925,18.1418616745943
0.0177032699559648,18.1472991795433
0.0201195565113659,18.1538518106072
0.0217163743071445,18.1578013465221
0.0233645892069319,18.1617508824369
0.0248032284785587,18.1652542122203
0.026015916306313,18.1684273330909
0.0270233384298499,18.1714575805475
0.0277887480722637,18.1743701935902
0.0282878106480548,18.1771876337274
0.0285132404548223,18.1800348572274
0.0284222221567419,18.1830902319143
0.0278516125855336,18.1868212788989
0.0270317927480645,18.1899201164383
0.0259533259889141,18.1930189539777
0.0248702244965862,18.1956722333535
0.0237959982417628,18.1980760700153
0.022721595406155,18.2003546497204
0.0216471602470261,18.2025649830877
0.0205758135019884,18.2047387360073
0.0195112462872869,18.2068965942096
0.0184570880311198,18.2090535424745
0.0174167363467181,18.2112212575992
0.0163933131038757,18.2134093800484
0.0153896614640734,18.2156262626883
0.0144083551664179,18.2178794510229
0.0134517079306096,18.2201760217257
0.0125217885450503,18.2225228225885
0.0116204275516045,18.2249266809375
0.0107492272144486,18.2273945762939
0.00990957638656389,18.2299337842745
0.00910265274648337,18.2325520540488
0.00832941510876764,18.2352578398939
0.00756921392965557,18.2381452984087
0.00682595042785499,18.2412348578392
0.00610341605978998,18.2445513373477
0.00540560581928266,18.2481234105801
0.00473667810337712,18.2519843252831
0.00410087851455581,18.2561728778099
0.00350241820126411,18.2607348348902
0.00294528725119258,18.2657252995971
0.0024329789524518,18.2712132076917
0.00196824845472025,18.2772886639708
0.00155306121734402,18.284073041256
0.00129700545532951,18.2892367922149
0.00109178730218697,18.2944005431739
0.000865558994427031,18.30198249123
0.000693865761066828,18.309777625659
0.000545839200443579,18.318904026732
0.000432561206043894,18.328904026732
0.000356882694472652,18.338904026732
0.000308300008795927,18.348904026732
0.00027916729247837,18.358904026732
0.000264044974039953,18.368904026732
0.000259235122464322,18.378904026732
0.000262350454313724,18.388904026732
0.000271954114634806,18.398904026732
0.000287305077705106,18.408904026732
0.000308207308000269,18.418904026732
0.000334944405272094,18.428904026732
0.000368285990840994,18.438904026732
0.000409566764215611,18.448904026732
0.000459654283911779,18.4586875200599
0.000517189343826136,18.4677505823613
0.000582837369320223,18.4761275070613
0.000657581231277994,18.483869788328
0.00074261057985338,18.4910259249459
0.000839303155160186,18.4976409787269
0.00094923141959509,18.5037568498013
0.00107418152465522,18.5094125300866
0.00121617877123574,18.5146443188392
0.00137751758632014,18.5194860144015
0.00156079635068077,18.5239690947167
0.00176895898244015,18.5281228892467
0.00200534428308642,18.5319747406337
0.0022737453107283,18.53555015956
0.00257848299637776,18.5388729815234
0.00292449762106106,18.5419655288159
0.00331746650478217,18.5448487786956
0.00376395767821507,18.5475425472168
0.00427163728044802,18.5500657021943
0.00484955911269134,18.5524364218567
0.00550858402003444,18.5546725326634
0.00624788678315964,18.5567556603258
0.00706412041085488,18.5586792190441
0.00796809208228773,18.5604756960104
0.00897598216333583,18.5621776823259
0.0101134109474124,18.563821017955
0.011426958484849,18.5654543189102
0.0130901421537625,18.5672362246721
0.0156186304484893,18.5695500110825
0.0172602224484094,18.5708963646548
0.0189840582972374,18.572242718227
0.020554746606022,18.5734546800814
0.0219614869698992,18.5745708887521
0.0232240806233556,18.5756459874025
0.0243381077025402,18.5767193401456
0.0252815130457777,18.5778301783729
0.0260107957192489,18.5790343547473
0.0264335732905701,18.5804501027947
0.02618298285895,18.5825984292374
0.0254613273913753,18.5840688717359
0.0243973300064312,18.5855393142344
0.0231770446031158,18.5869148592603
0.0218037057885782,18.5883004154766
0.020286161715584,18.5897441053998
0.0186325116082346,18.5912835522504
0.0175720791651569,18.592274160868
0.0165416828573356,18.5932647694856
0.0140557631815879,18.5958644097949
0.011500668454049,18.5989519030154
0.00952030660305258,18.6017654604505
0.00796610808164055,18.6043456528659
0.00667808958010665,18.6068325679749
0.00555333889119753,18.6093624665086
0.00456619328651402,18.6119638629529
0.0036985760812902,18.6146598726963
0.00293588146264054,18.6174739187657
0.00232304610038068,18.6201566250737
0.0018288085840269,18.6226979706757
0.00141961129541412,18.625146097072
0.00107207922798338,18.6275482070567
0.000770970963935449,18.629940412103
0.000506081589134452,18.632349928386
0.000267185371646482,18.6348320345804
3.5605893072598e-05,18.6375885552493
-0.000137344230493579,18.6399233763806
-0.000292498661124712,18.6422581975118
-0.000409903974895662,18.6441988303368
-0.000506283162796368,18.6459171375984
-0.000593507619633875,18.6475783746966
-0.000677821995456439,18.649287242651
-0.000764936156715976,18.6511663695436
-0.000865139778850544,18.653479638847
-0.00104330680108054,18.6580234868306
-0.0011932478111243,18.6623208689963
-0.00130857312079125,18.6659652798436
-0.00141967943058511,18.6698141983162
-0.00154607291399823,18.6747598253285
-0.00165625679875051,18.6801226291815
-0.00171602776789833,18.6848358812353
-0.00172072075645029,18.6890683926319
-0.00166230281122903,18.6928598991613
-0.00153330024522905,18.6962814438767
-0.00132529575244238,18.6994148539616
-0.0010288613811986,18.7023231422155
-0.000634931341136862,18.7050462988292
-0.000132607765738428,18.7076258590575
0.000498059422242934,18.7101250210612
0.00129513568712642,18.7126314603515
0.00234194415441796,18.7152950769451
0.00377501501128818,18.718284976652
0.00555163111407944,18.7213786463812
0.00695912763923208,18.7235073300516
0.00854318597700195,18.7256360137219
0.0101204573732989,18.7275109672951
0.0117790782997035,18.7292525638778
0.0135058793314155,18.7308474308177
0.0153905209292763,18.7323719915421
0.0174722388471074,18.7338389275322
0.0197580751792229,18.7352365405002
0.0223044416448597,18.7365839206889
0.0251421415853573,18.7378805547193
0.028311267226562,18.7391294535291
0.0318585312747005,18.7403342483901
0.0358314503679533,18.7414968406764
0.0402877336534153,18.7426203894624
0.045296274647969,18.7437085753631
0.0509360163384217,18.7447647431958
0.0573010213768277,18.7457924985345
0.0645027792187934,18.7467954882856
0.0726814972605127,18.7477782727096
0.0820090125574257,18.7487456232304
0.092702781362475,18.7497030465528
0.105045065529356,18.7506571639463
0.119413832103351,18.751616306965
0.136339609936802,18.7525917551292
0.156492480713936,18.7535943777906
0.179840485250995,18.7546002621462
0.207011449291889,18.7556206371505
0.238859150291294,18.7566716178836
0.276663621316936,18.7577796045133
0.319836474844142,18.7589248244192
0.359230670161742,18.7599068314719
0.39247112390254,18.7607219496535
0.42135930087649,18.7614481424687
0.446612240058162,18.7621270090094
0.46831511400677,18.7627844494456
0.486166578889596,18.7634418533815
0.499449269677411,18.764121970303
0.506759136055982,18.7648558881504
0.505304265133896,18.7656757064015
0.492837273771043,18.7665096128734
0.468137392355752,18.7673730175805
0.429638499605619,18.7682773269555
0.375597622512112,18.7692316457836
0.333011273686731,18.7698615377898
0.285809582068206,18.770491429796
0.243512949256867,18.7710212563034
0.207045294945373,18.7714663414455
0.174877725043276,18.7718591971055
0.145987675963437,18.7722194429821
0.119750968320103,18.7725592234358
0.0957355628910934,18.7728873353971
0.073588531987894,18.7732115401146
0.0529455631619708,18.7735407532972
0.0332563424068943,18.7738898586602
0.0128996790487016,18.7743046374868
0.001188176582501,18.7745798944225
-0.00612105458577188,18.7747706972213
-0.0127972726866001,18.7749615000201
-0.0186182291439598,18.7751439969405
-0.0245539689268723,18.7753496928921
-0.0303333629477823,18.7755745114694
-0.0357769350186802,18.7758157422796
-0.0407846602103594,18.7760722953194
-0.0453037654290927,18.776344135507
-0.0493063912423357,18.7766319593725
-0.0529592717183365,18.7769553123707
-0.0558427003330347,18.7772779005534
-0.0582116464932896,18.7776214316928
-0.0600815858321853,18.7779890253255
-0.061466503140264,18.7783841876654
-0.0623800117148387,18.7788112378939
-0.0628338796457305,18.7792755438314
-0.0628364399005944,18.7797838682123
-0.0623906440515855,18.7803449013432
-0.0614889998194866,18.7809714925847
-0.060110153709447,18.7816802799881
-0.0582103944498573,18.7824957108315
-0.0557009817675094,18.7834583183661
-0.0523722073791309,18.7846520102089
-0.048334603437907,18.7860544925385
-0.0444222969550223,18.7874080010007
-0.0406885579191508,18.7887188870434
-0.0371593325446294,18.7899901156651
-0.0338475896925683,18.7912229064419
-0.0307588655060706,18.7924175900078
-0.0278937471560254,18.7935740586266
-0.0252492015429419,18.7946920030611
-0.0228194335679847,18.7957710352811
-0.0205965354587941,18.7968107475689
-0.0185710295015771,18.7978107342317
-0.0167323419702411,18.7987705899499
-0.0150692211288129,18.799689892428
-0.0134986908904947,18.8006113540842
-0.0119880295609079,18.8015564547699
-0.0105416197577334,18.8025268662627
-0.00916337638609116,18.8035247413092
-0.00785700964521631,18.8045526085116
-0.00662597255965454,18.8056134673734
-0.00547340841135343,18.8067109120589
-0.00440209568331952,18.8078492984792
-0.00341439030965141,18.809033975259
-0.00251216451089199,18.8102716119977
-0.00169674065636099,18.8115706814677
-0.000968817067891785,18.8129421967791
-0.000328379756926484,18.8144008953289
0.000225412070818254,18.8159672635298
0.00067778470553674,18.8176022823644
0.00103304691715159,18.8192868993934
0.00130722402661657,18.8210394934044
0.00151484149748144,18.8228822418463
0.00166962534584095,18.8248450213677
0.0017849696508251,18.8269706864481
0.00187467287308561,18.8293263005592
0.00195445999028455,18.8320316429009
0.00204671766686482,18.8353589218624
0.00216450183620184,18.8391091860224
0.00231817302296146,18.843180450637
0.00248936162908625,18.8470947100087
0.00267248880553526,18.8509064801051
0.0028650419892835,18.8546963500245
0.00306567091138091,18.8585178497256
0.00327429349665078,18.862411451368
0.00349195820806561,18.8664113897713
0.00372064898395066,18.8705491267756
0.00396311473025041,18.8748555047516
0.00422275681736159,18.8793622628033
0.00450363167316083,18.8841034378692
0.00481063818280778,18.8891167888015
0.00514996834607779,18.8944450163351
0.00550522189972835,18.8997713684102
0.00587361345938909,18.9050152472937
0.00625822303271038,18.9101807358449
0.00666180226292683,18.9152607314217
0.00708860530317685,18.9202632315924
0.00754327221528154,18.9251952096869
0.00803089617491992,18.9300629083135
0.00855695274592631,18.9348702528064
0.00912738828721193,18.9396190654215
0.00974871226683179,18.9443092864991
0.0104281364472354,18.9489396258159
0.0111880745932442,18.9535918279862
0.0120444515917735,18.958272843978
0.0130177354000182,18.9629948661856
0.0141367185824702,18.9677861774264
0.0154472049899434,18.9727124295015
0.017039738017505,18.9779424761507
0.0191940719188106,18.9840860901891
0.0209351527793017,18.9885409044588
0.0227765345885548,18.9929957187284
0.0243263072983927,18.9967258190169
0.0256172046875729,18.9999956265233
0.0266981912748041,19.0030600915581
0.0275607345603186,19.0060363409964
0.0281542727885924,19.0088743466737
0.0284794792787525,19.0116943421648
0.0285098311268807,19.0146464132614
0.0281487795387667,19.0180299945734
0.0271183928286488,19.0223664094271
0.0262166939186387,19.0250389888479
0.0251578362428949,19.0277115682687
0.0240853356023853,19.0301564815205
0.0230115132512332,19.03245891893
0.0219370623183101,19.0346821026662
0.0208648496108056,19.0368618374566
0.019798525133355,19.0390208919054
0.0187417645688948,19.0411753847832
0.0176980367570262,19.0433376536172
0.0166705408601133,19.0455177300148
0.0156621973244525,19.0477241871973
0.0146756529459486,19.0499646772017
0.0137132937511521,19.0522462886545
0.0127772555028831,19.0545758118796
0.0118694325420447,19.0569599493635
0.0109914922345118,19.0594054766045
0.0101448775928691,19.0619194156989
0.00933082342016823,19.0645091659164
0.00855035956679493,19.0671826746247
0.00778635060777185,19.0700181103677
0.00703825859954737,19.073049608692
0.00630988338344936,19.0763008012421
0.00560517712633254,19.079799202637
0.00492826785340008,19.0835766842917
0.00428339584435247,19.087670357876
0.00367480699504261,19.0921238355645
0.00310657969747429,19.0969893192953
0.00258239460208712,19.102331188265
0.00210523220888765,19.108232855374
0.00167728515686324,19.1148060050767
0.00131064653111963,19.1219673173943
0.00101089300584114,19.1297160278672
0.000827532951323526,19.1363446563752
0.000653382832846938,19.1448197842744
0.000519130791551105,19.1539026916639
0.000416571981988273,19.1639026916639
0.000349007463312089,19.1739026916639
0.000306859985939834,19.1839026916639
0.000283213395362818,19.1939026916639
0.000273184588467335,19.2039026916639
0.000273512534294579,19.2139026916639
0.000282187436863168,19.2239026916639
0.000298144583670826,19.2339026916639
0.000321059234646509,19.2439026916639
0.000351249714064514,19.2539026916639
0.000389683314552678,19.2639026916639
0.00043808947895784,19.2739026916639
0.000495200490449954,19.2833030267614
0.000560913845615251,19.2919836962373
0.000636105286560535,19.2999951730343
0.00072193918367956,19.3073902362441
0.000819802440625361,19.3142178002791
0.000931296486890492,19.3205230891083
0.00105825061343132,19.3263479840554
0.00120274541551153,19.3317313191274
0.00136714327454557,19.3367091308746
0.00155412387814779,19.3413148856536
0.00176672832301639,19.3455796913172
0.00200841095953276,19.3495324952873
0.00228310407237022,19.3532002695492
0.0025952970065927,19.356608194309
0.00295013722897397,19.3597798482438
0.00335356146823263,19.3627374083523
0.00381246928919231,19.3655018693777
0.00433496248159861,19.3680933034198
0.00493068591790646,19.3705311862317
0.0056113345733572,19.3728348387971
0.0063693549116075,19.3749673564752
0.0072089657000882,19.3769466455374
0.0081438899029459,19.3788086460525
0.0091954647315831,19.3805912624272
0.0104007210047155,19.3823417930619
0.0118485608236519,19.3841517531716
0.013895318504469,19.3863457502755
0.0154756861777705,19.3878511565608
0.0171672805599796,19.3893565628462
0.0187390271443732,19.3907122339131
0.0201291908776462,19.3919232236785
0.0213744293661575,19.393064862925
0.0224805359256082,19.3941841778672
0.0234336984755015,19.395319832216
0.0242029637577006,19.3965176629262
0.0247284064925439,19.3978553980833
0.0248566001435968,19.399548868165
0.0243850207186331,19.4013062928937
0.0233972071980734,19.4030637176224
0.0222742377305373,19.4045303976939
0.0210194372226219,19.4059400080666
0.0196308829089036,19.4073761020913
0.0181172866804419,19.4088803179985
0.0164853609379831,19.4104903068988
0.0149986740118417,19.4120185716185
0.0125951380235424,19.4147547736232
0.0103818254873401,19.4176718657192
0.00863621801683062,19.4203584744662
0.00723507746887491,19.4228637583389
0.00602374860668928,19.4253771396941
0.00496036527662401,19.4279493226157
0.00402415962227021,19.4306047777091
0.00321726039680848,19.4333001545199
0.00257027696073833,19.4358352116868
0.00204299336307862,19.4382333841407
0.001604461411097,19.4405269832064
0.00123157364490531,19.4427524666693
0.000906728384344422,19.4449519823635
0.000615368768510885,19.4471822526139
0.000341898417205428,19.4495490340524
5.18833106120142e-05,19.4524164043385
-0.000121171742729069,19.4543386725402
-0.000279683558002152,19.456260940742
-0.000410830481791527,19.4579819300254
-0.000524121544528431,19.4595729396398
-0.000629552240785517,19.4611470784808
-0.000733941552594557,19.4628001010194
-0.000845213228689198,19.4646711735895
-0.000982185099813362,19.4671363352458
-0.0011922073989836,19.4712771713187
-0.00135768380459226,19.4748592383887
-0.00149549091283424,19.4780628678623
-0.00163956404242569,19.4816341713689
-0.0018142443287599,19.4863013050967
-0.00200607758518361,19.49205475791
-0.0021381770049653,19.4970114873598
-0.0022118804299923,19.5014922603954
-0.00221667212410306,19.5054992306976
-0.00214482964944027,19.5090913165285
-0.00199035276050619,19.5123322165558
-0.00174760065745097,19.5152917411404
-0.00140954448230583,19.5180365720756
-0.000964955250087024,19.5206346804152
-0.000393980082732166,19.5231613935226
0.000348477220282466,19.5257386294646
0.00138458350552985,19.5286256168244
0.00272833551040699,19.5317229911302
0.00433672610241247,19.5349222844157
0.00565453831689636,19.5372827582864
0.00709802717543304,19.539643232157
0.00846024618831132,19.5416566248357
0.00985078621922358,19.5435001919774
0.0112725597017619,19.5451750122887
0.0128246428929208,19.5467861056511
0.0145197867755497,19.5483237521462
0.0164059433563568,19.5498100044119
0.0185032303943334,19.5512392538733
0.0208489994334929,19.5526180719678
0.0234675086211848,19.5539434881109
0.0263977872965377,19.5552198906864
0.0296782368217988,19.5564492776413
0.033351924937282,19.5576339103428
0.0374662093590822,19.5587758794468
0.0420829881131329,19.5598793804874
0.0472712464245982,19.5609477395725
0.0531124360871006,19.5619844351535
0.0597036806945318,19.5629931242198
0.0671607710924809,19.5639775326615
0.0756271979579905,19.5649419893548
0.0852792384510891,19.5658910980111
0.0963388271459112,19.5668300947355
0.109091793768423,19.5677651693084
0.123916650864837,19.5687039610777
0.141335120595147,19.5696565155402
0.162105178877025,19.5706370086733
0.186185436138344,19.5716207254601
0.214155125944114,19.5726154973284
0.246834842473253,19.5736350625863
0.285412787876107,19.5747013609522
0.33088115361413,19.575832934964
0.373085594342201,19.5768135496876
0.407909286594458,19.5776063094854
0.437924531024931,19.5783051701775
0.464166800592291,19.5789572199035
0.486816410247777,19.5795897943297
0.505598790847647,19.5802251415013
0.519779917314188,19.5808876284947
0.527843249134654,19.58161295964
0.526740456544257,19.5824150555272
0.51429810422993,19.5832359943155
0.489212446990933,19.5840925430035
0.4497461741029,19.584997175245
0.393936909861175,19.5859584932895
0.348596857309955,19.5866106099641
0.298122049003937,19.5872627266386
0.253275790475226,19.5878049852474
0.215032219487969,19.5882548989152
0.181545664741978,19.5886488199267
0.151607172630131,19.5890082321517
0.124499937486122,19.5893460664802
0.0997414886682709,19.5896714562401
0.0769486160092712,19.5899922704477
0.0557385587751276,19.5903173270097
0.0355557627005692,19.5906609461248
0.0148494171336403,19.5910653191693
0.00176140380239497,19.5913611761426
-0.00562933292753292,19.5915477018232
-0.0123848740900886,19.5917342275038
-0.0182674921465624,19.5919122495519
-0.0242873802765547,19.5921134165017
-0.0301632760074354,19.5923336214947
-0.035708191625445,19.5925701156503
-0.0408173791313475,19.5928217682524
-0.0454352041697721,19.5930885044432
-0.0495353857595361,19.5933709812424
-0.053102211525342,19.5936704267587
-0.0561211918965735,19.5939874622414
-0.0586035995591096,19.5943235042184
-0.0605802417936206,19.5946829867341
-0.0620655766222617,19.5950693330409
-0.0630737362756311,19.5954867415114
-0.0636171694075778,19.5959404312635
-0.0637050363955552,19.5964369772163
-0.0633412677027366,19.5969848239681
-0.0625201534160135,19.5975961717863
-0.0612219001899781,19.5982872956653
-0.0594051855580366,19.5990816894563
-0.0569859641717742,19.600017893702
-0.053768955179639,19.601173848038
-0.0496792633175824,19.6025896292696
-0.0457019228728951,19.6039553460026
-0.0418949414224165,19.605278744923
-0.0382878979459614,19.6065629206023
-0.0348959568489952,19.6078091193531
-0.0317262474883521,19.6090176516971
-0.0287806331209444,19.6101883689958
-0.0260571355258368,19.6113209143216
-0.0235508247524575,19.6124148530781
-0.0212544801787522,19.6134697370281
-0.0191591411348316,19.614485129427
-0.0172545908780572,19.6154606060162
-0.0155297876166664,19.6163957399591
-0.0139429494737087,19.6173080251683
-0.0124140350151288,19.6182435265938
-0.0109478871915792,19.6192035845978
-0.00954849017800386,19.6201902237684
-0.008219648293358,19.621205812198
-0.00696493145606627,19.6222531490694
-0.00578762400138771,19.6233355751482
-0.00469067117474566,19.6244571207534
-0.0036766233363487,19.6256227083241
-0.00274757750964778,19.6268384370333
-0.00190511531237788,19.6281119951722
-0.00115023526891031,19.6294532801358
-0.000483275584112416,19.6308753736522
9.61803805638109e-05,19.6323961655417
0.000582904623135228,19.6340164278057
0.000965387335652863,19.6356790764356
0.00126060949651742,19.637402444704
0.00148340758990391,19.6392064992231
0.00164764975100361,19.6411176386369
0.00176662092009258,19.6431727100933
0.00185358642355927,19.6454272252004
0.00192280240661736,19.6479745667696
0.00199209682307761,19.6510036721321
0.00208478769237411,19.6547378195337
0.00220386288820062,19.6586331682973
0.00236993688206156,19.6630928087039
0.0025418926829468,19.6671389959932
0.00271823625690378,19.6709975823815
0.00289859908968014,19.6747885853708
0.00308329506947055,19.6785804306501
0.00327343225285845,19.6824204870431
0.00347079722205438,19.6863463136099
0.00367772453709303,19.6903908012724
0.00389699637961918,19.6945849744461
0.00413179888262285,19.6989599330697
0.00438574664707358,19.7035482536296
0.00466303536263066,19.7083854344371
0.00496878170341438,19.7135112557717
0.00530964468393257,19.7189710413489
0.0056567264276838,19.7242468967844
0.00602169559592879,19.7294897904907
0.00640299995675849,19.7346326648488
0.00680533089073003,19.739696219626
0.00723253144460939,19.7446827160783
0.007689398547595,19.7496008460052
0.00818098238883819,19.7544558604669
0.00871278586019476,19.7592512409438
0.00929079215518336,19.7639882204343
0.00992158967569596,19.7686663409188
0.0106131756943387,19.7732883276371
0.0113910047304478,19.7779491125651
0.0122690298406898,19.7826377176611
0.0132696463805601,19.7873720819373
0.0144242047777205,19.7921856466937
0.0157846754415122,19.7971582637589
0.0174610750754336,19.8025042107062
0.0198624990351061,19.8091350051177
0.0214961643392835,19.8132162755923
0.0231952040176542,19.8172975460669
0.0246676842878765,19.8208672821851
0.0259059716582887,19.8240699110184
0.0269381297533667,19.8271097263478
0.0277361965459799,19.8300420235952
0.0282673639597934,19.8328645707658
0.0285271922408335,19.8357000223379
0.0284790822467245,19.8387150539354
0.0279884343581235,19.8423039545656
0.027184506456334,19.8455183628649
0.0260939119003903,19.8487327711642
0.0250058253482584,19.8514314331732
0.0239309821805326,19.8538536178699
0.0228566662347788,19.8561413060508
0.0217821735436367,19.8583563422449
0.0207104646665098,19.8605320975825
0.0196452136436166,19.8626900539962
0.0185900689002597,19.864845626221
0.0175484570337341,19.8670107383836
0.016523531049386,19.8691951738139
0.0155181657764612,19.8714073596101
0.014534964627018,19.8736548702462
0.0135762708695202,19.8759447719071
0.0126441813895788,19.8782838704486
0.0117405525740264,19.8806789239653
0.0108670132782497,19.8831368071684
0.0100249748909761,19.8856646660494
0.0092156379384419,19.8882700791498
0.00844000371477831,19.8909612106908
0.00767848326147507,19.8938270379177
0.00693352835749902,19.8968924672482
0.00620893633490322,19.9001818605265
0.00550869352386121,19.90372344075
0.00483695770855877,19.9075499303069
0.00419798726274515,19.9116995019195
0.00359602702199133,19.9162171517651
0.00303513099429525,19.9211569655004
0.00251890001615777,19.9265863715627
0.00205023214347122,19.9325933020348
0.00163125284231418,19.939296338288
0.00127672194971613,19.9465479121685
0.000998074350389394,19.9544081626557
0.000825496973341112,19.9612495638
0.000663523214123374,19.9698897176115
0.000544199970132621,19.9788382462731
0.000454077654574228,19.9888382462731
0.000419568137578507,19.9944191231365
0.000394028606033642,20
