ecg,time
0.00171145914190723,15.0020291568275
0.00193813934406312,15.0061461616316
0.00219473298347982,15.0099615638654
0.00248525472879507,15.0135015951282
0.00281429310943533,15.0167907103611
0.00318711416011977,15.0198517922537
0.00360979740312387,15.0227063384717
0.0040894148114698,15.0253746729892
0.00463427784490161,15.0278762116444
0.00525429039317965,15.0302297764104
0.00596087044224595,15.0324522958314
0.00674027077452265,15.0344950520749
0.0076015606822147,15.0363919127806
0.00855856255097375,15.038176913211
0.00963234825848451,15.0398853327671
0.0108589800840329,15.0415606434427
0.0123358183604239,15.0432988582559
0.0143840441366811,15.0453688231665
0.0160704421120979,15.0468794809494
0.0178856432264239,15.0483901387324
0.0195432288548876,15.0497217177711
0.0210045253281006,15.0509034306626
0.0223155456247892,15.0520150455424
0.0234847805082605,15.0531037835753
0.0244995296732438,15.0542076659058
0.0253296746693115,15.0553712451298
0.025916728345574,15.0566692899231
0.0261134886297333,15.0583056707728
0.0255653382855209,15.0603287621354
0.0245717566939771,15.061989662389
0.0234341633017243,15.0634139912722
0.0221533172096467,15.0648020816564
0.0207312550507918,15.066226327357
0.0191772465016391,15.0677268571575
0.0174973738282924,15.0693426832053
0.0158740188115098,15.0709762956092
0.0143138806601785,15.072677970635
0.0130474800410058,15.074177779086
0.0119362593232346,15.0756017381985
0.0108979886867715,15.0770432416366
0.00987198024698831,15.0785963126928
0.00877634013593065,15.0804303168113
0.00748930273894862,15.0828864782243
0.00636175829492066,15.0854047408626
0.00543585834073058,15.0878347240597
0.00462716780671723,15.0903385787368
0.0038820344087584,15.0931051074802
0.00324324916517237,15.0960091060547
0.00270376482859514,15.0990740968853
0.00225800632368343,15.1023315456615
0.00190366194040841,15.1058191594479
0.00164332046583314,15.1095833222364
0.00148773605708367,15.1136827401451
0.0014592277314853,15.1178007087647
0.00154687707507734,15.1214751307539
0.00172946475550716,15.1247803090163
0.00199562015682722,15.1277601919597
0.00234028788483676,15.1304624323085
0.00276293706652175,15.1329323965094
0.00326815707457955,15.1352184992462
0.0038661618372352,15.1373691341491
0.00457596844036947,15.1394377553691
0.00543161793571611,15.1414888801171
0.00649516171014657,15.143609342532
0.0078894015652478,15.1459362503442
0.00979465473153729,15.148600284571
0.0114528968383706,15.1505928319139
0.0133434140467641,15.1525853792568
0.0152327957772565,15.1543283660491
0.0171586942706024,15.1558857788989
0.0192166232669703,15.1573410899834
0.0214513821646801,15.158716795437
0.0239110895173554,15.160029397865
0.0266478691696503,15.1612908929043
0.0297002424364355,15.1625029576819
0.0331219653307182,15.1636715155538
0.0369617913837044,15.1647982039386
0.0412779943798617,15.1658859424782
0.0461373588249097,15.1669377683752
0.0516131725396657,15.1679560895844
0.0577952690347802,15.1689442995175
0.0647872731814944,15.1699055309865
0.0727117600782148,15.1708430202353
0.0817181813778478,15.1717604522238
0.09198752830125,15.1726616829596
0.103742897243789,15.1735509433023
0.117263760940942,15.1744330075368
0.132906539762994,15.1753134148407
0.151135130471206,15.176198784179
0.172572582333472,15.1770974844916
0.19802469305556,15.1780185743443
0.227462406545494,15.1789409814522
0.261609381215088,15.1798732748574
0.301449328240017,15.1808290269498
0.348569321500752,15.1818352084334
0.386195126318538,15.182576948987
0.425321906739144,15.1833186895407
0.460024832928605,15.1839753870496
0.490414280712964,15.1845737883674
0.517116354006493,15.1851466029829
0.540139788497507,15.1857178780639
0.558995341683222,15.1863119561485
0.572499429773079,15.1869643897384
0.577677512193147,15.1877119488721
0.571239906507403,15.1884797707648
0.552005665807166,15.1892895412607
0.518068495417768,15.1901605473702
0.471024298267391,15.1910389213765
0.408912002950271,15.1919597381401
0.358859797755504,15.1925982442098
0.304039399269502,15.1932367502795
0.256240500790037,15.1937641759061
0.215990271288663,15.1942001598156
0.18100968603568,15.1945816463926
0.149882030008945,15.1949300669522
0.121785638480602,15.1952582184104
0.096172174891943,15.1955752162998
0.072602903595253,15.1958891638278
0.050622207046313,15.1962097455573
0.0294970959453364,15.1965546011965
0.00653171696261606,15.196991955885
-0.00259983127557421,15.1971925311118
-0.0108919484534578,15.1973931063387
-0.0174818344966546,15.1975683911192
-0.0236208260399941,15.1977476690586
-0.0297977895027492,15.1979477938603
-0.0357599394182763,15.1981653344074
-0.0413467156461069,15.1983982452382
-0.0464685774754472,15.1986458131392
-0.05107877454947,15.1989082173861
-0.0551565067561227,15.1991862843615
-0.0586969545469783,15.1994813708582
-0.061705154247136,15.199795327374
-0.064206609371249,15.2001342007979
-0.0661402443910888,15.2004903916102
-0.0675765707416931,15.2008739662622
-0.0685306802087325,15.2012894438462
-0.0690149576433578,15.2017423833465
-0.0690378049913289,15.2022398506424
-0.0686013869365842,15.2027910300002
-0.0676960786292017,15.2034095312503
-0.0662956733478628,15.2041135087558
-0.064345947743666,15.2049304750241
-0.0617324151697975,15.2059085298736
-0.0581551928398926,15.2071595261886
-0.0539821999510885,15.208573027515
-0.049923587945589,15.2099418903244
-0.046034362936056,15.2112712127788
-0.04234269970296,15.2125631290623
-0.0388638911504829,15.2138183284659
-0.0356058075465733,15.2150367764055
-0.0325712693447882,15.2162180974007
-0.0297592835074409,15.2173617773905
-0.0271658374455378,15.2184672686873
-0.0247845109732234,15.2195340402953
-0.022607004928527,15.2205615957573
-0.0206236191801962,15.221549470402
-0.0188236883267707,15.2224972145664
-0.0171959738661182,15.2234043664128
-0.0156279648643125,15.2243320029954
-0.0141203824477531,15.2252836366987
-0.0126772682870506,15.2262611711116
-0.0113024612615808,15.2272668501938
-0.0099995758683082,15.228303319216
-0.00877194927069298,15.2293737257108
-0.00762258565344813,15.2304818536031
-0.00655409744787696,15.2316323054672
-0.00556864274606704,15.232830756348
-0.00466785743128472,15.2340843176569
-0.00385277917436367,15.2354020772935
-0.00312375786203241,15.2367959358972
-0.00248034181900131,15.2382819714812
-0.00192111772174794,15.2398828219111
-0.0014681612496655,15.2415293555788
-0.00110674214225172,15.2432308605462
-0.000821293342057185,15.2450059960266
-0.000597312103395576,15.2468787523793
-0.00042088870749543,15.2488819503286
-0.000278121809903565,15.2510636966069
-0.000154103797448109,15.2535016562664
-3.05343857286578e-05,15.2563419254138
0.000123208181218323,15.2599559699425
0.000297910723607886,15.2637498895936
0.000514816632369941,15.2679919050967
0.000788682092726059,15.2729300514468
0.00108630164303266,15.2780908911789
0.00135372831898228,15.2827038580096
0.00160214352877336,15.2870411341559
0.00184551890664348,15.2913641856212
0.0021012239858255,15.295983704238
0.00237352876336258,15.3009653564049
0.00263953685679033,15.3058523831193
0.00291243534250502,15.3108499937565
0.00314454078877201,15.3150504127764
0.00336348273387167,15.3189570606023
0.0035797701391622,15.3227482965417
0.00379904652005418,15.3265103806295
0.00402541039280829,15.3302978676111
0.00426245704633897,15.3341516286967
0.0045137108369381,15.3381056174692
0.0047828951539034,15.3421904538446
0.00507416826185176,15.346435912272
0.00539233810937833,15.3508722709091
0.00574315601585095,15.3555315151898
0.00613378694563357,15.3604486378545
0.00656488806253561,15.3655619594386
0.00701406301654876,15.3705560786066
0.00749161183089668,15.3755137190269
0.00799814904251992,15.3803961866189
0.00853919630935561,15.3852099983458
0.00912049932634565,15.3899551221765
0.00974911074591136,15.3946351503824
0.0104329027957323,15.3992523009119
0.0111968762301502,15.4039019244576
0.0120555844384538,15.4085797130557
0.0130304024018348,15.4133015157418
0.0141506202187026,15.4180964334197
0.0154628307032352,15.4230318901416
0.0170593946754585,15.4282814640656
0.0192302786162796,15.4344822499198
0.0209532264513093,15.4389042094243
0.0227712467671803,15.4433261689288
0.0243063621447485,15.4470489062584
0.0255857865325653,15.4503212910384
0.0266557518532961,15.4533926797851
0.027505435947876,15.4563737191397
0.0280865082133391,15.4592195943092
0.0283989204116106,15.4620513054374
0.0284147837246393,15.4650215675111
0.0280329118496971,15.4684418115636
0.0272478159383271,15.4718830571335
0.0261238808036196,15.4753243027035
0.0250239901226016,15.4781018726897
0.0239466935044506,15.4805572502591
0.022871583330253,15.4828649218004
0.0217964669739104,15.4850941036732
0.0207240511301369,15.4872805196593
0.0196579809814741,15.4894467125023
0.0186019342307515,15.4916086487573
0.0175593823735611,15.493778552483
0.0165335314056282,15.4959663483432
0.0155273100324585,15.4981804989707
0.0145433750245058,15.5004285295364
0.0135841244877617,15.5027173733876
0.0126517031553622,15.5050536382751
0.0117480160558592,15.5074437930856
0.0108747382317751,15.5098943256285
0.0100333170123908,15.5124119006626
0.00922498643513901,15.5150034750868
0.00845077138437081,15.5176764409081
0.00768983548708461,15.5205232143109
0.00694511802251093,15.5235664085302
0.00622035800496289,15.5268297954077
0.00551948825563706,15.530340813452
0.0048466701581993,15.5341312151026
0.0042061587280115,15.5382379472796
0.00360211310722251,15.5427044239933
0.00303849957281244,15.54758259869
0.00251883642405785,15.5529368306219
0.00204594324179547,15.5588503376524
0.00162184616775734,15.565434251124
0.0012571597173939,15.5726306973036
0.000953281753747218,15.5804225836153
0.000703628019800551,15.5889386245163
0.000505227879761786,15.5983500900562
0.000376042591881736,15.6074498851682
0.000278361992888046,15.6173060187681
0.000209271396145871,15.6273060187681
0.000161251416496772,15.6373060187681
0.000128297381671003,15.6473060187681
0.000106114008658016,15.6573060187681
9.15324407343844e-05,15.6673060187681
8.22646935387418e-05,15.6773060187681
7.67128745720935e-05,15.6873060187681
7.37865475676281e-05,15.6973060187681
7.27477116424637e-05,15.7073060187681
7.30964967418248e-05,15.7173060187681
7.44942627822383e-05,15.7273060187681
7.67136224899835e-05,15.7373060187681
7.96055974743169e-05,15.7473060187681
8.30773852682804e-05,15.7573060187681
8.70770101338434e-05,15.7673060187681
9.15827574186783e-05,15.7773060187681
9.65960826931493e-05,15.7873060187681
0.00010213708344808,15.7973060187681
0.000108241875683341,15.8073060187681
0.000114961420416153,15.8173060187681
0.000122361513810219,15.8273060187681
0.000130523792283332,15.8373060187681
0.000139547717902563,15.8473060187681
0.000149553611883162,15.8573060187681
0.000160686909442131,15.8673060187681
0.000173123933375196,15.8773060187681
0.000187079645566247,15.8873060187681
0.000202818061529709,15.8973060187681
0.000220666343044486,15.9073060187681
0.000241034082170991,15.9173060187681
0.000264440063198702,15.9273060187681
0.000291550020166035,15.9373060187681
0.000323230918815954,15.9473060187681
0.000360630668896418,15.9573060187681
0.000405298015602993,15.9673060187681
0.000459367810099342,15.9773060187681
0.00052182749516168,15.9867496777489
0.000592514364033065,15.995470565867
0.000672408725669433,16.0035170747847
0.000762709193325025,16.0109419674428
0.000864791450972042,16.0177944132139
0.000980217450551611,16.0241199954832
0.00111075689853977,16.0299610079233
0.00125841425514646,16.0353567105972
0.00142546187101185,16.0403435227627
0.00161447387703496,16.044955230993
0.00182837181902117,16.0492232065817
0.00207047334950242,16.053176617393
0.00234455525386842,16.0568425928747
0.00265492537417419,16.0602463962346
0.00300651677385642,16.063411622406
0.00340500935914147,16.0663603949805
0.00385698326312091,16.0691135586556
0.00437013222657058,16.0716909187218
0.00495356178126321,16.0741115318162
0.00561821874856495,16.0763940663602
0.00636215328745189,16.0785172154385
0.00718328663470118,16.0804787428775
0.0080929480300232,16.0823124237225
0.00910820141143753,16.0840523754226
0.010256515295166,16.0857369065948
0.0115892449758062,16.08741997978
0.0132987769160624,16.0892798861698
0.015271778117309,16.0911484862255
0.0169216135062695,16.0925665056409
0.0186627133428844,16.0939845250562
0.0202209385290453,16.09523372397
0.0216115254491115,16.0963765297714
0.0228592612716909,16.0974729797191
0.0239615814891033,16.0985637768583
0.0248982756734713,16.0996879911712
0.0256290515868672,16.1008992997912
0.0260705022385504,16.1023060813541
0.0259233743594397,16.1043523471438
0.0252704674269618,16.1058677552743
0.0242539973885448,16.1073831634049
0.0230810311819849,16.1087790305543
0.0217597081380945,16.110171890416
0.0202992886399016,16.1116140714832
0.0187091907933596,16.1131431657131
0.0176951478590683,16.1141184238298
0.0167036669249108,16.1150936819466
0.0155115967725601,16.1163267333499
0.014063255717047,16.1179333632851
0.0128359844153404,16.1194082125376
0.0117430568092007,16.1208290643043
0.0107115661292478,16.1222830272055
0.00968055044418782,16.123870398506
0.00855623954624981,16.1257926183327
0.00729665388209009,16.1282568972155
0.00619431885081381,16.1307842198375
0.00529405646640358,16.1332120676897
0.0044960880744764,16.1357559786116
0.00376919392492626,16.138543458047
0.0031473305430982,16.1414721010048
0.0026236588032009,16.144566600484
0.00219307321366832,16.1478593115091
0.00185393057141345,16.1513891786195
0.00160988024505979,16.1552043325929
0.00147355407942514,16.1593659859669
0.00146641465569437,16.1634026632893
0.00157086189636647,16.1670134182278
0.00176783817939059,16.1702616544338
0.00204716074470652,16.1731923520448
0.00240474397362078,16.1758538956484
0.00284056904248579,16.1782899458847
0.00336029748168931,16.1805504420631
0.00397517545990358,16.1826835817913
0.00470610355922434,16.1847441344078
0.00559019649432723,16.1867986186714
0.00669767401864764,16.1889422808786
0.00816415061340429,16.1913195082216
0.0101297018483666,16.1939921418214
0.0117768566338839,16.1959219371637
0.0136495109941442,16.197851732506
0.0155363538912339,16.1995558514562
0.0174770352278687,16.201092272747
0.0195622896004107,16.2025349653055
0.021829368672597,16.2038992946924
0.0243313998616458,16.2052037299076
0.0271155820827331,16.2064568716585
0.0302246371275498,16.2076619898014
0.0337095277467927,16.208823474895
0.037623123848934,16.2099440557461
0.042021682998998,16.211025719979
0.0469747901221444,16.2120719311713
0.0525582307177448,16.213085245841
0.0588630394501507,16.2140688647432
0.0659961717017068,16.2150260360642
0.074084244200443,16.2159600742284
0.0832806818650804,16.2168746200574
0.0937728243179194,16.2177736206711
0.105791910398703,16.2186613924037
0.11962787082147,16.2195427905031
0.135652110082489,16.2204235110791
0.154349927814541,16.2213103995973
0.176377483524574,16.222212216587
0.202421370100287,16.2231330436917
0.232554268442649,16.2240563609926
0.267531147080635,16.2249912826023
0.308397066236294,16.2259526723636
0.356912248822511,16.2269714580244
0.393794571907715,16.2276906515968
0.431862508080125,16.2284098451692
0.465694915658548,16.2290526296731
0.495404755732691,16.2296444623133
0.521469239997311,16.2302153531805
0.543805081059396,16.2307887508572
0.561827035175264,16.2313899913209
0.574162804585699,16.2320586812372
0.577428321735841,16.2328080968528
0.568925029525648,16.2335815383078
0.547354847302149,16.2344004165386
0.51138793083693,16.2352690686481
0.461905499093905,16.2361549149569
0.397782063000306,16.2370759278044
0.348997515508468,16.2376849992159
0.296078350916441,16.2382940706274
0.249744742408374,16.2388028444745
0.21043183195539,16.2392285082361
0.176103214978422,16.2396039275422
0.145475101968597,16.2399486082086
0.117783356180056,16.2402745481869
0.0925044751084896,16.2405905647973
0.0692058673739756,16.2409048056264
0.047414391061854,16.2412275471274
0.0262978114140827,16.2415790752335
0.00787438274048551,16.2419321181768
-0.00166747659534521,16.2421393074567
-0.0103096514278581,16.2423464967366
-0.0169895631838127,16.2425228794371
-0.0231099789735443,16.2427002200721
-0.0292942320549213,16.2428987614954
-0.0352813529992722,16.2431149674996
-0.0409031623738518,16.2433466545876
-0.0460655198529537,16.243593019273
-0.0507189094171861,16.2438541787958
-0.0548408393080646,16.2441309119928
-0.0584254439925411,16.2444245342401
-0.0614771195609494,16.2447368553211
-0.063998696403035,16.2450701945262
-0.0659892742952883,16.2454260117943
-0.0674690014022415,16.2458070170166
-0.0684651852909138,16.2462194706274
-0.0689905749279476,16.2466688408161
-0.069054005683399,16.2471620399513
-0.068658305884446,16.2477080319848
-0.0677951744570799,16.2483199497807
-0.0664401346770954,16.2490154555608
-0.0645422653716797,16.2498209417122
-0.0619949187125885,16.2507818212393
-0.0585274614508425,16.251999877418
-0.0543475413707504,16.2534181256282
-0.0502760106247111,16.2547906636075
-0.0463704163253413,16.256123362609
-0.0426605372059231,16.2574185402182
-0.039162511304489,16.2586769773995
-0.0358847427932748,16.2598986843111
-0.0328304383984926,16.2610833054083
-0.0299989059440618,16.2622303335205
-0.027386373244425,16.2633392212482
-0.0249866106840263,16.2644094349956
-0.0227914651760424,16.2654404750967
-0.0207913422231697,16.2664318745581
-0.0189756452557286,16.2673831833392
-0.0173331717858721,16.2682939419941
-0.0157602474477941,16.2692195530486
-0.0142473150865923,16.2701690571635
-0.0127985132715776,16.2711442850582
-0.0114176971411913,16.2721474505014
-0.0101085025037484,16.2731811607327
-0.00887429246881012,16.2742485154599
-0.00771810206157639,16.2753532376373
-0.006642579734432,16.2764998508263
-0.00564992515313522,16.2776939256385
-0.0047418218685989,16.278942432102
-0.00391936217411267,16.2802542609795
-0.00318295901181174,16.2816410276992
-0.00253223491473978,16.2831183776789
-0.00196586727999409,16.2847082503777
-0.00150401613593736,16.2863509449452
-0.00113520540794351,16.2880469267256
-0.000843679874931687,16.2898147352977
-0.000614864579429588,16.2916777677699
-0.000434817654709738,16.2936678755018
-0.000289668213072361,16.2958314218167
-0.000164659973659792,16.2982425039563
-4.19704652006689e-05,16.3010381381501
0.000107021923083856,16.3045535524144
0.000279188729998213,16.3083302715415
0.000491004718217412,16.3125132267626
0.000763756640708378,16.3174597670699
0.00106387315619273,16.3226729962489
0.0013334409121233,16.3273207289908
0.00158285525208739,16.331669952909
0.00182609961643369,16.3359845712816
0.00207991899074382,16.3405641908781
0.0023534923552003,16.3455658278025
0.00261950665112476,16.3504524715025
0.00289400890602202,16.3554822881612
0.0031277546899494,16.3597163530236
0.00334721355233084,16.3636369107238
0.00356347311399957,16.3674332288927
0.00378237160667877,16.3711953672688
0.00400807523020549,16.3749794150661
0.00424419738644529,16.3788269526792
0.00449425825848171,16.3827723225645
0.00476195700965065,16.3868462839737
0.00505141233762923,16.3910786264625
0.00536737460903555,16.3954995483447
0.00571551083398871,16.4001408629341
0.00610285770612598,16.4050372940126
0.00653284886079241,16.4101610303043
0.00697995533687034,16.4151562913115
0.00745553752806373,16.4201194549326
0.00795972869571964,16.4250068765188
0.00849806397311253,16.4298258800907
0.00907617089050079,16.4345759095944
0.00970104126889286,16.4392606446239
0.0103804819248437,16.4438823685059
0.0111380219266322,16.4485290509683
0.0119891731321612,16.4532044657224
0.0129546405327055,16.4579223198673
0.0140629470957465,16.4627102809442
0.0153588613102119,16.4676316088884
0.0169292830982635,16.4728471296548
0.0190333278884679,16.4789214369174
0.0207945332961936,16.4834772702272
0.0226627939384735,16.4880331035369
0.0242207175191665,16.4918056552093
0.0255140366009597,16.4950974277262
0.0265964420859737,16.498176248281
0.0274626103683665,16.5011695999517
0.0280594663370371,16.504020349444
0.0283882240999932,16.5068491942161
0.0284233212845396,16.509805411891
0.0280713542547469,16.5131814405523
0.0270498652134846,16.5175333750388
0.0261486555633326,16.520225429811
0.0250881387777743,16.5229174845833
0.0240141410689968,16.5253769863383
0.0229393191859288,16.5276907539937
0.0218641695409711,16.5299235568843
0.0207914900570247,16.532111872709
0.0197249189608081,16.5342787869521
0.0186681430044377,16.536440572617
0.0176246494042367,16.5386096373112
0.0165976619922068,16.5407960201918
0.015590126555466,16.5430082586839
0.0146047170056462,16.5452539245588
0.0136438475728156,16.5475399797994
0.0127096785333277,16.5498730467045
0.0118041304100425,16.5522595961948
0.0109288918273631,16.5547061123253
0.0100854246390353,16.5572192436411
0.00927497592848557,16.5598059253522
0.00849858372951777,16.5624735175066
0.00773677302223326,16.5653087110368
0.00699093395315173,16.5683390314516
0.00626481419704247,16.5715879653964
0.00556233498604101,16.5750827072047
0.0048876423662033,16.5788547190183
0.00424499358627741,16.5829405943838
0.00363855591913362,16.5873832954327
0.00307230804563419,16.5922342150526
0.00254981787677137,16.5975566659269
0.00207394564755582,16.6034325196298
0.00164676486383899,16.6099708812526
0.00127806142354382,16.6171336311323
0.00097058445549768,16.6248850255879
0.000717733801046998,16.6333513632201
0.000515862247354115,16.6427009597703
0.000389315474673118,16.6513436861336
0.000286870823293995,16.6612724101774
0.000215144325387048,16.6712724101774
0.000165285464056733,16.6812724101774
0.000131035161887633,16.6912724101774
0.00010793947368989,16.7012724101774
9.27185825249588e-05,16.7112724101774
8.300299988082e-05,16.7212724101774
7.7135600581526e-05,16.7312724101774
7.39841655979541e-05,16.7412724101774
7.27818824509354e-05,16.7512724101774
7.30091448593467e-05,16.7612724101774
7.431370010831e-05,16.7712724101774
7.64586483628748e-05,16.7812724101774
7.92882723502045e-05,16.7912724101774
8.27049298311036e-05,16.8012724101774
8.66531079428089e-05,16.8112724101774
9.11084366782076e-05,16.8212724101774
9.60702945872365e-05,16.8312724101774
0.000101557058515164,16.8412724101774
0.000107603314325297,16.8512724101774
0.000114258554245042,16.8612724101774
0.000121587059332439,16.8712724101774
0.000129668806191463,16.8812724101774
0.000138601352738141,16.8912724101774
0.000148502760716508,16.9012724101774
0.000159515717074576,16.9112724101774
0.000171813137773305,16.9212724101774
0.000185605694645554,16.9312724101774
0.000201151923889652,16.9412724101774
0.00021877189193134,16.9512724101774
0.000238865871848716,16.9612724101774
0.000261940222637479,16.9712724101774
0.000288643837296337,16.9812724101774
0.000319820438119811,16.9912724101774
0.000356585199577344,17.0012724101774
0.000400439701809286,17.0112724101774
0.000453449061569228,17.0212724101774
0.000515110057025345,17.0307906383271
0.00058491924172553,17.0395831985696
0.000663824687912965,17.0476958669666
0.000753006376849275,17.0551817040794
0.000853821704214737,17.0620902596809
0.000967812739683893,17.068467468347
0.00109672689853076,17.0743559459081
0.00124254333834099,17.0797952517785
0.00140750563057344,17.0848220850338
0.00159415534695801,17.0894704904349
0.00180537655199081,17.0937720748864
0.00204444379689281,17.0977562222201
0.00231508435898264,17.1014502619575
0.00262154783149038,17.1048796386191
0.00296869881603092,17.1080681073566
0.0033621349120037,17.1110379333058
0.00380833588493539,17.11381008131
0.00431487045525399,17.1164044497086
0.00489068362976316,17.1188401568222
0.00554650937639795,17.1211358901213
0.00628306098961213,17.1232773981988
0.00709590423783271,17.1252538464656
0.00799589374746051,17.1270989968248
0.00899938280936233,17.1288468626105
0.0101323950387631,17.1305349840731
0.0114426637740467,17.1322147492563
0.0130996605631708,17.1340451407769
0.0156304959187047,17.1364341179883
0.0172328062625635,17.1377927313712
0.0189101269512511,17.139151344754
0.0204374553642361,17.140377203232
0.0218059454384015,17.1415099409619
0.0230326885496207,17.1426031776287
0.0241120511284427,17.1436963311303
0.0250212938482125,17.1448294597737
0.0257160222278647,17.1460605841095
0.0261008035981447,17.1475153402286
0.0258501384317427,17.1495552577161
0.0251528178282333,17.1510399722472
0.0241191681946123,17.1525246867784
0.0229284996061896,17.1539152606975
0.0215898248294528,17.1553118076804
0.0201132655904725,17.1567625588029
0.0185078997464271,17.1583047829019
0.0174903551487903,17.1592851432085
0.0165016352271724,17.160265503515
0.0148454159854843,17.1620174618269
0.0134902872494703,17.1635754576881
0.0123340547146724,17.1650148255279
0.0112762365515288,17.1664400814441
0.0102530482858209,17.1679386575183
0.00919687953482359,17.1696379948076
0.00795687429693245,17.1718859892127
0.00677090919135275,17.1743790390248
0.00576204337431316,17.1768693312138
0.00491896254969437,17.1793211703747
0.00414289267791712,17.1820103090402
0.00346594208601414,17.1848613933947
0.00289078230713294,17.1878638858905
0.00241107124554528,17.1910466650751
0.00202316223783902,17.1944449089569
0.00172757966704492,17.1981014645541
0.00153153024307017,17.2020699914708
0.00145432495327534,17.2063667675409
0.00150483079694772,17.2101793729529
0.0016561690750906,17.2136086846659
0.00189419024595908,17.2166962438528
0.00221184371866635,17.2194892818771
0.00260722925222569,17.2220348123596
0.0030830785687196,17.2243798164581
0.00364729739913057,17.2265717678732
0.00431552879264077,17.2286625716395
0.00511514143522727,17.2307107738199
0.00609608688673716,17.2327936953511
0.00735611563820381,17.2350298680268
0.00906472404592038,17.2375710888115
0.011208910219301,17.2402518531002
0.0132434825047434,17.24242331315
0.015150227530691,17.244193532346
0.0170841370930496,17.2457658834791
0.019127471544382,17.2472186838103
0.0213570202339965,17.2485991185713
0.0238087246473286,17.2499150361982
0.0265321252963057,17.2511777709696
0.029572966858668,17.2523924836216
0.032979686447391,17.2535628792414
0.0368015413827798,17.2546910250196
0.041098973975365,17.2557805359462
0.0459342033816207,17.2568334137757
0.0513846354367296,17.2578530917951
0.0575376184441916,17.2588425141305
0.0644949099658157,17.2598046559937
0.0723802585336875,17.2607430394913
0.0813411411640616,17.2616612145347
0.0915566398642977,17.2625629857843
0.103248503667954,17.2634526217617
0.116693813969811,17.2643348788822
0.132245223337137,17.2652152417093
0.15036127631547,17.2661002619781
0.171657775335773,17.2669982432633
0.19696780405416,17.267919422132
0.226238792298899,17.2688416410832
0.26018714388158,17.2697733450996
0.299782744279865,17.2707278199386
0.346575362842849,17.2717311862207
0.384381585361288,17.2724785751429
0.423766487193102,17.2732259640652
0.458682154903925,17.2738861953425
0.489233166430583,17.2744862771758
0.516083934400613,17.2750596449457
0.53926560750719,17.2756305315856
0.558310498767959,17.2762230929069
0.572074741539282,17.2768720627075
0.577687801776531,17.2776192945055
0.571717644093409,17.2783859206764
0.553009654673896,17.2791936867021
0.519686389536405,17.2800620092681
0.473225443940985,17.2809389200841
0.411658828063979,17.2818590970623
0.36128902323423,17.2825052500837
0.305982749816923,17.2831514031052
0.257813989839182,17.2836835958206
0.217330821445262,17.2841221797991
0.18219038935982,17.2845051798541
0.150941185565258,17.2848545315712
0.122746686675599,17.2851832389855
0.0970521343467636,17.2855004969305
0.0734169433983189,17.2858144060398
0.0513889121267965,17.2861345284345
0.0302550519170322,17.2864779654532
0.00751008459378934,17.2869080738852
-0.00201837086121398,17.2871157216505
-0.0106446611288983,17.2873233694157
-0.0172802222484044,17.2874993283015
-0.0234122833834288,17.2876778290459
-0.029592464247694,17.2878773112161
-0.035564940548771,17.2880943086449
-0.0411660905239839,17.2883267204499
-0.0463045198739652,17.2885737969464
-0.0509323637145543,17.2888356923093
-0.0550281397835395,17.2891132136174
-0.0585866066572543,17.2894077007913
-0.0616125426128098,17.2897209876972
-0.064113207331362,17.2900561731694
-0.0660681222886707,17.2904112463944
-0.0675252904128318,17.2907935678379
-0.0684996557922024,17.291207582966
-0.069003729517866,17.2916587960066
-0.0690461240397878,17.2921541981996
-0.0686293267872838,17.2927028667525
-0.0677443579115538,17.293318179651
-0.0663658529920364,17.2940180507022
-0.0644412055210703,17.2948294438199
-0.0618597934565709,17.2957991339591
-0.0583363715254187,17.2970339344151
-0.0541599448920666,17.2984497189691
-0.0500949912706735,17.2998203669834
-0.0461977691995997,17.3011513317945
-0.0424972217465875,17.302444835602
-0.0390090483792334,17.3037016116856
-0.0357413772047396,17.3049216469054
-0.0326972155585103,17.306104575309
-0.0298757162146141,17.3072498860992
-0.0272729829496286,17.308357031686
-0.0248826879523384,17.3094254797947
-0.0226966027134948,17.3104547324109
-0.0207050780488296,17.3114443237508
-0.018897481690363,17.3123938039952
-0.017262592316735,17.3133027125065
-0.0156921899297316,17.3142293629395
-0.0141820031241122,17.315179959643
-0.0127361205747815,17.3161563707507
-0.0113583891173648,17.3171608254754
-0.0100524336584646,17.3181959505088
-0.00882160402631525,17.3192648700137
-0.00766891945409451,17.3203713381116
-0.00659700994491064,17.321519918739
-0.00560805386379978,17.3227162358479
-0.00470371033549615,17.323967331639
-0.00388504367055471,17.3252821974392
-0.00315243451596142,17.3266725940428
-0.00250546741299424,17.3281543871027
-0.00194277336986467,17.3297498710953
-0.00148550435750053,17.3313945207507
-0.001120502357595,17.3330933196026
-0.000832109816394522,17.3348648657563
-0.000605789209682728,17.3367328578303
-0.00042761571345484,17.3387296389258
-0.000283703715455674,17.3409024548034
-0.000159221255403581,17.3433272022196
-3.61069782236455e-05,17.3461454479174
0.000115247528281894,17.3497103038951
0.000288679798458936,17.353495453547
0.000503058433081015,17.3577080140524
0.000776331615681291,17.3626493198804
0.00107551749159799,17.3678416765355
0.00134398843776002,17.3724715489889
0.00159287468344033,17.3768143961906
0.00183617417964471,17.3811331693949
0.00209094576535568,17.3857330266772
0.00236384439952437,17.3907240319705
0.00262984117262403,17.3956106537313
0.00290504142146796,17.4006519992078
0.0031378484428501,17.4048665209133
0.00335699438994644,17.40877862279
0.00357326786359278,17.4125718261686
0.00379239102513904,17.4163338973998
0.00401848893551337,17.4201199859991
0.00425516362927601,17.4239712350962
0.00450593841863092,17.4279217629361
0.004774526623112,17.4320022386681
0.00506507056894287,17.436242441734
0.00538235504256544,17.4406726178196
0.00573209746404805,17.4453246834186
0.00612141110791048,17.4502335230654
0.00655206567801617,17.4553509934617
0.00700040926976588,17.46034555395
0.00747716457937093,17.4653053618964
0.00798275738086554,17.4701897894148
0.00852271386291847,17.4750056637755
0.00910273392124852,17.4797527539195
0.00972984323237401,17.4844346641757
0.0104118884982813,17.4890536444417
0.0111732784284972,17.4937020887948
0.0120289508923696,17.4983789192488
0.0130000108812938,17.503099125584
0.014115436569982,17.50789122182
0.0154210762830225,17.5128209309924
0.017007043550995,17.5180565823265
0.0191503156337994,17.5242047414197
0.0208883115962902,17.5286794124084
0.0227261296506192,17.5331540833971
0.0242705576616358,17.5368970215
0.0255557771338388,17.5401773958699
0.0266309622566289,17.5432518351969
0.027487560204785,17.5462379800465
0.0280752625113675,17.5490858481073
0.0283945531550051,17.5519162932107
0.0284185336474539,17.5548805413212
0.0280493852526345,17.558281776185
0.0272659061597561,17.5617550433918
0.0261358685250411,17.5652283105987
0.0250344406442227,17.5680136141233
0.0239569694339422,17.5704712027617
0.0228818569244925,17.572779881061
0.021806730622304,17.5750096092908
0.0207342721882127,17.5771963092201
0.0196681237873464,17.5793626088004
0.0186119644549277,17.5815245204902
0.0175692679865491,17.5836942959737
0.0165432431826224,17.5858818768252
0.0155368211639026,17.5880957372287
0.0145526613707413,17.5903434091577
0.013593164342477,17.5926318302402
0.012660477131047,17.5949676104559
0.0117565072747375,17.5973572185138
0.0108829315953035,17.5998071423368
0.0100411998053899,17.6023240436777
0.0092325477654003,17.6049148765663
0.00845800250292115,17.607587027632
0.00769693314497947,17.6104320445923
0.00695204485834165,17.6134732859223
0.0062270779267025,17.6167344803483
0.00552596357027407,17.6202430285928
0.00485286080313261,17.6240306391704
0.00421202486805185,17.6281342060695
0.00360761624789303,17.6325970741678
0.003043604221299,17.6374711014639
0.00252351249298878,17.6428205057873
0.00205016808178556,17.6487282884319
0.00162560411027341,17.6553052728724
0.00126031098075148,17.6624965879822
0.000955889483366213,17.6702823075832
0.000705752976133061,17.6787907767224
0.000506829283117965,17.6881928131368
0.000378081982779396,17.6972189267934
0.00027966908538664,17.7070865327133
0.000210172555637878,17.7170865327133
0.000161869860532649,17.7270865327133
0.000128716902260742,17.7370865327133
0.000106393651673608,17.7470865327133
9.17140518235294e-05,17.7570865327133
8.23775917447492e-05,17.7670865327133
7.67773186502446e-05,17.7770865327133
7.38164093440538e-05,17.7870865327133
7.27524516243542e-05,17.7970865327133
7.30825475825361e-05,17.8070865327133
7.44659661691683e-05,17.8170865327133
7.66738585040358e-05,17.8270865327133
7.95562109270553e-05,17.8370865327133
8.30194774731606e-05,17.8470865327133
8.70111387726912e-05,17.8570865327133
9.15090716374897e-05,17.8670865327133
9.65144115731951e-05,17.8770865327133
0.000102046990385506,17.8870865327133
0.000108142687266056,17.8970865327133
0.000114852235397267,17.9070865327133
0.000122241195441881,17.9170865327133
0.000130390945393536,17.9270865327133
0.000139400650473287,17.9370865327133
0.000149390279315442,17.9470865327133
0.000160504837953627,17.9570865327133
0.000172920116813901,17.9670865327133
0.000186850407003818,17.9770865327133
0.000202558866826274,17.9870865327133
0.000220371547382183,17.9970865327133
0.000240696581076396,18.0070865327133
0.000264050804692725,18.0170865327133
0.00029109731071286,18.0270865327133
0.000322699416114953,18.0370865327133
0.000359999887154345,18.0470865327134
0.000404540050626477,18.0570865327134
0.000458443776579364,18.0670865327134
0.000520778766804691,18.076541738149
0.000591328624337363,18.0852737237652
0.000671068603776864,18.0933304762954
0.000761194415931166,18.1007648048053
0.00086307889203462,18.1076259375849
0.000978280879737358,18.1139595123998
0.00110856660554001,18.119807872821
0.00125593657811851,18.1252103253224
0.00142265865829159,18.1302033325122
0.00161130188967828,18.1348207209505
0.0018247819690216,18.1390938983969
0.00206640980967803,18.1430520661827
0.00233995446594647,18.1467223847345
0.0026497146738198,18.1501301453078
0.00300061278319308,18.1532989676078
0.00339831582516554,18.156250997101
0.00384938820382556,18.1590070970053
0.00436150405483919,18.1615870868875
0.00494374371156987,18.1640100327498
0.00560702051394397,18.166294605653
0.00634980135155719,18.1684205860008
0.0071696378513805,18.1703844117559
0.00807778412881464,18.1722198548882
0.00909119060616066,18.1739610136886
0.0102370934096798,18.1756460707122
0.0115662586598942,18.1773285670354
0.0132673163252308,18.1791836442552
0.0152555536156243,18.1810696450599
0.0169057395556027,18.1824889339211
0.0186478242839426,18.1839082227822
0.0202077675676854,18.1851587504045
0.0215996924080629,18.1863021987601
0.0228486875611391,18.1873988708456
0.0239523740634093,18.1884895541745
0.024890691721546,18.1896132696267
0.0256235810728819,18.1908234574741
0.0260682815753467,18.1922275836664
0.025929617465236,18.1942658964948
0.02528175249771,18.1957830812193
0.0242681613513465,18.1973002659438
0.0230972846755326,18.1986965827784
0.0217778754469326,18.2000890638792
0.0203192218140487,18.2015303461727
0.0187307899376307,18.2030580528117
0.0177110885409171,18.2040386220115
0.0167137417286962,18.2050191912113
0.0155524740176143,18.2062188418029
0.0140982292461652,18.2078286025499
0.0128661149176462,18.2093062019931
0.011770716384527,18.2107273143318
0.0107383691303264,18.2121792973372
0.00970823660886374,18.2137613948319
0.00858852150265398,18.2156697983604
0.00732492286654797,18.2181328122228
0.00621888975890818,18.2206587510513
0.00531510989537728,18.2230861849374
0.00451567124952691,18.2256235506213
0.00378604322904954,18.2284078115487
0.00316163814744015,18.2313326833978
0.0026355876639352,18.2344226695234
0.00220271413931082,18.2377099870522
0.00186127035455371,18.2412333890815
0.0016147397572813,18.2450407359931
0.00147545774903563,18.2491928517191
0.00146511071339976,18.2532418824472
0.00156701606685027,18.2568622828179
0.00176180357659775,18.2601191419518
0.00203911219799952,18.2630572676375
0.0023947107249914,18.2657249503611
0.00282850130950557,18.2681660928996
0.00334599188312581,18.2704304614561
0.00395825432953914,18.272566211946
0.00468584874507779,18.274627799337
0.00556534739218527,18.2766813642199
0.00666581412495162,18.2788211837695
0.00812081270936495,18.2811904234781
0.0100770166123398,18.2838618712669
0.0117256520850552,18.2858010486003
0.0136007206031046,18.2877402259337
0.0154876329569632,18.2894501917548
0.0174257698047995,18.2909898323795
0.0195066902333827,18.2924345953276
0.0217684849972739,18.2938006981783
0.0242636529622924,18.2951064226069
0.0270401526026479,18.2963608843446
0.0301400074200517,18.2975670938721
0.0336146781001125,18.2987297017794
0.0375163988707213,18.299851268168
0.041901652610661,18.3009338985392
0.0468396133211177,18.3019810023889
0.0524056359745481,18.3029951083349
0.0586906070760461,18.3039794562641
0.0658009186255975,18.3049372716018
0.0738625112059908,18.3058718541335
0.0830281949611,18.3067868553287
0.0934842595730274,18.3076862056672
0.105460639231653,18.3085742092427
0.119245503118645,18.3094557041476
0.135207830676672,18.3103363630171
0.153829399436545,18.3112229936531
0.175760919506194,18.3121242923482
0.201708822077489,18.3130451504655
0.231728886923593,18.313968306847
0.266570874256384,18.314902783582
0.30726942163085,18.3158632229125
0.355554608653571,18.3168798629766
0.392556413564919,18.3176026034119
0.430794120162567,18.3183253438471
0.46476627751707,18.3189703003388
0.494587223043635,18.3195631511979
0.520757261352708,18.3201343108149
0.543207942830195,18.32070730551
0.561370368736329,18.3213072845701
0.573905738966618,18.3219731171915
0.577493323658456,18.3227221739223
0.569339060415478,18.3234946288384
0.548164737152297,18.3243119409352
0.51252266608986,18.3251812929526
0.463452263356299,18.3260658091031
0.399640881255405,18.3269870724644
0.350646958348692,18.3276008912763
0.297417709559654,18.3282147100881
0.250843065306026,18.3287265257279
0.211374331532457,18.3291538889098
0.176936363908388,18.3295303137581
0.146224049116022,18.3298756148324
0.118463938742757,18.3302019190275
0.0931285215945821,18.3305180907466
0.0697843450036335,18.3308322660338
0.0479616502767103,18.3311546106363
0.0268471234713315,18.3315049087174
0.00799694873505346,18.331865181284
-0.00159203106697734,18.3320731877424
-0.0102738984688105,18.3322811942007
-0.0169601685109612,18.3324576668253
-0.0230794029558166,18.3326348906172
-0.0292640332183854,18.3328333362846
-0.0352526155005842,18.3330494618767
-0.0408765042848474,18.3332810754785
-0.0460412776197261,18.3335273681036
-0.0506972498730826,18.3337884532065
-0.0548218260708177,18.334065106762
-0.0584090767192214,18.334358641658
-0.0614633587133491,18.3346708652431
-0.0639875432879462,18.335004094179
-0.0659818799389492,18.335360043922
-0.0674637154565785,18.3357409275915
-0.0684619347419699,18.3361532361596
-0.0689893124200339,18.3366024352266
-0.0690547044363956,18.3370954298803
-0.0686609705565786,18.3376411736183
-0.0677998721770512,18.3382527766835
-0.0664470143399694,18.3389478782282
-0.0645516301146103,18.3397528183412
-0.0620074326596885,18.3407128863301
-0.0585450942800164,18.3419294160559
-0.0543648573072834,18.3433478944616
-0.0502927244438429,18.3447206071959
-0.046386359916208,18.3460534663466
-0.0426756208721379,18.3473487984196
-0.0391766863121701,18.3486073888398
-0.0358979860967737,18.3498292499465
-0.0328427454552731,18.3510140271715
-0.0300102865982188,18.352161213687
-0.0273968488346572,18.3532702621142
-0.0249962116598252,18.3543406387361
-0.0228002290019896,18.3553718437333
-0.0207993114444877,18.3563634099986
-0.0189828657527995,18.3573148874676
-0.0173396912066591,18.3582258168006
-0.0157665341557493,18.3591513319287
-0.0142533483919348,18.3601007352265
-0.0128042771085287,18.361075853958
-0.0114231762068249,18.3620789004716
-0.0101136824977018,18.3631124802185
-0.00887916031314456,18.3641796906584
-0.00772264613276379,18.3652842518818
-0.00664679010880486,18.366430683742
-0.00565379386998912,18.3676245519536
-0.00474534321808433,18.3688728199238
-0.00392253302522013,18.3701843691967
-0.00318577920983552,18.3715708018883
-0.00253470780312638,18.373047743274
-0.00196800046873951,18.3746371003993
-0.00150572472190849,18.3762796161054
-0.00113656101020825,18.3779753396987
-0.00084474498072719,18.3797428056593
-0.000615698183356153,18.3816053835724
-0.000435477124454488,18.3835948800053
-0.000290212186034496,18.3857575781016
-0.00016515387553702,18.3881674122414
-4.25011433235587e-05,18.3909609897313
0.000106280410830135,18.3944719581468
0.000278333671173129,18.3982479401642
0.000489917649128007,18.4024282337314
0.00076262617733728,18.4073753545301
0.00106251594418949,18.4125850928141
0.00133218885280114,18.4172345496504
0.00158166505225643,18.4215845338605
0.00182490401511433,18.4258986909908
0.00207861380753739,18.4304759802792
0.00235226886372326,18.4354789123301
0.00261828682199014,18.4403655893935
0.0028927087047998,18.4453940820976
0.00312656714941387,18.4496304880792
0.00334606365825551,18.4535520561943
0.00356232206779949,18.4573487495703
0.00378119454656576,18.4611109028063
0.00400685222841165,18.464894717211
0.00424290990317375,18.4687418253217
0.00449288741485529,18.4726865962359
0.00476048229218888,18.4767598000395
0.005049810489163,18.4809912276488
0.00536561837581019,18.4854110719946
0.0057135671040797,18.4900511345258
0.00610068448276395,18.4949461203649
0.00653059749845691,18.5000705880289
0.00697755887997223,18.5050659290285
0.00745300356153959,18.5100294850968
0.00795703058608454,18.5149172574084
0.00849517613809797,18.5197366283229
0.00907305923139624,18.5244870031359
0.00969766769012405,18.5291720700126
0.0103768036509627,18.5337941161673
0.0111338935149023,18.5384405924111
0.0119845163299733,18.543115842734
0.0129493305012062,18.5478334240836
0.0140568065187473,18.5526209072165
0.0153515888956814,18.5575412696161
0.0169202120745332,18.5627544841243
0.0190198115294712,18.5688204926239
0.0207837965626285,18.5733860320129
0.0226556959931355,18.577951571402
0.024215167006727,18.5817275435356
0.0255093909001552,18.5850206063318
0.0265925972049749,18.5880999244375
0.0274598273821558,18.5910940857635
0.0280576973091463,18.5939451637142
0.0283875016632397,18.5967738416738
0.0284238239316056,18.5997291889237
0.0280737336773225,18.6031024966783
0.0270538975114621,18.6074554875242
0.0261530639995194,18.6101489617028
0.025092575133696,18.6128424358815
0.0240185659534588,18.6153027668775
0.0229437472387043,18.6176169774861
0.0218685941622246,18.619850026419
0.0207958971845187,18.622038472036
0.0197292932458106,18.6242054377609
0.0186724696021264,18.6263672171734
0.017628914474442,18.6285362301351
0.01660185284808,18.630722523442
0.0155942316164052,18.6329346395147
0.0146087258114163,18.6351801532285
0.0136477507041141,18.6374660285099
0.0127134675879947,18.6397988886378
0.0118077980000726,18.6421852046867
0.0109324314389712,18.6446314605225
0.0100888307144335,18.6471443036312
0.00927824375311087,18.6497306678509
0.00850170944968335,18.6523979111553
0.00773984235106487,18.6552323501633
0.00699393078649623,18.6582618317169
0.00626772299363016,18.6615098238727
0.00556513943460445,18.6650035050637
0.00489032514943194,18.6687743185178
0.00424753749896811,18.6728588348077
0.00364094425460204,18.6772999867197
0.00307452528045362,18.6821491270288
0.00255185079067597,18.6874695085496
0.00207578419123071,18.6933429114351
0.0016484020580882,18.6998783098464
0.00127943517869732,18.7070388734153
0.000971722169230428,18.7147876410869
0.000718661823785806,18.7232507554175
0.00051656226353074,18.7325963417288
0.000390168681951285,18.7412114412608
0.000287417946595616,18.7511446708068
0.000215522534828784,18.7611446708068
0.000165545613309479,18.7711446708069
0.000131211910068631,18.7811446708069
0.000108057464018949,18.7911446708069
9.2795404470129e-05,18.8011446708069
8.30510090319509e-05,18.8111446708069
7.71633270322661e-05,18.8211446708069
7.39974385338326e-05,18.8311446708069
7.27846720803875e-05,18.8411446708069
7.30041510269006e-05,18.8511446708069
7.43027478346855e-05,18.8611446708069
7.64429516671977e-05,18.8711446708069
7.92686124386966e-05,18.8811446708069
8.26817771770999e-05,18.8911446708069
8.66267061741819e-05,18.9011446708069
9.10788594832435e-05,18.9111446708069
9.60374831380086e-05,18.9211446708069
0.000101520844639112,18.9311446708069
0.000107563433047849,18.9411446708069
0.000114214648086893,18.9511446708069
0.000121538675769727,18.9611446708069
0.000129615388904832,18.9711446708069
0.000138542226609714,18.9811446708069
0.000148437109897425,18.9911446708069
0.000159442554750566,19.0011446708069
0.000171731265399857,19.0111446708069
0.000185513647275172,19.0211446708069
0.000201047896579207,19.0311446708069
0.00021865363979799,19.0411446708069
0.000238730572650935,19.0511446708069
0.000261784284974413,19.0611446708069
0.000288462628227385,19.0711446708069
0.000319607888683629,19.0811446708069
0.000356333220699393,19.0911446708069
0.000400137297617963,19.1011446708069
0.000453080944804877,19.1111446708069
0.00051469226505032,19.1206675878072
0.000584446854907254,19.1294646548586
0.000663290791901496,19.137581483528
0.000752402895301043,19.1450711530828
0.000853139422297436,19.1519832372185
0.00096704120643732,19.1583636926027
0.00109585427688175,19.1642551553236
0.00124155621859899,19.1696972035964
0.00140638881202277,19.1747265540859
0.00159289160638984,19.1793772677891
0.00180394633449937,19.183680966439
0.00204282487294269,19.1876670474391
0.00231325142144345,19.191362852896
0.00261947195802481,19.1947938387488
0.00296634684013021,19.1979837702478
0.00335946856246444,19.2009549214529
0.00380531067992047,19.2037282648084
0.00431143418372426,19.2063237045794
0.00488677416887803,19.2087603630648
0.0055420514948836,19.2110569290992
0.00627814455913804,19.2131995971717
0.00709047361949883,19.2151769896794
0.00798986430846007,19.2170228682393
0.00899262701125991,19.2187712411857
0.010124698866822,19.2204596040408
0.0114335995607818,19.2221391943332
0.013087460996535,19.2239678582735
0.0156114740157436,19.2263527004678
0.017214987122479,19.2277132972498
0.0188942577125265,19.2290738940318
0.0204233891397702,19.2303010728113
0.0217933049634655,19.2314344265554
0.0230214262482205,19.2325278475869
0.0241023069338446,19.2336208208234
0.0250133754256864,19.2347533294038
0.0257105207297735,19.2359830842094
0.0260991807090278,19.2374344558991
0.0258553840746778,19.2394747912844
0.0251609557972829,19.2409614857288
0.0241284399705136,19.2424481801732
0.0229389809494966,19.2438390648205
0.0216014868691908,19.245235337854
0.0201260256539448,19.246685486749
0.0185217008650301,19.2482267949778
0.0175043955011641,19.249206793952
0.016515415209459,19.2501867929262
0.0148555216118678,19.2519415627467
0.0134984306044611,19.2535009685705
0.012341272551017,19.2549407425537
0.0112830317116716,19.2563658116715
0.0102598165683129,19.2578635636553
0.00920418806440079,19.2595608813014
0.0079666278273527,19.2618022913551
0.00677947956475597,19.2642947824128
0.00576845960736356,19.2667873904199
0.00492450372453114,19.2692389098386
0.00414814712609406,19.271925552785
0.00347044276050971,19.2747756092722
0.00289457450643691,19.2777769155721
0.00241419257434231,19.2809582779106
0.00202562598875548,19.2843548271755
0.0017293620842029,19.2880093453685
0.00153254527596373,19.29197539968
0.00145436390530302,19.2962756838072
0.00150414116725333,19.3000909666406
0.00165487376224298,19.3035226834099
0.00189235596104498,19.3066123396289
0.00220949741624037,19.3094071539319
0.0026043697442056,19.311954164006
0.00307967111700818,19.3143003316934
0.00364326828324815,19.3164931243325
0.00431074365011823,19.3185844137313
0.00510936062471418,19.3206326655631
0.00608885998352882,19.3227150173468
0.00734656289759513,19.3249496659955
0.00905169938983361,19.3274886698618
0.0111935231246131,19.3301695488231
0.0132295636990136,19.3323448757849
0.0151364638946416,19.3341169477091
0.0170698830076475,19.3356904061511
0.019112149421817,19.3371438701899
0.0213401902190032,19.3385247696391
0.0237901366315287,19.3398411162456
0.0265113503999258,19.3411041835077
0.0295497595403222,19.3423192407098
0.0329536003640355,19.3434899273669
0.0367722593138736,19.3446183701181
0.0410660568482405,19.3457081580165
0.0458971247366471,19.3467612862868
0.0513428256254517,19.3477811964929
0.0574903936734896,19.3487708283441
0.0644414581746993,19.3497331553432
0.0723196115088791,19.3506716989194
0.0812721276707096,19.3515900072052
0.0914778146133086,19.3524918815378
0.103158096820585,19.3533815892232
0.116589582035192,19.35426388138
0.132124283043112,19.3551442362367
0.150219827298218,19.3560291958444
0.171490629046518,19.3569270480315
0.19677470972287,19.3578482445813
0.226015252341412,19.3587704305916
0.259927347244651,19.3597020288054
0.299478408246868,19.3606562740446
0.346211543001998,19.3616591351527
0.384050724415798,19.3624075646012
0.423482859620443,19.3631559940497
0.458437534231892,19.3638168789842
0.489017989248364,19.364417272198
0.515895741561447,19.3649907449202
0.539106044189125,19.3655615656044
0.558185093584304,19.3661538579342
0.57199607597229,19.3668022117583
0.577687642963019,19.3675493885608
0.571801759893681,19.3683158024015
0.553188554584256,19.3691232094582
0.51997580011942,19.3699910495864
0.473619581305105,19.3708677039486
0.412152961979667,19.3717877446631
0.361725867599381,19.3724352899577
0.306331497107339,19.3730828352523
0.258095853199939,19.37361589267
0.217570711016974,19.3740549467215
0.182401565999234,19.3744382197815
0.151130568485987,19.3747877393818
0.122918494593071,19.3751165472339
0.0972094187467869,19.3754338526676
0.0735624097427979,19.3757477561795
0.0515258472329002,19.3760677987305
0.0303901837048846,19.3764109888261
0.0076818607759041,19.376839872996
-0.00192088386385261,19.3770488571788
-0.0106093971409319,19.3772578413616
-0.017252126703214,19.3774339143145
-0.0233832044110989,19.377612306705
-0.0295638089956946,19.3778116989184
-0.0355377106425216,19.3780286204485
-0.0411408567620944,19.3782609626254
-0.0462815919976436,19.3785079706369
-0.0509118945469217,19.3787697951358
-0.0550101861356478,19.3790472404987
-0.0585711659631749,19.3793416442898
-0.0615995759659589,19.3796548380579
-0.0641001592510415,19.3799895191819
-0.066058031214131,19.3803444378662
-0.0675180951851007,19.3807265859542
-0.0684952747698626,19.3811403988289
-0.0690020983391448,19.3815913731704
-0.0690472072572558,19.3820864899386
-0.0686331333121509,19.382634811614
-0.0677509851268987,19.3832496842998
-0.0663755138976676,19.3839489889212
-0.0644543337045152,19.3847596145662
-0.0618773458071426,19.3857281568221
-0.0583612542482862,19.3869607578968
-0.0541843646568774,19.3883768599658
-0.0501185475970264,19.389747753666
-0.0462202312806652,19.3910789441845
-0.0425184660777322,19.3923726659907
-0.0390290079828322,19.3936296584964
-0.0357600208062612,19.3948499115544
-0.0327145377096189,19.3960330605461
-0.0298917315841212,19.3971785951352
-0.0272877222785637,19.3982859677512
-0.024896194722001,19.3993546459454
-0.0227089301744835,19.4003841314887
-0.0207162865160646,19.4013739584418
-0.0189076360827465,19.40232367696
-0.0172717599615279,19.4032328265649
-0.0157010289626353,19.4041593415984
-0.0141904844916769,19.4051097959484
-0.0127442217027459,19.4060860528774
-0.0113660885181475,19.4070903395804
-0.0100597112685336,19.4081252802078
-0.00882844151618292,19.4091939957263
-0.00767530055556302,19.410300236183
-0.00660292079745034,19.4114485602348
-0.00561348338568587,19.4126445848553
-0.00470865063113106,19.4138953427986
-0.00388949049538019,19.4152098122206
-0.00315638784022814,19.4165997348617
-0.00250893216680242,19.4180809474779
-0.00194576054635468,19.4196756978997
-0.001487896803228,19.4213200910911
-0.00112240057308825,19.4230185209311
-0.000833601713132478,19.4247895775597
-0.000606957868044097,19.426656919974
-0.000428542059245124,19.4286528265457
-0.000284470700662854,19.430824426647
-0.00015992192488289,19.4332473789424
-3.68662355706576e-05,19.4360626447061
0.000114171682217874,19.4396209246514
0.000287434764797615,19.4434049294795
0.000501473701719988,19.4476135519712
0.000774672886739297,19.4525554296901
0.00107407113643165,19.4577520823383
0.00134268364148512,19.4623842552946
0.00159163445031619,19.4667278745437
0.00183492575897385,19.4710461080843
0.00208957659158267,19.4756434075596
0.00236255686023151,19.4806356978973
0.00262855416802861,19.4855222968389
0.0029036658571353,19.4905621821884
0.00313658743484726,19.4947790986438
0.00335577127127476,19.4986922385563
0.00357204228045188,19.5024858217393
0.00379113680714844,19.5062478953837
0.0040171849423702,19.5100337245675
0.0042537900882338,19.5138845062657
0.00450447513280271,19.5178343863336
0.00477295159940314,19.5219140449275
0.00506335883476294,19.5261532626059
0.00538047728813757,19.5305822790114
0.00573001802665299,19.5352329975917
0.0061190846700567,19.5401402827
0.00654965598764653,19.5452585397823
0.0069978443854844,19.5502531913224
0.00747445230693942,19.5552134206008
0.00797986895540768,19.5600982236668
0.00851962162448016,19.5649144897708
0.00909940119291501,19.5696619477952
0.00972622911603544,19.5743442116972
0.0104079470968775,19.5789635355773
0.0111688531323694,19.5836117587681
0.0120239571620845,19.5882884104994
0.0129943137478411,19.5930083194679
0.0141088432224036,19.5977998914591
0.0154132562642772,19.602728535259
0.0169972537497227,19.6079616164277
0.019135473090255,19.6141002017191
0.020876332630223,19.6185848966375
0.0227179126025149,19.6230695915559
0.0242640620118002,19.62681628492
0.0255503347583381,19.6300981261614
0.0266264639040928,19.6331731276249
0.0274843127027476,19.6361602051959
0.0280732129718812,19.6390084417832
0.0283937445406825,19.6418386677468
0.0284191858022241,19.6448018470611
0.0280523109135704,19.6481997159013
0.0270177887039837,19.6525435217118
0.0261136336083236,19.6552244364682
0.0250529013621433,19.6579053512247
0.0239789882028939,19.6603583513141
0.0229041408287364,19.6626686394506
0.0218290202943565,19.66489950918
0.0207564820843788,19.6670868076662
0.0196901741924047,19.6692533227232
0.0186337792255507,19.6714151655949
0.0175907763917878,19.6735846474002
0.0165643803603076,19.6757717471077
0.0155575281145952,19.6779849628215
0.0145728847037289,19.6802318418017
0.0136128560489731,19.682519330858
0.0126795943735363,19.6848540445806
0.0117750121794719,19.6872424526953
0.0109007910890343,19.6896910410195
0.0100583854181471,19.6922064664639
0.00924903551788944,19.6947956753483
0.00847377261209803,19.6974660442324
0.00771241175322077,19.7003072407539
0.00696715052526572,19.7033442354708
0.00624173212143861,19.7066006630587
0.00554008386582286,19.7101038444844
0.00486635984381519,19.7138853925216
0.00422481625345807,19.7179820839384
0.00361961628905816,19.7224371149725
0.00305472910454985,19.7273021989953
0.00253370415065662,19.7326411278498
0.00205937643084512,19.7385365041461
0.00163379517506107,19.7450984783883
0.001267180729316,19.7522786640524
0.000961575441493502,19.7600510091052
0.000710387426776736,19.7685430600722
0.000510323258693944,19.7779246569274
0.000382473185635111,19.786796745361
0.000282484792470854,19.7966885661907
0.000212115124087011,19.8066885661907
0.000163203694042171,19.8166885661907
0.000129621949127513,19.8266885661907
0.000106997028577716,19.8366885661907
9.21060147202364e-05,19.8466885661907
8.26214173064757e-05,19.8566885661907
7.69167170104815e-05,19.8666885661907
7.38812932291899e-05,19.8766885661907
7.27632135277054e-05,19.8866885661907
7.30530530037578e-05,19.8966885661907
7.44055762488709e-05,19.9066885661907
7.65887861617848e-05,19.9166885661907
7.94504388384353e-05,19.9266885661907
8.28953864883703e-05,19.9366885661907
8.68699387162783e-05,19.9466885661907
9.13510927239593e-05,19.9566885661907
9.63392953922927e-05,19.9666885661907
0.000101853807432269,19.9766885661907
0.00010792999954945,19.9866885661907
0.000112390257671327,19.9933442830954
0.0001170984741919,20
