ecg,time
0.0121591608671437,15.0022617056296
0.0112714310569229,15.0046813130061
0.0104145779168711,15.007166366887
0.00958990628512563,15.0097240010111
0.00879851127796973,15.0123618224944
0.00802934494376956,15.0151328642238
0.00727471040662029,15.0180927595727
0.0065384248757633,15.0212636628749
0.00582436729429532,15.0246717329244
0.00513660358000208,15.0283472377659
0.00447933948892837,15.0323253225492
0.00385682553981075,15.0366471205413
0.00327320805568132,15.0413614701116
0.00273231776912543,15.0465278180149
0.00223736373382503,15.0522219012814
0.0017907575198158,15.0585440715437
0.00139953021836732,15.0655215595911
0.00107182974132867,15.0730504065491
0.000810111753904804,15.081244628998
0.000613389558531404,15.0901386371966
0.000479642806169738,15.0985923422014
0.000367933585483779,15.1083483423765
0.000288452927435158,15.1183483423765
0.000234546245439035,15.1283483423765
0.000198928892312645,15.1383483423765
0.000176252061242692,15.1483483423765
0.000162690023909123,15.1583483423765
0.000155602849285567,15.1683483423765
0.000153217218473976,15.1783483423765
0.000154361727997934,15.1883483423765
0.000158275958149666,15.1983483423765
0.000164484842411392,15.2083483423765
0.000172719443369134,15.2183483423765
0.000182867647504649,15.2283483423765
0.000194944388819068,15.2383483423765
0.000209075985963726,15.2483483423765
0.000225496199475392,15.2583483423765
0.000244553438493697,15.2683483423765
0.000266730048324635,15.2783483423765
0.000292676412482036,15.2883483423765
0.000323265220492148,15.2983483423765
0.00035967540556251,15.3083483423765
0.000403522272705672,15.3183483423765
0.000455923211825432,15.3281516193143
0.000515480030849775,15.3372345052593
0.000582950899855596,15.345630181214
0.000659354872698042,15.3533898691091
0.000745882787624132,15.3605619644026
0.000843893192261851,15.3671915049696
0.00095492605923666,15.3733204151943
0.00108072475430845,15.3789877408967
0.00122326315484876,15.3842298431918
0.00138477614921741,15.3890805712564
0.0015677940314932,15.3935714402884
0.00177518390538291,15.3977318079658
0.00201019788706573,15.4015890358529
0.00227652972298213,15.4051686341473
0.00257838590421691,15.4084944164411
0.00292057227804176,15.4115886638454
0.00330860585678425,15.41447228597
0.00374885842248574,15.4171649942993
0.00424874923160807,15.4196855057648
0.00481701207136164,15.4220517813476
0.00546407606073682,15.4242813293575
0.0061934247543782,15.4263675848074
0.00699747835812037,15.4282893359647
0.00788590561130239,15.4300782518591
0.00887309771583834,15.4317657414229
0.00998107648970961,15.4333847952502
0.0112477586275858,15.4349767928514
0.012800639685598,15.4366596449844
0.0149801169355223,15.4386855943412
0.0166888936649779,15.4400960712811
0.0185215582672653,15.441506548221
0.020236881993562,15.4427828969425
0.0217566692185734,15.4439217778665
0.0231228808538905,15.4449955229335
0.0243436262022382,15.446049339133
0.025405576078335,15.4471204339043
0.0262772598901482,15.448253272573
0.0268970037576172,15.4495242321931
0.0271045539542736,15.4511507910998
0.026666089023106,15.452829234898
0.0256769649168734,15.4545076786962
0.0245300267395762,15.455914534666
0.0232314253605879,15.4572768348535
0.0217797663787608,15.4586749097454
0.0201834455003569,15.4601503623079
0.0184479518083213,15.4617426572418
0.0165979015295758,15.4635044344361
0.0151136413968003,15.4650278513324
0.0129322646903569,15.4675042466193
0.0110729897311628,15.4699116093995
0.0094786154769849,15.472275783202
0.00807965369672187,15.4746630962003
0.00682692485700359,15.4771427574041
0.00573337834678288,15.479674243117
0.00477795403102952,15.4822792721626
0.00412091353260512,15.4843655053602
0.00363179889493796,15.4861273485567
0.00321772404348154,15.4877977606808
0.00284198351189083,15.4894927392912
0.00248067870197914,15.4913265518133
0.00210468921629194,15.4935110536467
0.00163308427244926,15.4968098289638
0.00123191722667729,15.5003722619595
0.000950040066203902,15.5035703196175
0.00072300586043453,15.5068725269547
0.000524520314436255,15.510776561702
0.000365354610691193,15.5156723805643
0.000293276505873874,15.5208228936977
0.000310950982219508,15.5254151800102
0.00040197633765947,15.5295817778637
0.000559431118429241,15.5333506684863
0.000780844942641282,15.5367662754823
0.00106689979414279,15.5398767044018
0.00142020323724852,15.5427252610557
0.00184667153690648,15.5453625262571
0.00235615271420282,15.5478399427126
0.00296445445349513,15.5502119196678
0.00369839293806713,15.5525435136494
0.00460530312221918,15.5549199041608
0.00575653377369023,15.5574303793326
0.00721797516761892,15.5601005245592
0.00887358775623558,15.5626593555861
0.0105056588666878,15.5648238816639
0.0121104137810005,15.5666720286397
0.013787602059225,15.5683551005155
0.0155647877793718,15.5699061828961
0.0175178942890113,15.5713840434133
0.0196655315188681,15.5727876339659
0.0220587826078183,15.5741349541185
0.0247332645535281,15.5754291389659
0.0277295224877741,15.5766739073494
0.0310961037456034,15.5778739861347
0.0348771327534249,15.5790304100933
0.0391338827895374,15.5801478164698
0.0439310522849638,15.5812291154656
0.0493423198841039,15.5822770983976
0.0554564305141889,15.5832951782425
0.06238098164635,15.5842872213897
0.0702437888823783,15.5852570352276
0.079201170325036,15.586208796334
0.0894462477573399,15.5871470880793
0.101225566234152,15.5880773898871
0.114858817494121,15.5890062290128
0.130772710613479,15.5899417339653
0.149561418501615,15.5908947283428
0.171810339287886,15.5918689491397
0.197593274203125,15.5928471479142
0.227591051554321,15.5938397982586
0.262723878976993,15.5948621288424
0.304397935955698,15.5959406469852
0.341540929912897,15.5968212570547
0.380650149073149,15.5977018671241
0.415017445117648,15.5984646434915
0.444887034186072,15.5991455104442
0.471017261486934,15.5997842291769
0.493538006329776,15.6004070798258
0.512130214626192,15.6010364529155
0.525982304393002,15.6016980849515
0.533383346345262,15.602432224812
0.531076960066004,15.6032293175166
0.517186470112347,15.6040491717287
0.490316981781405,15.604908659412
0.448620708015732,15.6058201760609
0.390035004194773,15.6067920536726
0.344424664946403,15.6074289036156
0.294019856661128,15.6080657535585
0.24930235561021,15.6085973286781
0.211123090052614,15.6090404431558
0.177666815362836,15.6094296882242
0.147745964280644,15.6097856713379
0.120650639082627,15.6101209387949
0.0958984670483333,15.6104444735591
0.0731012288813861,15.6107641649077
0.051861729241054,15.6110891172013
0.0315765145066756,15.6114348042747
0.0103859028490883,15.6118513156918
-0.000540989222635236,15.612098657086
-0.00793879962738838,15.612283654897
-0.0147020581938988,15.6124686527079
-0.0206100338575447,15.6126457628198
-0.0266547684207379,15.6128458755617
-0.0325543365001955,15.6130649171961
-0.0381214963342829,15.6133001699774
-0.0432512342334417,15.6135505173068
-0.0478877128481273,15.6138158892752
-0.0520045252764226,15.6140969430559
-0.055589492825431,15.6143949042134
-0.0587610767633556,15.6147264334812
-0.061233411138254,15.6150621207759
-0.0631968408583675,15.6154211233225
-0.0646675426771584,15.6158070868293
-0.06565965245782,15.6162242507504
-0.066185502968655,15.6166778879374
-0.0662540021684956,15.6171746503289
-0.0658686342768128,15.6177230972963
-0.0650228369409909,15.6183356493772
-0.0636955176697514,15.6190288603286
-0.0618429814663189,15.6198268133021
-0.0593761287606747,15.6207693877652
-0.0560847994604683,15.6219388258065
-0.0519547536872137,15.623354088101
-0.0479378621646799,15.6247202319719
-0.0440917420810558,15.6260445205484
-0.0404457866345263,15.6273298869778
-0.0370152326378561,15.6285774842501
-0.0338073799305002,15.6297875652023
-0.0308242909780643,15.6309599433991
-0.0280641835257412,15.6320942358505
-0.0255223045008217,15.633189989315
-0.0231915839212933,15.6342467420088
-0.0210631830513583,15.6352640474947
-0.0191269786605908,15.6362414750241
-0.01737199619962,15.6371785941632
-0.0157615182048508,15.638089678359
-0.0142081909951013,15.6390239286649
-0.0127169075063275,15.6399826424762
-0.0112916349926975,15.6409678281373
-0.00993615853794889,15.6419818335506
-0.00865402469262603,15.6430274328736
-0.00744848861112149,15.6441079354061
-0.00632245829477826,15.6452273312687
-0.00527843571753421,15.6463904905898
-0.00431845407691661,15.6476034429744
-0.00344400954336817,15.6488737817406
-0.00265598434349072,15.6502112703977
-0.00195455513093587,15.651628794177
-0.00133907466325765,15.6531439391448
-0.000813456359773448,15.6547624410339
-0.000392780476215787,15.6564224212728
-5.96281880722808e-05,15.6581422374452
0.000201176092193551,15.6599415959832
0.000403901646086271,15.6618464949659
0.000562338246081293,15.6638931032971
0.0006904483437865,15.6661356664361
0.000803576454253107,15.6686648140929
0.000921588533035236,15.6716616353279
0.00107179067303745,15.6753973320205
0.00124574924650881,15.6792739012915
0.00146926364834813,15.6836990826237
0.0017420527830406,15.6886540783142
0.00200177065326436,15.6931656865409
0.00224078902096984,15.6972540411748
0.00247043738509111,15.7011699403943
0.00269668017435732,15.7050277781647
0.00292371416216027,15.7088939613203
0.00315512193166267,15.7128152457032
0.00339429276342904,15.7168295083017
0.00364458143789245,15.7209699625862
0.00390946975432383,15.7252682407646
0.00419271399719919,15.7297562467239
0.00449854212064383,15.7344675907912
0.00483197366913908,15.7394389897597
0.00519933683211116,15.7447114372982
0.0055821121382995,15.7499655607917
0.00597921676914146,15.7551508935988
0.00639333363502662,15.7602631726017
0.00682744387278093,15.7652955068693
0.00728601468495031,15.7702536102646
0.0077740012612086,15.7751426617218
0.00829695875685838,15.7799679769827
0.0088609021751433,15.784732770876
0.00947237855929739,15.7894382678462
0.0101385623031595,15.79408401778
0.010876197250121,15.7987213082242
0.0117050955069175,15.80339048513
0.0126430478880364,15.8080946075894
0.0137158781399513,15.8128563788623
0.0149624024669049,15.8177253337609
0.0164531727612875,15.8228235162106
0.0183682102254806,15.8285269702439
0.0207918250806731,15.834855590213
0.0223289164380987,15.8385831366292
0.0238880174550226,15.8423106830453
0.0252434303747569,15.8456662836788
0.0263858000725317,15.8487702344531
0.0273220157802238,15.8517820677116
0.0279942566606009,15.8546458718396
0.0283999302694308,15.8574554534024
0.0285225565591981,15.8603466395798
0.0282959959917161,15.863547018762
0.0274009366838724,15.8679328172891
0.0265278657554575,15.8707235547985
0.0254686236474792,15.873514292308
0.0243948344437033,15.8760232127418
0.0233215095477382,15.8783579711081
0.0222472493869311,15.8805980370502
0.0211742445420178,15.8827857167089
0.0201060197025411,15.8849467256965
0.0190462791720342,15.8870987392906
0.0179985629789795,15.8892549986545
0.0169661533109497,15.8914260818128
0.0159520530746318,15.8936208964637
0.0149589900222802,15.8958472854449
0.0139894280305455,15.8981124261395
0.0130455761067523,15.9004231215011
0.0121294015818358,15.9027860122438
0.0112426392135934,15.9052077565158
0.0103867970104025,15.9076951961501
0.009563172841228,15.9102554820361
0.00877285523035012,15.9128962441515
0.00800410514541079,15.9156732451643
0.00725001462504517,15.9186397693088
0.00651439758127284,15.9218181135892
0.00580113987396753,15.9252345622311
0.00511431285516529,15.9289195332003
0.00445812546593504,15.9329083521541
0.00383682748787795,15.9372423781917
0.00325455823680248,15.9419707519645
0.00271513399270973,15.9471533469369
0.00222173881298376,15.9528665751857
0.00177675698374759,15.959211788675
0.00138772851586146,15.9662058803804
0.00106199909283737,15.9737546147576
0.0008028176789752,15.9819731179884
0.000619111064926773,15.9903178276997
0.000480448266516883,15.9990160429448
0.000369198255248486,16.0087115694593
0.000289469270314923,16.0187115694593
0.000235422306680334,16.0287115694593
0.000199727791165882,16.0387115694593
0.000177010890402593,16.0487115694593
0.000163433530427755,16.0587115694593
0.000156350018135504,16.0687115694593
0.000153983767668487,16.0787115694593
0.000155161167510083,16.0887115694593
0.000159120410940453,16.0987115694593
0.000165385897442294,16.1087115694593
0.000173689005442151,16.1187115694593
0.000183918751844024,16.1287115694593
0.000196092016129667,16.1387115694593
0.000210337961267278,16.1487115694593
0.000226894284243619,16.1587115694593
0.000246114753148179,16.1687115694593
0.00026848901217145,16.1787115694593
0.000294677479651067,16.1887115694593
0.000325566850744845,16.1987115694593
0.000362355988669376,16.2087115694593
0.000406689224657972,16.2187115694593
0.000459479888350253,16.2284749938697
0.000519463970953573,16.2375194897508
0.000587413920277766,16.2458796410725
0.000664357868786124,16.2536065209352
0.000751495251075027,16.2607483319118
0.00085019370760745,16.2673499331994
0.000962003399035044,16.2734530849856
0.00108867921943515,16.2790966813187
0.00123220819317371,16.28431694131
0.00139483999765157,16.2891475822695
0.0015791218927349,16.2936199975158
0.00178794020077181,16.2977634324637
0.00202456924438998,16.3016051446561
0.00229272827547593,16.3051705485053
0.00259665357529996,16.3084833706277
0.00294118617894769,16.3115658141627
0.00333188496506175,16.3144387195844
0.00377517266260371,16.3171217394466
0.00427853170367042,16.3196335437357
0.00485077609543583,16.3219920607764
0.00550244031160897,16.3242147854654
0.00623561668167006,16.3262914335969
0.00704392469821347,16.3282052975277
0.0079372500219494,16.3299880295697
0.00893028365733356,16.331671023071
0.0100456207686973,16.3332874965889
0.0113224797805391,16.3348796306575
0.01289659820283,16.336572069999
0.015135720606245,16.3386355484605
0.0168484887750441,16.3400386468205
0.0186798068725753,16.3414417451804
0.0203752150906101,16.3427020614597
0.0218806083753698,16.343832988092
0.0232343756745634,16.3449035013721
0.0244422354530879,16.3459573579262
0.0254893621797147,16.3470318071718
0.0263424512236764,16.3481727520277
0.0269357276349773,16.3494617470649
0.0270889918720404,16.3511468430953
0.0265974730007608,16.3527996780206
0.0255842669970974,16.3544525129459
0.0244233992774155,16.3558513695796
0.0231110152988828,16.3572148486458
0.0216463629366748,16.3586182355509
0.0200377723365254,16.3601022802119
0.0182901605102018,16.3617070274949
0.0164323313801227,16.363487128934
0.0145714743327492,16.3654328122324
0.0124653555711157,16.3678982333387
0.0106714992771093,16.3702965263585
0.0091265918078097,16.3726650539774
0.00775989544100553,16.3750816021824
0.00654836101341453,16.3775719308771
0.00549048060797942,16.3801192562414
0.00478202491174187,16.3820915093082
0.0041585511987354,16.384063762375
0.00366373485940662,16.3858330884642
0.00324528193799786,16.387509508568
0.00286713320371121,16.3892038676189
0.00250513675208976,16.3910282119014
0.00213121433640569,16.3931825086816
0.00165891399816111,16.3964517672146
0.00125445113807559,16.4000001499055
0.000969603585434188,16.4031892638061
0.000741239400367486,16.4064600081934
0.000542016644310623,16.4102964944007
0.000378759534569814,16.415155750727
0.000301191447548031,16.4203415140819
0.000314955153178567,16.4249576970436
0.000402718451163063,16.4291480666733
0.000557225054533428,16.432938648329
0.000775831082051072,16.4363742784272
0.00105894253063728,16.4395012943245
0.00140933681071154,16.4423658548008
0.00183277353619465,16.4450172711926
0.00233883077614379,16.4475060696974
0.00294347988098294,16.4498880500261
0.00367319314093657,16.4522274405414
0.00456947411896177,16.4545958210759
0.00570265614525209,16.4570875436537
0.00713843314326379,16.4597328798522
0.00877910288682535,16.4622894158795
0.0104126285623819,16.4644721005835
0.0120193987691402,16.4663351481366
0.0136947490101578,16.4680273922904
0.0154676157500049,16.4695849499103
0.017414061699062,16.4710677877489
0.0195519684680261,16.472474834188
0.0219339412500177,16.4738255144432
0.024594035281031,16.4751222788453
0.0275743202323595,16.4763697567969
0.0309224654716506,16.4775723588518
0.034682197801991,16.478731079994
0.0389148086277941,16.4798506855366
0.0436844109943793,16.4809340302938
0.0490632109538077,16.4819837254753
0.0551410908104664,16.4830035363664
0.0620240191478528,16.4839971577667
0.0698387102439742,16.48496838428
0.0787401002171217,16.4859213817891
0.0889189311000034,16.4868606686886
0.100620192496836,16.4877917898803
0.11415978815494,16.4887212035775
0.129959472934302,16.4896569865867
0.148605849743034,16.4906098773838
0.170706950459395,16.4915848135113
0.196316648476448,16.4925634626966
0.226109280042508,16.4935562212262
0.260994382297119,16.4945781437453
0.302353293738265,16.4956551962347
0.339679694278625,16.4965446761264
0.379042897042299,16.497434156018
0.413545578275057,16.4982016383199
0.44350737587784,16.4988852921871
0.469718920342612,16.499525749569
0.492324880497608,16.5001495462606
0.511018908750184,16.5007790631875
0.525008885001789,16.5014397576116
0.532629431644927,16.5021709396568
0.530656809772916,16.5029681943369
0.517145310831513,16.503787479805
0.49071884791945,16.5046457326272
0.449547250511666,16.5055554541547
0.391578569902657,16.506525037647
0.345859805647366,16.5071672534243
0.295227397101343,16.5078094692016
0.250317707335954,16.5083445889198
0.212013318204306,16.5087897698999
0.178469713965046,16.5091803015256
0.148481671622209,16.5095371332099
0.121331623045081,16.5098729584847
0.0965340409843232,16.5101968189555
0.0737001995237647,16.5105166036338
0.0524357237970961,16.5108413321371
0.032150164527455,16.5111861243279
0.011078318610415,16.5115985513863
-0.000374460715844954,16.5118569239153
-0.00779286688379249,16.5120422559962
-0.0145747195731873,16.512227588077
-0.0204757955611843,16.512404301355
-0.026518422016292,16.5126040646418
-0.0324210641363173,16.5128228447295
-0.0379943498397282,16.513057881138
-0.0431319541476341,16.5133080289438
-0.0477772635726863,16.5135731998071
-0.0519034008215006,16.5138540376616
-0.0554978668770243,16.5141517572477
-0.0586784094000261,16.5144828787133
-0.0611602649709204,16.5148182335681
-0.0631330674141005,16.5151768458331
-0.0646129669374225,16.5155623450243
-0.065614109418334,16.5159789516284
-0.0661488714536984,16.5164319134647
-0.06622624420765,16.5169278482013
-0.0658498476524568,16.51747526632
-0.0650133982467757,16.5180864836609
-0.0636961709392835,16.5187779496774
-0.0618551510802888,16.5195735156584
-0.0594027488953483,16.5205125435814
-0.0561335831399959,16.5216756270468
-0.0520032480953124,16.5230918949309
-0.0479849409435561,16.5244587012621
-0.0441367259641351,16.525783544329
-0.040488336066357,16.5270694103525
-0.0370551757058325,16.5283174799953
-0.0338446413023818,16.5295280208365
-0.0308588587920743,16.5307008542848
-0.0280960914469025,16.5318356014606
-0.025551620261202,16.5329318112088
-0.0232184009408503,16.5339890227713
-0.0210876136107945,16.535006790243
-0.0191491481202867,16.5359846832679
-0.0173920379778099,16.5369222718991
-0.0157808099011244,16.537833096827
-0.014226668025019,16.5387670755479
-0.0127345194809091,16.5397254958303
-0.0113083332552116,16.5407103625306
-0.00995189677705896,16.5417240191506
-0.00866875947825672,16.5427692343416
-0.00746217995470323,16.5438493104373
-0.00633507022892851,16.5449682286211
-0.00528993689731143,16.5461308473621
-0.0043288184050905,16.5473431807364
-0.00345321683066715,16.5486128008483
-0.00266402103141821,16.5499494413033
-0.00196141513653888,16.5513659434722
-0.00134476047097812,16.5528798257073
-0.000817643074936497,16.5544979493407
-0.000395680086749736,16.5561573456059
-6.1415412986124e-05,16.557876379533
0.000200341142314026,16.5596746999746
0.00040387015802687,16.5615782164313
0.000562967903491262,16.5636229479896
0.000691595876581838,16.5658628612454
0.00080508176170655,16.5683879829124
0.000923223423878548,16.5713777023993
0.00107374614387842,16.5751138971356
0.00124774183927614,16.57898636775
0.00147114448923421,16.5834040465008
0.00174425370820686,16.5883574205767
0.00200256244751231,16.5928362971734
0.00224134577058973,16.5969123059902
0.00247127250199705,16.6008241662953
0.00269806473550055,16.6046823247236
0.00292582467355957,16.6085517163971
0.00315809692569749,16.6124784472758
0.00339825938645058,16.6165000807593
0.00364967050746643,16.6206496953603
0.0039158265208245,16.6249589145828
0.00420050682827278,16.6294597159194
0.0045079746850463,16.6341858645631
0.00484330457179792,16.6391742996975
0.00521291420177208,16.6444663086976
0.0055960347891832,16.6497115227784
0.0059941554785016,16.6548961371708
0.00640914729702258,16.6600042556629
0.0068443508581378,16.6650333520512
0.00730418838780551,16.6699882560178
0.00779366975759223,16.6748744771864
0.0083183639097018,16.6796971771997
0.0088843074425767,16.6844594830248
0.00949806992103028,16.6891625195544
0.0101668540468885,16.6938057693603
0.0109081935242257,16.6984447385484
0.0117413746207536,16.7031150921488
0.0126845449638109,16.7078211214944
0.0137638910206046,16.712586142849
0.0150190535318165,16.7174615367476
0.0165228083984414,16.7225744789597
0.0184648845496065,16.728323580436
0.0203753175931912,16.7333447968117
0.0219672869167471,16.7372439328947
0.0235991088919294,16.7411430689777
0.0250019992172394,16.7445782672302
0.0261837898162223,16.7477168811485
0.027160157340945,16.7507357792173
0.0278843045233184,16.7536231496847
0.0283422839594808,16.7564335905503
0.028522982324598,16.7592959572029
0.0283744519564918,16.7624068875373
0.027683067483738,16.7663645247026
0.0268413671198701,16.7693212982027
0.0257741217066698,16.7722780717027
0.024696115884627,16.7748679742682
0.0236226419752003,16.7772419649794
0.0225484945800687,16.7795033167227
0.0214747861511266,16.7817026406469
0.020404826675815,16.7838691224091
0.0193423226594384,16.7860222056359
0.0182908751524086,16.7881761466565
0.0172538421047019,16.7903421481638
0.0162343051482087,16.792529512937
0.015235067882805,16.7947463365202
0.0142586670853619,16.7969999506322
0.0133073821087389,16.7992972395343
0.0123832463398819,16.8016448726119
0.0114880595547472,16.8040494856895
0.0106233921211289,16.8065178557961
0.00979060020129663,16.809057033125
0.00899082930509275,16.8116745021611
0.00821864135675568,16.8144017887758
0.00746002932434555,16.8173130556856
0.00671883886264073,16.8204294042954
0.0059988944213068,16.8237760917148
0.00530422097769148,16.8273822946907
0.00463899605513185,16.8312818649324
0.00400747027626312,16.8355143250012
0.00341383431085776,16.8401263828136
0.00286201962574816,16.8451744863801
0.00235541434473479,16.8507296622053
0.00189663632006964,16.8568852049497
0.00148877648675267,16.8637429904667
0.00114615390606712,16.871128442649
0.000867428111503951,16.87914769777
0.000687013016353727,16.8864768057861
0.00053069438780391,16.8950974119514
0.000406617344413463,16.9045820577991
0.000315010095100176,16.9145820577991
0.000252512955672818,16.9245820577991
0.000210825244834089,16.9345820577991
0.00018387641309655,16.9445820577991
0.000167299200505452,16.9545820577991
0.000158055287932946,16.9645820577991
0.000154089254087946,16.9745820577991
0.000154034706652511,16.9845820577991
0.00015699641567964,16.9945820577991
0.000162404006095884,17.0045820577991
0.00016991856845474,17.0145820577991
0.000179373975106983,17.0245820577991
0.000190740621352098,17.0345820577991
0.000204104824461121,17.0445820577991
0.000219660636660076,17.0545820577991
0.000237712898029419,17.0645820577991
0.000258691876345807,17.0745820577991
0.000283181485415635,17.0845820577991
0.000311965339551597,17.0945820577991
0.000346098388750039,17.1045820577991
0.000387017637064395,17.1145820577991
0.000436715519517987,17.1245820577991
0.000493616549075496,17.133920788586
0.000558112311165392,17.1425561016026
0.000631145715722232,17.1505375485294
0.000713846954563168,17.1579146462963
0.000807512349618417,17.1647335695517
0.000913612829529025,17.1710372957457
0.00103381393557277,17.1768658491756
0.00117000107452421,17.1822565100906
0.00132430949219075,17.1872439871745
0.00149915590116972,17.1918605945508
0.00169727860935659,17.1961364285632
0.00192178135315545,17.2000995366487
0.00217618813173242,17.2037760639999
0.00246450728796191,17.2071904036225
0.00279131205711626,17.2103653575437
0.00316184297088416,17.2133222990891
0.00358213683921748,17.2160813380523
0.00405919999071018,17.2186615119469
0.00460124419367849,17.2210810101958
0.00521801783714879,17.2233574470418
0.00592129566867983,17.2255082326223
0.0066972965500841,17.2274851834248
0.00755357660435891,17.229317623625
0.00850267456791478,17.2310372092595
0.00956320391238093,17.2326757761815
0.0107656420796022,17.2342703168713
0.0121900942721527,17.2358985301391
0.0140619545494911,17.2377401269021
0.0159725367114459,17.2393878360867
0.0180736970743495,17.2410355452713
0.0198817281446931,17.2423848430115
0.0214448218314342,17.2435483835107
0.0228454056071826,17.2446315999214
0.0241008157764944,17.2456859620533
0.0252018737560793,17.2467491055407
0.0261215985601127,17.2478624224126
0.0268074927813215,17.2490911958012
0.0271372182790259,17.2505959137918
0.0268278964909873,17.2523631952184
0.0258775070960644,17.254130476645
0.024751259015238,17.2555623295518
0.0234770482413134,17.2569241356506
0.0220488358227778,17.2583129141235
0.0204744126826408,17.2597730325856
0.0187601448258683,17.2613432284407
0.018107965509001,17.2619447635547
0.0174673186952663,17.2625462986686
0.0149818345456751,17.2650547399764
0.0128022853224146,17.2675486509366
0.0109569789259263,17.2699596754537
0.00937448263236297,17.2723293511419
0.0079848817600037,17.2747260491811
0.00674483390188416,17.2772086567497
0.0056623009059087,17.279744628853
0.00489959142012009,17.2818150826211
0.00423247449653287,17.2838855363891
0.00372009687716753,17.2856908169173
0.0032940766670706,17.2873748622391
0.00291321031433188,17.2890584335925
0.00255252112185896,17.2908489429184
0.00218628309127236,17.292918931256
0.00175239463885393,17.2958206818251
0.00133426141989905,17.2993068643685
0.00103465083819891,17.302478193282
0.000799363225396297,17.3056369542946
0.000595307340990424,17.3092386712455
0.00041774264029512,17.3138430837797
0.000312901927948473,17.3191540478495
0.000305675414033431,17.3238936481251
0.00037535572904594,17.3281991564645
0.000513088991973789,17.3320933772208
0.000715173340049319,17.3356197582966
0.000981214864571527,17.3388238184211
0.00131355390631353,17.3417539435465
0.00171709800723505,17.3444580390382
0.00220016237359804,17.346985332736
0.00277661570168826,17.3493896090162
0.00346919420861095,17.3517312955264
0.00431399852831918,17.3540785388432
0.00537305701773957,17.3565218634381
0.00672176635204952,17.3591245203996
0.00831921073277293,17.3617247982783
0.00996746725347485,17.3640169979452
0.0115806953115319,17.3659582854799
0.0132373494994895,17.3676937502888
0.0149798993779873,17.3692824395314
0.0168846838068648,17.3707895259495
0.0189662774163043,17.3722135715274
0.0212838645362958,17.3735806291792
0.0238641200942464,17.3748898035696
0.0267567526873015,17.3761504923173
0.0300020031434122,17.3773643609299
0.0336475329317514,17.3785344082224
0.037750264919517,17.3796644911094
0.042370241498308,17.3807570547996
0.047578760937208,17.3818152069861
0.0534624389061224,17.3828427382479
0.0601214636654086,17.3838430978187
0.0676762761780086,17.3848200042061
0.0762713423587541,17.3857772788296
0.0860901377422869,17.3867197198968
0.0973611585811515,17.3876524999924
0.110378513198238,17.3885817424467
0.125531634361115,17.3895150221138
0.143355252427087,17.3904622131695
0.16462431525283,17.3914372363287
0.189260372510226,17.3924141234357
0.217885196579653,17.393402070814
0.251334648848053,17.3944146179358
0.290825078132721,17.3954737607709
0.337549538930506,17.3966027926225
0.379573915239434,17.3975534829392
0.41419566196423,17.398323851885
0.444078369101592,17.3990065225896
0.470209151754685,17.3996464345519
0.492731897352493,17.4002701783861
0.511331204712832,17.4009001325455
0.52520187749433,17.401561907066
0.532650070344789,17.402295323415
0.530436204335637,17.403092903081
0.51665973856398,17.4039129027359
0.48993376308695,17.404772177279
0.448420651460679,17.4056831193837
0.390067345447298,17.4066540846342
0.344492435200906,17.4072919954025
0.294099593238063,17.4079299061707
0.249385610717117,17.4084622425634
0.211210499379727,17.4089058614826
0.177758552863025,17.4092954666102
0.147841615415495,17.4096517223206
0.120749760482821,17.4099872003308
0.0960008854477684,17.4103108932563
0.0732073510202239,17.4106306875527
0.0519732670435783,17.4109556638595
0.0316992894670001,17.4113012008594
0.0105531590670267,17.4117166988558
-0.00050324379561621,17.4119669339537
-0.00790546999528062,17.4121521279121
-0.0146725863985856,17.4123373218705
-0.0205762542300795,17.4125143845199
-0.0266185284083257,17.4127144912159
-0.032516949898525,17.4129335561869
-0.0380837739073352,17.4131688487221
-0.0432136957890676,17.413419244491
-0.0478507084624741,17.4136846688672
-0.0519683012092576,17.4139657758829
-0.0555539886233861,17.4142637887257
-0.0587167018143629,17.4145942153889
-0.0611916919794033,17.4149298527903
-0.0631579361483254,17.4152888008907
-0.064631476540484,17.4156746857139
-0.0656264442014013,17.4160917393101
-0.0661551818344501,17.4165452247822
-0.0662266240509208,17.4170417804577
-0.0658443048066431,17.417589945912
-0.0650017685172952,17.4182021011913
-0.0636780754934575,17.4188947551338
-0.0618298232897183,17.4196918932121
-0.0593685732549776,17.4206331742729
-0.0560862714659315,17.4218001292763
-0.0519570226025522,17.4232156599879
-0.0479405845285746,17.4245819249863
-0.0440947191966303,17.4259062760436
-0.0404489247539738,17.427191670316
-0.0370184840262443,17.4284392739802
-0.0338107180410646,17.42964934748
-0.0308276995180224,17.4308217089465
-0.0280676510659225,17.4319559782394
-0.0255258218849138,17.4330517039601
-0.0231951430763842,17.4341084255516
-0.0210667763589987,17.4351256974094
-0.0191305988375013,17.4361030893516
-0.0173756362767223,17.4370401713225
-0.0157650563397932,17.4379512836776
-0.0142116271564587,17.4388855629558
-0.0127202404092757,17.4398443074823
-0.0112948630510507,17.4408295259815
-0.00993927971449407,17.4418435668136
-0.00865703635799591,17.4428892046904
-0.0074513873802609,17.4439697495985
-0.00632523983497625,17.4450891925255
-0.005281094528578,17.4462524047194
-0.00432098322331974,17.4474654172655
-0.00344640030846193,17.4487358254935
-0.00265822577443775,17.4500733957387
-0.00195663341390439,17.4514910173675
-0.0013409721912825,17.4530062828198
-0.00081518475189616,17.4546248248723
-0.000394314466096416,17.4562848642289
-6.09426324199628e-05,17.4580047580997
0.000200108415352597,17.4598042184827
0.000403111402856894,17.4617092519624
0.000561861727935976,17.4637560417684
0.000690331276892091,17.465998859975
0.000803881793951011,17.4685283938164
0.000922417075625871,17.471525894665
0.00107325013044895,17.4752615572005
0.00124788711278812,17.4791385262184
0.00147218909730578,17.4835644350373
0.00174582158921271,17.4885196009712
0.00200447620968149,17.4929997338065
0.00224347623250843,17.4970762384571
0.00247356681270389,17.5009883045774
0.00270050338276884,17.5048465160686
0.00292840535057268,17.5087158582545
0.00316082712956195,17.5126424606499
0.00340115255536688,17.5166638973933
0.0036527441862908,17.5208132508715
0.00391910185889071,17.5251221438493
0.00420400901174572,17.5296225494823
0.00451173399539313,17.5343482244262
0.00484735805813608,17.5393360961544
0.00521730776403129,17.5446274351305
0.00560074421536961,17.5498711971767
0.00599923679933222,17.5550547024886
0.00641463270853932,17.5601616946536
0.00685028672106629,17.5651897723618
0.00731062303538047,17.5701437056934
0.00780065941591608,17.5750289962262
0.00832597316455915,17.5798507844202
0.00889261109140019,17.5846121815739
0.00950715418771686,17.589314297803
0.010176818343975,17.5939566079755
0.0109194200014601,17.59859611944
0.0117540581105539,17.6032668416989
0.012699006651439,17.6079735012677
0.0137805793449573,17.6127396288378
0.0150387063033207,17.6176172512642
0.0165469492379209,17.6227353558984
0.0184985384507056,17.6285006930611
0.0203991221879465,17.6334885960461
0.0219889983993036,17.637380074608
0.0236176667315905,17.6412715531699
0.0250175652207112,17.6447015810521
0.0261968446686955,17.6478378142262
0.0271706835572817,17.6508561204436
0.0278915412859082,17.6537418529352
0.0283462304640283,17.6565520906625
0.0285233175264828,17.659416062565
0.0283700571494835,17.6625320816651
0.0276678565437903,17.6665112849546
0.0268243215187622,17.6694573663333
0.025757773484188,17.6724034477121
0.0246800969143664,17.6749884258086
0.023606646531432,17.6773601270569
0.0225324900749507,17.6796202499151
0.0214588131021982,17.6818188932527
0.0203889401836394,17.6839850382158
0.0193265784577165,17.6861380264835
0.0182753259862999,17.6882920562996
0.0172385367240708,17.6904582947871
0.0162192882048061,17.6926460218907
0.0152203800024584,17.6948633183721
0.0142443450207123,17.6971175065394
0.0132934589684116,17.6994154649083
0.0123697516572649,17.7017638602097
0.0114750195181267,17.7041693277144
0.0106108296603171,17.7066386460042
0.00977853509236318,17.7091788687032
0.00897927831653148,17.7117974854375
0.00820726608377041,17.7145273536039
0.00744888698097977,17.7174414877406
0.00670798485231751,17.7205610513564
0.00598838737338236,17.7239113546444
0.00529412224787172,17.7275216371121
0.00462936879820159,17.7314258257162
0.00399837789966593,17.7356635357938
0.0034053379567899,17.7402815966998
0.00285417476757457,17.7453366268667
0.00234826614781265,17.7508999184857
0.00189021756489653,17.7570651671132
0.00148336258776159,17.7639299045851
0.00114164192476944,17.7713236857322
0.000863844639870775,17.7793530985073
0.000682602342171195,17.786759131772
0.000527660935651705,17.7953651066971
0.000404141848922848,17.8048731761434
0.00031323021797877,17.8148731761434
0.000251220414520141,17.8248731761434
0.000209870773544946,17.8348731761434
0.00018315303284936,17.8448731761434
0.000166731596343693,17.8548731761434
0.000157591229540385,17.8648731761434
0.000153692634703853,17.8748731761434
0.000153680339342437,17.8848731761434
0.00015666641607374,17.8948731761434
0.000162085362466571,17.9048731761434
0.000169601499342575,17.9148731761434
0.000179050781122395,17.9248731761434
0.000190404845155934,17.9348731761434
0.000203750603096005,17.9448731761434
0.000219282166669981,17.9548731761434
0.000237303949194739,17.9648731761434
0.000258245293212096,17.9748731761434
0.000282688609496546,17.9848731761434
0.000311415266479681,17.9948731761434
0.000345476936421407,18.0048731761434
0.000386305828460315,18.0148731761434
0.000435887248386278,18.0248731761434
0.000492696352374811,18.0342195032758
0.000557091669670744,18.0428621295292
0.000630012932924993,18.0508503402559
0.000712588470553953,18.0582336812097
0.000806112777485875,18.0650583641309
0.000912054808056584,18.071367400783
0.001032077894738,18.0772008470471
0.00116806493628612,18.0825960125087
0.00132214833121974,18.0875876331425
0.00149674155493444,18.0922080482995
0.00169457921286372,18.0964873775071
0.00191876078167883,18.1004536895754
0.00217280537456913,18.1041331494323
0.00246071562260844,18.1075501680676
0.00278705807171378,18.1107275636468
0.00315706529182103,18.1136867238634
0.00357676447461634,18.1164477709254
0.00405315013513826,18.1190297524591
0.004594419156241,18.1214508653215
0.00521030063609116,18.1237287277156
0.00591254341638013,18.1258807488442
0.00668768383519429,18.1278594318343
0.00754299331743835,18.1296932626736
0.00849095202117959,18.1314138903247
0.00955008127960783,18.1330531256482
0.0107506651492404,18.1346478536284
0.0121715566935679,18.1362746688653
0.0140359266620885,18.1381120468248
0.0159557283898188,18.1397697290223
0.0180688348285881,18.1414274112197
0.0198789462838565,18.1427782629053
0.0214424683925869,18.1439420286816
0.0228433231703665,18.1450252983343
0.0240989975131009,18.1460796495755
0.0252003449808432,18.147142725168
0.0261204134965882,18.148255898963
0.0268067606613754,18.1494843883616
0.0271372520270762,18.1509883761353
0.0268287704991073,18.1527563656323
0.0258784968600614,18.1545243551294
0.0247522845626541,18.155956380375
0.0234781536834972,18.157318179051
0.0220500142905655,18.1587069028375
0.0204756482387123,18.1601669401295
0.0187614236920494,18.161737026787
0.0181097884492,18.1623380220929
0.0174696271454607,18.1629390173988
0.0149841939912517,18.1654469724714
0.0128059094823845,18.167938799373
0.0109616799060842,18.1703474626523
0.00938019331366894,18.1727142813152
0.00799175311494695,18.175107075646
0.00675070323719487,18.1775893126884
0.00566724268387029,18.1801248951085
0.00490304919577723,18.1821973305151
0.00423470500012411,18.1842697659217
0.00372202773746953,18.1860745642509
0.00329601229277485,18.1877570065033
0.00291526574581206,18.1894382035506
0.00255479192076189,18.1912252845251
0.00218895283391007,18.1932895780347
0.00175638493912513,18.1961753978793
0.00133728482867759,18.1996581536174
0.00103670579160546,18.2028278879244
0.000800801245317361,18.205981075123
0.000596114174087329,18.209573320569
0.000417606637167516,18.2141613061863
0.000310975626232317,18.219461649625
0.000301816417342611,18.2242130164277
0.000369785583908233,18.22852698675
0.000505892343922678,18.2324288360787
0.000706356586452369,18.2359617316965
0.000970724698026655,18.2391711393452
0.00130128531127477,18.2421055107891
0.00170290520354423,18.2448129145519
0.00218383040283608,18.2473425999389
0.00275782746160761,18.2497483718843
0.00344747461679936,18.2520906569806
0.00428877486155028,18.2544379558926
0.00534401552043298,18.2568820072991
0.00669060856758341,18.2594899542601
0.00829009756923098,18.2621019609429
0.00994099170649286,18.264404517604
0.01155355822603,18.2663504715913
0.0132076355909332,18.2680882223317
0.0149469592881761,18.2696786639846
0.0168478473020648,18.2711871890705
0.0189247977052211,18.2726123549931
0.0212371178614929,18.2739804332719
0.0238111840226422,18.2752904065953
0.0266971013727401,18.2765519422636
0.0299343305328096,18.2777664194673
0.0335713280078028,18.278937183746
0.0376644284310299,18.2800679176013
0.0422730579860477,18.2811609661265
0.0474690493879329,18.2822196202934
0.0533383523855875,18.2832475761522
0.0599807496716095,18.2842482750366
0.0675161253140402,18.2852254213221
0.0760883592590691,18.2861828360893
0.085879981586568,18.2871252982273
0.0971182055644803,18.2880579568948
0.110095274025113,18.288986900206
0.125197773222901,18.2899196478008
0.142955578136641,18.2908659705112
0.164135736084849,18.2918396410636
0.188692203607035,18.2928160275642
0.217220605772963,18.2938031425475
0.250549730970038,18.294814358179
0.289880852752508,18.2958712846596
0.336520059405336,18.2969996604732
0.378821782693376,18.2979565972017
0.413612987913999,18.2987297526308
0.443614001401145,18.2994135234047
0.469849985347091,18.3000537396566
0.492480084294247,18.3006772383733
0.511199945356776,18.3013064176651
0.525219193714422,18.3019667324481
0.532875162679769,18.3026974844062
0.530942999812121,18.3034944688007
0.517471629904915,18.3043134851986
0.491085477518438,18.3051715008295
0.449953110624343,18.3060810510886
0.392019556393747,18.3070505334537
0.34624428224648,18.3076936861126
0.295534462173713,18.3083368387714
0.250563880293251,18.3088725361701
0.212218679533017,18.3093180136184
0.178645684853309,18.3097086994224
0.148634663232444,18.3100656097151
0.121465717776279,18.3104014661768
0.0966521768435932,18.3107253219597
0.0738047812278262,18.3110450678346
0.0525291516959978,18.3113697133777
0.0322360782864541,18.3117143338714
0.0111709610420859,18.3121261915218
-0.000356993441624255,18.3123860213626
-0.00777865709254385,18.3125713252509
-0.0145635363157369,18.3127566291391
-0.0204671773822333,18.3129333121654
-0.026510846784346,18.3131329842157
-0.0324150909287686,18.3133516772818
-0.03799031413371,18.313586628789
-0.043130012380446,18.3138366908965
-0.0477774637489078,18.3141017731356
-0.0519057257825729,18.3143825177539
-0.0555024046977752,18.3146801379926
-0.0586911930846047,18.3150118544579
-0.0611740258179581,18.3153471497548
-0.0631476630823107,18.3157056892267
-0.0646283344636497,18.3160911105278
-0.0656301915708012,18.3165076335898
-0.0661656166810092,18.3169605054794
-0.0662436068891246,18.3174563429982
-0.0658677879693316,18.3180036556246
-0.0650318856476935,18.3186147558667
-0.0637151793632949,18.3193060926718
-0.0618746570801239,18.3201015148311
-0.0594227288650715,18.3210403801645
-0.0561540102941257,18.3222032728083
-0.0520230964730096,18.3236196474472
-0.0480041004329777,18.3249865593363
-0.0441551218859486,18.3263115152535
-0.0405059233400946,18.3275975008696
-0.0370719285516686,18.3288456961405
-0.033860548770102,18.3300563679029
-0.0308739225861724,18.331229336844
-0.0281103240069321,18.3323642234182
-0.0255650431048318,18.3334605758829
-0.0232310430159462,18.3345179329882
-0.0210995095801978,18.3355358484504
-0.0191603368129982,18.3365138916635
-0.0174025608736496,18.337451632575
-0.015791122219559,18.3383623685979
-0.0142367484393156,18.3392962545266
-0.0127443513092473,18.3402545749002
-0.0113179003953923,18.34123933338
-0.00996118393171599,18.3422528719735
-0.00867775236409878,18.3432979574738
-0.00747086551707855,18.3443778898736
-0.0063434368634062,18.3454966473618
-0.00529797468747729,18.3466590845089
-0.00433651937638811,18.3478712102067
-0.00346057522321362,18.3491405894854
-0.00267103361550388,18.3504769459876
-0.00196808160572164,18.3518931064839
-0.00135108396189643,18.3534065668037
-0.000823517890738723,18.3550245617766
-0.000401177525920946,18.3566837610078
-6.6595203531646e-05,18.3584025319021
0.000195423228606226,18.3602005040652
0.000399160952434154,18.3621035574493
0.000558414801565863,18.3641476612358
0.000687143549050204,18.3663866892561
0.000800665224068895,18.3689104679885
0.000918746979396341,18.371897824144
0.00106923928184442,18.3756341880243
0.00124309159007412,18.3795052908863
0.00146626016405715,18.3839204717369
0.00173922707826287,18.3888733138107
0.0019991515022505,18.393381788107
0.00223853544496289,18.3974693362605
0.00246861192191606,18.4013853376003
0.00269531013707509,18.4052437602013
0.00292281371329182,18.4091108586905
0.00315470176743416,18.4130333222671
0.00339436551607741,18.4170489996212
0.00364516473944649,18.4211910950589
0.00391058829772861,18.4254912443282
0.00419440129817657,18.4299813643052
0.00450084289958181,18.4346950880071
0.00483494759290407,18.4396691614353
0.00520306508206748,18.4449446150354
0.00558622739186576,18.4501961753569
0.00598386037187169,18.4553806450462
0.00639848995206119,18.4604914698377
0.00683316836108982,18.4655225835133
0.00729235745476468,18.4704795087509
0.00778102787621027,18.4753674765397
0.00830474306363646,18.4801917591797
0.0088695289434492,18.4849555458523
0.00948194431773217,18.4896600340353
0.0101491773663695,18.4943047567739
0.0108882849871695,18.4989426718723
0.0117188724276999,18.5036122746071
0.0126588706994511,18.5083171094344
0.0137342437606827,18.5130801123425
0.0149841248756228,18.5179515244583
0.0164799156462096,18.5230553464334
0.0184053079247586,18.5287761493352
0.0208290392403845,18.5350933702799
0.0223628815188886,18.5388099829112
0.0239171564505569,18.5425265955425
0.0252679629981881,18.5458749556644
0.0264062648269539,18.5489756526135
0.0273382596521474,18.5519870274249
0.0280050638553131,18.5548486231114
0.0284052062805302,18.5576584002365
0.0285216001289087,18.5605530634891
0.0282863842299877,18.5637640984106
0.0273771806329199,18.5681634428673
0.0265016965493472,18.5709428749364
0.0254427299642372,18.5737223070054
0.0243691478802454,18.5762253067505
0.0232958157324491,18.5785570621222
0.0222215557356276,18.580795475376
0.021148626359146,18.5829822577599
0.0200805654726093,18.5851428630807
0.0190210759426249,18.587294829605
0.017973692320555,18.5894513186298
0.0169416902833359,18.5916228586684
0.015928066171115,18.5938183257129
0.0149355413344324,18.5960455423853
0.0139665735650943,18.5983116735659
0.0130233660353264,18.6006235154674
0.0121078804117855,18.6029877067351
0.01122184616037,18.605410906826
0.0103667660957934,18.6078999625439
0.00954393309624945,18.6104620329693
0.00875443097479903,18.6131047593117
0.00798598506674609,18.6158860151185
0.00723229118853617,18.6188572690704
0.00649716036890293,18.6220409216238
0.00578448346046696,18.6254633456984
0.00509833574196622,18.6291550649927
0.00444292840468136,18.6331515324236
0.00382251065523471,18.637494265947
0.00324121667234784,18.6422326190703
0.00270285179760795,18.6474267705192
0.00221058213347877,18.6531536107316
0.00176677240471977,18.6595151999196
0.00137931355334306,18.6665211712391
0.00105499162310917,18.6740841491536
0.00079732854104468,18.6823200633568
0.000618388121692851,18.6904933076632
0.000478488462473219,18.6992862072349
0.000367884777067898,18.7089646751175
0.000288449962594103,18.7189646751176
0.000234605245386491,18.7289646751176
0.000199043624773102,18.7389646751176
0.000176407942197557,18.7489646751176
0.000162874232028946,18.7589646751176
0.000155807182740294,18.7689646751176
0.000153437191056423,18.7789646751176
0.000154594993565513,18.7889646751176
0.000158521268906098,18.7989646751176
0.000164741592968732,18.8089646751176
0.000172987529833168,18.8189646751176
0.000183147435938951,18.8289646751176
0.00019523671096268,18.8389646751176
0.000209382152447104,18.8489646751176
0.00022581804363649,18.8589646751176
0.000244893405796174,18.8689646751176
0.000267091347065125,18.8789646751176
0.00029306324844158,18.8889646751176
0.00032368315391955,18.8989646751176
0.000360131896958,18.9089646751176
0.000404027533370164,18.9189646751176
0.000456459251727681,18.9287626086689
0.000516047420549246,18.9378404724936
0.000583551418731917,18.9462316118877
0.00065999066843555,18.9539872034285
0.000746556215232469,18.96115559565
0.000844606765001033,18.9677817851747
0.000955682460593971,18.9739076601209
0.00108152686413434,18.9795722341659
0.0012241140907263,18.9848118396063
0.0013856792854696,18.9896602998009
0.0015687530538603,18.9941491067837
0.00177620283225699,18.9983075973822
0.00201128112891318,19.0021631142129
0.0022776821098014,19.0057411502166
0.00257961273972411,19.0090655032739
0.00292187939702638,19.01215844012
0.00330999965644115,19.0150408570665
0.0037503459179694,19.0177324532437
0.00425033809044368,19.0202519339835
0.00481871060759184,19.022617249133
0.0054658931885791,19.0248458960502
0.00619534282297661,19.0269312418357
0.00699949371420321,19.0288521490428
0.00788801069380294,19.0306402659543
0.00887527641937694,19.0323269757526
0.00998329465841285,19.0339452342088
0.011249937662233,19.0355363588997
0.0128026212222162,19.0372181410955
0.0149806577999569,19.0392417790373
0.0166898638690472,19.0406518745608
0.0185232158396425,19.0420619700842
0.0202401899357104,19.0433385265705
0.0217613273014263,19.0444773321104
0.023128754056833,19.0455508314116
0.0243506924022879,19.0466042826936
0.0254138767564371,19.0476748854708
0.0262869058164274,19.0488070427674
0.0269082528552074,19.0500769282457
0.0271183480100392,19.0517009285913
0.0266821535593722,19.0533800456022
0.0256938813102906,19.0550591626132
0.024547289789441,19.0564660235423
0.0232489268755542,19.0578280249952
0.0217973620427661,19.05922569696
0.0202009862234935,19.0607006801734
0.0184652985649252,19.0622924317063
0.0166146538948376,19.0640535477182
0.0151413588678107,19.0655640372658
0.0129523809324024,19.0680456888283
0.0110873458670421,19.0704577459579
0.00948912323092104,19.072825403357
0.00808814120187552,19.0752142567809
0.00683457147020748,19.0776937085235
0.00574035844068744,19.0802247961425
0.00478437928813935,19.0828293028803
0.00412222789403981,19.0849311699485
0.00363143658000549,19.0866999246003
0.00321701748539349,19.0883731479585
0.00284162775159585,19.0900682160613
0.00248133673437572,19.0918985690123
0.00210757641122229,19.0940711328078
0.00163610606078522,19.097369336189
0.00123506969914252,19.1009313431385
0.000953300395432464,19.1041293258961
0.000726975023407254,19.1074219703251
0.000529496831305392,19.1113028340829
0.000370128069432868,19.1161932642288
0.000297647570964707,19.1213509533836
0.000315146439225828,19.1259487001933
0.000406090757881634,19.1301208501364
0.000563509058232091,19.1338950012509
0.00078490017453108,19.1373154975811
0.00107091731790968,19.1404303072299
0.0014241293506334,19.1432825762079
0.00185040000987757,19.145922767187
0.00235947568866052,19.1484020851919
0.00296694624672645,19.1507744693221
0.00369913725232124,19.153104045924
0.00460231948716635,19.15547431101
0.00574580033669239,19.1579720219014
0.00719408961979065,19.1606231767495
0.00884176551214275,19.1631747871415
0.0104757571241297,19.1653455439101
0.0120838109881631,19.1671999638503
0.0137623473982704,19.1688864094529
0.0155399933463038,19.1704398340149
0.0174924967828703,19.1719192560111
0.019639037425454,19.1733242317643
0.0220300890839103,19.1746724946036
0.024701878178454,19.1759676104147
0.0276944613431158,19.1772131034525
0.0310566439032054,19.1784138641835
0.0348325401573329,19.1795709392434
0.0390833412201105,19.1806889628621
0.0438736912146716,19.1817708518902
0.0492770799262953,19.1828193799788
0.0553822766718365,19.1838379904541
0.0622966481934547,19.18483053636
0.0701477886440064,19.1858008236249
0.079091739114775,19.1867530283446
0.0893211856509354,19.1876917263986
0.10108234406453,19.1886224098376
0.114694277146271,19.1895516030005
0.130582925990629,19.1904874370272
0.149341444687306,19.1914407408994
0.171556659159548,19.1924153541193
0.19730071514673,19.1933939336263
0.227253570032748,19.1943869602378
0.26233418919704,19.1954096652165
0.303945959924943,19.1964885244348
0.341096851305363,19.1973708008743
0.38022196063319,19.1982530773138
0.414593328968909,19.1990169439413
0.444464054158889,19.1996986139985
0.470594902418846,19.200337950275
0.493117200379796,19.2009612635993
0.511713692239565,19.2015909345348
0.525576190599404,19.2022526325659
0.533002840547337,19.2029863805637
0.530746041791093,19.2037837232192
0.516916450485091,19.2046036476035
0.490123392008412,19.205463017368
0.4485244056453,19.2063742272628
0.39006182950732,19.2073456217916
0.344468874562056,19.2079830497342
0.294068663978385,19.2086204776768
0.249351676160782,19.2091524656302
0.211173691380643,19.2095958518751
0.177719037707487,19.2099852897022
0.147799729454912,19.210341417934
0.12070580508739,19.2106767968181
0.0959550103367664,19.2110004146217
0.0731594185465823,19.2113201591737
0.0519225226752302,19.2116451220864
0.0316430672958223,19.2119907259339
0.0104761364973096,19.2124066881711
-0.000519885728256263,19.2126555680281
-0.00792020927434158,19.2128406695514
-0.0146856713022375,19.2130257710748
-0.0205913372279966,19.2132028506218
-0.0266348006654892,19.2134029554945
-0.0325338333884846,19.2136220053401
-0.0381009090834541,19.2138572752409
-0.0432308490550439,19.2141076443018
-0.0478677196469087,19.2143730399804
-0.0519850551048772,19.214654117683
-0.0555705184736462,19.2149521016255
-0.0587377766403668,19.215283071756
-0.0612115796762971,19.2156187295021
-0.0631765558862623,19.2159776993929
-0.0646488140615834,19.2163636170138
-0.0656424877789624,19.2167807178259
-0.0661699154210059,19.2172342694207
-0.0662400195337556,19.2177309164011
-0.0658563112882556,19.2182792074804
-0.0650122860111776,19.2188915413353
-0.0636869333651869,19.2195844476099
-0.0618367154340605,19.2203819569472
-0.0593728873530708,19.2213238302204
-0.0560864205397482,19.2224919269952
-0.0519567731611704,19.2239073380496
-0.0479400910393655,19.2252735518883
-0.0440940706980216,19.2265978793939
-0.0404481629135765,19.2278832665379
-0.0370176299665752,19.2291308733345
-0.0338097837664017,19.2303409566565
-0.0308266928042316,19.231513332478
-0.0280665779344018,19.2326476193023
-0.0255246877207627,19.2337433648458
-0.0231939530797247,19.2348001079577
-0.0210655357934223,19.2358174026282
-0.0191293129820989,19.2367948184001
-0.0173743103814871,19.2377319250369
-0.0157637690990347,19.2386430199905
-0.0142103776337376,19.2395772813001
-0.0127190284800391,19.2405360067022
-0.0112936887588663,19.2415212046865
-0.00993814335611709,19.2425352233276
-0.00865593855730642,19.2435808369894
-0.00745032917580327,19.2446613552255
-0.00632422278335351,19.2457807684747
-0.00528012081879882,19.2469439472748
-0.00432005581409874,19.2481569217709
-0.00344552310689271,19.2494272860129
-0.00265740386758733,19.2507648045373
-0.00195587338094586,19.2521823640764
-0.00134028257245434,19.2536975530084
-0.000814555257132333,19.2553160701132
-0.000393760367312348,19.2569760723918
-6.04786160390124e-05,19.2586959173354
0.000200466857832964,19.2604953134161
0.000403347263670448,19.2624002618213
0.000561955353613997,19.2644469366808
0.000690258408122518,19.2666895931532
0.000803609546816216,19.2692188818964
0.000921893168497071,19.2722159510431
0.00107242484101293,19.2759516367781
0.00124673291146476,19.2798283528919
0.00147065022191913,19.2842538007729
0.00174387622697736,19.2892088601132
0.00200306441033687,19.2937044710947
0.00224208411203966,19.2977868261452
0.00247196623129949,19.3017007839429
0.00269856915071901,19.305558801495
0.00292605060058536,19.3094265658119
0.00315797903111866,19.3133505160197
0.00339774108347384,19.3173683761513
0.00364869555404023,19.3215132931368
0.00391433343189524,19.3258168939926
0.00419842476806386,19.3303111168669
0.00450521792010305,19.3350296449749
0.00483976351270445,19.3400093003727
0.00520843916790937,19.3452912149913
0.00559156050835755,19.3505400944261
0.00598937693584713,19.3557244845541
0.00640415070165914,19.3608340727896
0.00683905146173034,19.3658642364342
0.00729852497217029,19.3708202132104
0.0077875581982269,19.3757073453387
0.0083117177259339,19.3805308602741
0.0088770348373009,19.3852939203161
0.00949007394999952,19.3899976918505
0.0101580306486048,19.3946416864821
0.0108981940762855,19.3992801078107
0.0117300132985653,19.4039500677024
0.0126715245800893,19.4086554749824
0.0137487991060795,19.4134194481066
0.0150012145081815,19.4182927767987
0.0165008326426621,19.4234009875097
0.0184342318866888,19.4291353660109
0.0208579955266997,19.4354438658604
0.0223892993491135,19.4391520932454
0.0239398257192133,19.4428603206304
0.0252870690121986,19.4462031609167
0.0264222137732747,19.4493013873869
0.0273509276304631,19.4523124433051
0.0280135177176345,19.4551723704615
0.0284093675107336,19.4579823399855
0.0285209143757936,19.4608797547968
0.0282789310718191,19.4640992089119
0.0273602642063079,19.468503479944
0.0264830610028242,19.4712750136556
0.0254242615902713,19.4740465473672
0.0243508151138009,19.4765453793931
0.0232774734752591,19.4788750137986
0.0222032109629752,19.4811122617016
0.0211303330148169,19.4832984163779
0.0200623865493509,19.4854587467457
0.0190030732696342,19.4876106941671
0.0179559237314096,19.4897673635144
0.0169242088817406,19.4919392484892
0.0159109203004408,19.4941352029877
0.014918774683594,19.4963630358362
0.0139502253987677,19.4986299037282
0.0130074713728527,19.5009425989513
0.0120924701345316,19.5033077597932
0.0112069473099,19.5057320479301
0.0103524019328892,19.5082223153361
0.00953012324579262,19.5107857289588
0.00874119165811032,19.5134299404397
0.00797296436780507,19.5162142854296
0.00721955558925908,19.519188975095
0.00648477447276306,19.5223764845326
0.0057725154317539,19.5258032516533
0.00508685653952619,19.529499877718
0.00443201055902245,19.5335019092275
0.00381222623274932,19.5378509811482
0.00323163398703975,19.5425966039595
0.00269403115830465,19.5477991824641
0.00220257092152797,19.5535359600535
0.00175960398016478,19.5599095197026
0.00137327771751742,19.566924148144
0.001049971383576,19.5744975004692
0.000793537495705737,19.5827460908566
0.000619181014278519,19.5907388231021
0.000477802449178045,19.5996231001438
0.000367694924248785,19.6092750250898
0.000288357268657674,19.6192750250898
0.000234588827813448,19.6292750250898
0.00019908615786772,19.6392750250898
0.000176495577709267,19.6492750250898
0.000162997096570764,19.6592750250898
0.000155959007453722,19.6692750250898
0.000153614459603834,19.6792750250898
0.00015479613761556,19.6892750250898
0.000158746126418175,19.6992750250898
0.000164991117907758,19.7092750250898
0.000173263674748282,19.7192750250898
0.000183453146842185,19.7292750250898
0.000195576008890935,19.7392750250898
0.000209760302525841,19.7492750250898
0.000226241829648591,19.7592750250898
0.000245371543594914,19.7692750250898
0.000267635091072928,19.7792750250898
0.000293687278904583,19.7892750250898
0.000324406888194729,19.7992750250898
0.000360981463244964,19.8092750250898
0.000405038813733645,19.8192750250898
0.000457599907336855,19.8290595536167
0.000517330080646418,19.8381244962458
0.000584993570926094,19.846503671824
0.00066161290741319,19.8542482084836
0.000748382072573895,19.861406391225
0.000846662876262383,19.8680231576763
0.000957998938702467,19.8741403416293
0.00108413775564561,19.8797969064478
0.00122705792582463,19.885029137259
0.001388999636381,19.8898708135452
0.00157249927327708,19.8943533867266
0.00178043081833849,19.8985061561745
0.00201605433990436,19.902356429764
0.00228307268303667,19.9059296684138
0.00258570294721229,19.9092496409079
0.00292876347517564,19.9123385878906
0.0033177860743798,19.91521738254
0.00375916045855009,19.9179057042805
0.00426032799638059,19.9204222427781
0.00483005036268621,19.9227849370426
0.00547879303554669,19.9250112801071
0.00620954028000672,19.9270933680776
0.00701513370082662,19.9290116027439
0.00790531171292619,19.9307976269808
0.0088945583573733,19.9324828183481
0.010005070829398,19.9341002092136
0.0112751588278926,19.9356913860886
0.0128350032992637,19.9373764066499
0.0150327889639263,19.9394124379955
0.0167443133242463,19.9408208048672
0.0185782963651285,19.9422291717388
0.0202882590245502,19.9435000741998
0.0218042993967599,19.9446360485944
0.0231673486649125,19.9457083923021
0.024384775490341,19.9467618361213
0.0254427890333857,19.9478335814376
0.0263093577548608,19.9489685127607
0.0269215717891061,19.9502445344581
0.0271133892012846,19.9518879118316
0.0266590059991987,19.9535575655189
0.0256629582163213,19.9552272192062
0.0245119162715889,19.9566311699126
0.0232090578573244,19.9579934925876
0.0217532434125607,19.9593928730764
0.0201528610292557,19.9608706373613
0.0184132288786215,19.9624664188247
0.0165600881788955,19.9642334496534
0.0150009918894496,19.965839922781
0.0128318694545956,19.9683182474708
0.0109840519063511,19.9707274874564
0.00939893446732046,19.973095569721
0.00800675131816557,19.9754906554391
0.00676369525910685,19.9779725980476
0.00567855137252126,19.9805075197814
0.00491409289643967,19.9825765772945
0.00424535114357817,19.9846456348076
0.00373163503055871,19.9864497824597
0.00330444665260465,19.9881327989262
0.00292248683544014,19.9898153763358
0.00256071442878438,19.9916048639045
0.00219331746159575,19.9936737406768
0.00175792168392659,19.9965743603152
0.00134455247099556,20
