ecg,time
0.00027757467239179,15.0053835860722
0.000282462133314952,15.0153835860722
0.000294408256015821,15.0253835860722
0.000312762616446033,15.0353835860722
0.000337482429634651,15.0453835860722
0.000369087681562666,15.0553835860722
0.000408703949114274,15.0653835860722
0.000457537455661811,15.075259418678
0.0005138928427346,15.0844117458924
0.000578330766245109,15.0928715800196
0.000651771708913987,15.1006907430604
0.000735362607872782,15.1079181443895
0.000830447020763931,15.1145992163825
0.000938565828211679,15.1207761963064
0.0010614734267493,15.1264883874421
0.00120116153489723,15.1317723802793
0.00135988815622944,15.136662246614
0.00154021116376407,15.1411897211967
0.00174502897719714,15.1453843741346
0.00197762842588064,15.1492737732947
0.00224174286186395,15.1528836391837
0.00254162362176053,15.1562380007643
0.00288212894713858,15.1593593562511
0.0032688381162399,15.162268839931
0.00370819978748969,15.1649864032081
0.00420773175637975,15.1675310231069
0.0047762985521087,15.1699209541056
0.00542451140392227,15.1721740540181
0.00615482299362697,15.1742805869073
0.00696104719076229,15.1762234754647
0.00785346592652202,15.1780352494993
0.00884750697140455,15.1797485008838
0.00996730286493509,15.1813984203896
0.0112558668228464,15.1830313211046
0.0128638532482111,15.1847871928122
0.0152697044729007,15.1870321860624
0.0169289615155977,15.1884140174222
0.0186840302000144,15.1897958487819
0.0202868097344358,15.1910338110738
0.021717699747638,15.1921626432655
0.023002997794355,15.1932424957966
0.0241418589525627,15.1943143101203
0.0251151290755391,15.1954163722783
0.0258838457793894,15.1966000070795
0.0263684097753224,15.19796577664
0.0263030699335991,15.1998971432667
0.0256837292559342,15.2014255839176
0.0246653802485484,15.2029540245686
0.0234862723223035,15.204340565394
0.0221530019182822,15.2057182420084
0.020673200196974,15.2071433769345
0.0190558341513112,15.2086541982815
0.0178205352827913,15.2098060405383
0.0166160454299434,15.2109578827952
0.0153532866171472,15.2122326805151
0.01279247336749,15.2150937212902
0.0105321802296764,15.2180375043359
0.00876922243024752,15.2207282638763
0.00736031518054697,15.2232325542853
0.00614956702653974,15.2257345621183
0.0050889056414635,15.2282939304413
0.00415708207694248,15.230935324598
0.00333777335461327,15.2336817636472
0.00261830667063665,15.2365538169974
0.00204847551028281,15.239256621351
0.00158607565513025,15.2418332952076
0.0011996793778668,15.2443405680565
0.000869090801828011,15.2468226211724
0.000582651147618028,15.2492981466987
0.000332292149341449,15.2517761103304
0.000107256666153441,15.2543164367598
-0.000111947198218491,15.2571431551291
-0.00027274347125404,15.259483119583
-0.000417964605942379,15.261823084037
-0.000529606226543653,15.263786592863
-0.000622155074925444,15.2655330091734
-0.000706517564230456,15.2672251157781
-0.000788651438411182,15.2689691733685
-0.000874248455028159,15.2708926363555
-0.000974007100594483,15.2732757107411
-0.00115120736302947,15.2778966219202
-0.00129882557226975,15.2821489069099
-0.00141365645594256,15.2857382676397
-0.00152664322483635,15.2895570781136
-0.0016559758235436,15.2944265676406
-0.00177155622372632,15.299770147334
-0.00183454392049466,15.3044523889394
-0.00183952991160606,15.3086523363633
-0.0017779382331248,15.3124189442553
-0.00164156088104695,15.3158377388753
-0.00142092759361465,15.3189919717245
-0.00110693385304347,15.3219289594089
-0.000692146071219369,15.324677193636
-0.000166659975630617,15.3272784930003
0.000489785958748763,15.3298003042062
0.00131621221273501,15.3323328338984
0.00239615014406053,15.3350237321645
0.00386536563602153,15.3380383633921
0.00567059136343399,15.3411389252026
0.00708258370886668,15.3432480271533
0.00867052479569519,15.345357129104
0.0102519240206669,15.3472160412778
0.0119195414380431,15.3489482233627
0.0136692018964725,15.3505469407071
0.0155721990390294,15.3520698040618
0.0176731316511365,15.3535347831737
0.0199819339400636,15.3549321283195
0.0225525852505383,15.3562789741719
0.0254173350656756,15.3575754885458
0.0286153638460979,15.3588241290966
0.0321943002639722,15.3600287907733
0.0362027894185952,15.3611915801788
0.0406989873864253,15.3623155736739
0.0457530411095629,15.3634045428628
0.051445381115797,15.3644618979526
0.0578720103906944,15.3654913157824
0.0651471504395907,15.3664965505448
0.0734145898585224,15.3674822698781
0.0828514389233615,15.3684534192732
0.0936830847869179,15.3694157635084
0.106204307029336,15.3703763226142
0.120813966358729,15.3713440733449
0.138080868452734,15.372331452251
0.158514742280604,15.3733406991369
0.182212215865165,15.3743556039118
0.209836536640765,15.3753886094265
0.242307818402379,15.3764579884503
0.28106455723728,15.3775951320223
0.324185270115531,15.3787475878883
0.361437716550349,15.3796927728467
0.393212408072025,15.3804935352183
0.420972047820509,15.381216990922
0.445192671928215,15.3818987880736
0.465848343591364,15.3825628417021
0.482557573616846,15.3832300047672
0.494509881714054,15.383923293328
0.500147754321284,15.3846749702948
0.496608227385786,15.3855017291089
0.481979662579538,15.3863439908624
0.455001267803396,15.3872160831877
0.414119205214382,15.3881285019825
0.357630139888541,15.3890912227623
0.316891935965677,15.3896815462064
0.2723970355896,15.3902718696504
0.232371945052764,15.3907756859683
0.197497929145673,15.3912063419902
0.166519674934132,15.3915909947096
0.13858112704172,15.3919465899316
0.113138032020861,15.3922840963623
0.0897972959402265,15.3926118406236
0.0682208425771356,15.392937598271
0.0480317468609738,15.3932710114504
0.0285863591867868,15.39363003583
0.00744699529153842,15.3940845479068
-0.00100877254447021,15.3942938805265
-0.00869394243769925,15.3945032131463
-0.0150139118577112,15.3946926529486
-0.0209019579075671,15.3948869597029
-0.0267707919404641,15.3951024778692
-0.0323956998410002,15.3953358161309
-0.0376365120429257,15.3955850247148
-0.0424165605825174,15.3958495051152
-0.0466969163536852,15.3961295576402
-0.0507018485296682,15.3964483414963
-0.053859424801004,15.3967616998682
-0.056497537487569,15.3970946455625
-0.0586311442172058,15.3974500512924
-0.0602736094936576,15.3978310407804
-0.0614387977112192,15.3982414526875
-0.0621395790440387,15.398686030294
-0.0623863319256244,15.3991706955882
-0.0621852560264472,15.399702961789
-0.0615354780952499,15.4002930835396
-0.0604239888913885,15.4009554072431
-0.0588216790373879,15.4017092450144
-0.0566703120370506,15.4025843256005
-0.0538470437666684,15.4036336551452
-0.0500163992237674,15.4049868364034
-0.0460484117465857,15.4063629433326
-0.04223495975078,15.4076937710378
-0.0386149279746303,15.4089833716171
-0.0352069132046898,15.4102338097841
-0.0320197240934752,15.4114458616173
-0.0290561337179073,15.4126196483814
-0.0263146960939888,15.4137549744345
-0.0237908109166896,15.4148515044212
-0.0214774689791406,15.4159088530084
-0.0193658463008289,15.4169266247255
-0.0174458120653037,15.4179044236716
-0.0157063740381501,15.4188418438021
-0.0141110001510031,15.4197532021785
-0.0125731702941106,15.4206877093519
-0.0110977918792989,15.4216466662226
-0.00968885395805516,15.4226320848936
-0.00835016564161552,15.4236463167179
-0.00708530102535115,15.4246921391475
-0.00589754780007535,15.425772864766
-0.00478985330876423,15.4268924871268
-0.00376476803420591,15.4280558801391
-0.00282438604394452,15.4292690778017
-0.00197028125539368,15.4305396788254
-0.00120343720913318,15.4318774537189
-0.000524165855435884,15.4332952973448
6.79935422250241e-05,15.434810809911
0.000569124233539399,15.4364296534899
0.000965204704360037,15.4380899971242
0.00127346639114555,15.4398102145542
0.00150890714072908,15.4416100326952
0.00168557037164399,15.4435154776061
0.00181694387942012,15.445562761662
0.00191655230984659,15.4478062072819
0.00199902605973698,15.4503366053143
0.00208281844525812,15.4533354884666
0.00219353608223795,15.4570716871684
0.00233042332599913,15.4609498699033
0.00249099480969207,15.4648085093379
0.00266814104506382,15.4686015995713
0.0028585850278728,15.4723948029511
0.00305998136387861,15.4762355940881
0.00327134212719642,15.4801615411303
0.00349302861840738,15.4842054764438
0.00372658116719915,15.4883983922289
0.00397452371336482,15.492771274582
0.00424021665986268,15.4973565114163
0.00452783890596034,15.5021893117135
0.00484258014786774,15.5073090565526
0.005191149493823,15.5127605688364
0.00554534990478856,15.5180456716516
0.00591586265697577,15.5232929413143
0.00630166431029417,15.5284422911648
0.00670735994473921,15.5335115511619
0.00713689353984255,15.5385035250192
0.00759510870393399,15.5434269876138
0.00808707589926997,15.5482872533882
0.0086182990640794,15.5530878842447
0.00919474436789844,15.5578301927105
0.00982296545654536,15.5625137779759
0.0105102434796129,15.5671371565025
0.0112813326159734,15.5717937553114
0.0121506914021543,15.5764780366232
0.0131398865540924,15.5812056831956
0.0142790209538247,15.586007475964
0.0156170482568585,15.5909562082755
0.0172541904771699,15.5962430802917
0.0195294097190422,15.6026156242981
0.021212767609913,15.6068651144063
0.0229777748075755,15.6111146045144
0.0244893878818371,15.6147606548925
0.0257556797714027,15.6179955848908
0.0268142156969003,15.6210462654846
0.0276467308199646,15.6239994829425
0.0282113675424914,15.6268281210051
0.0285064455101482,15.6296531871453
0.0285009590396222,15.6326316826136
0.0280825545200695,15.6361018839645
0.0272949769868176,15.6394379784821
0.026190222486162,15.6427740729997
0.0250967723258873,15.6455161169878
0.0240214903882209,15.6479540322442
0.0229474604927797,15.6502489103945
0.0218730892634543,15.6524672811791
0.0208011831914401,15.6546440530666
0.0197354010227871,15.6568014036855
0.0186794078755178,15.6589551187183
0.0176366549413015,15.6611173349418
0.0166103214284462,15.6632979582311
0.0156033080010952,15.6655054810473
0.0146182424729306,15.6677475042285
0.0136574919295382,15.670031088282
0.0127231752706556,15.6723630088222
0.0118171699464273,15.6747499690667
0.0109411262355967,15.6771987602134
0.0100964730485855,15.6797164258549
0.00928442982538625,15.6823104047543
0.00850601330132979,15.6849886928641
0.00774259549951256,15.6878356233702
0.00699534172492517,15.6908799731986
0.00626804494630812,15.6941456827073
0.005564672455897,15.697660537265
0.00488936616030619,15.7014567270886
0.00424637584894965,15.7055717518731
0.00363994906585519,15.7100497168812
0.00307415869700077,15.7149434474552
0.00255264670334337,15.7203184168285
0.00207836004307152,15.7262594986867
0.0016534520277973,15.7328805915566
0.00129097622295867,15.7400750823555
0.00099694789582573,15.7478636581995
0.000797367941377698,15.755359469314
0.000637582649039773,15.7635449493152
0.000506370716947328,15.7728440862709
0.000409353937949247,15.7828440862709
0.000345932772090312,15.7928440862709
0.000306955815852945,15.8028440862709
0.000285817903586255,15.8128440862709
0.000277893560115265,15.8228440862709
0.000280137716877896,15.8328440862709
0.000290723851593412,15.8428440862709
0.000308754312428998,15.8528440862709
0.000334077180830805,15.8628440862709
0.000367215628359236,15.8728440862709
0.000409407639011541,15.8828440862709
0.000461485165286341,15.8926241563616
0.000521900106721468,15.9016703866331
0.000591282401856492,15.9100198788761
0.000670643846855424,15.9177269371746
0.000761242211889358,15.9248423625615
0.000864553033525495,15.9314130952197
0.000982272261549848,15.9374825763107
0.00111633407733683,15.9430910696252
0.00126893713794462,15.9482759306836
0.00144257686897544,15.9530718422456
0.00164008418169831,15.957511031121
0.00186467252832933,15.961623471273
0.00211999494693397,15.9654370729275
0.00241021376955354,15.9689778638759
0.00274008883268807,15.9722701734786
0.00311508946025132,15.9753368245529
0.00354154176272486,15.9781993374942
0.00402682679615653,15.9808781620757
0.00457965666218847,15.9833929588091
0.00521047514455804,15.9857629624365
0.00592631569439205,15.9879911712956
0.00671814795216189,15.990046353837
0.00759660429790664,15.9919637892578
0.0085780440340389,15.9937796128125
0.00968872088770826,15.995533897525
0.0109774275585512,15.9972821672964
0.0126060679056612,15.9991836058533
0.0145500469139484,16.0011546241552
0.0161410112347047,16.002615078893
0.0178210998049826,16.0040755336308
0.0193259568564007,16.0053625481728
0.0206664331322619,16.0065375929479
0.0218667635162858,16.0076629096813
0.0229244642810649,16.0087802690336
0.0238197815452761,16.0099291006032
0.0245135415047345,16.0111625884496
0.0249256822731497,16.0125855185813
0.0247839674608656,16.0146032731277
0.0241399137440761,16.0161684046861
0.0231243476757303,16.0177335362445
0.0219626777170717,16.0191558072977
0.0206604948542177,16.020565339032
0.0192256398279553,16.0220179221961
0.0176674179582322,16.0235512047454
0.016692859337393,16.0245085297606
0.0157398069725579,16.0254658547758
0.0144216552722661,16.0268626443718
0.0119935053778079,16.0297189458028
0.00990373276739249,16.0325777745945
0.00825275947254614,16.0352123262207
0.00690844749127763,16.0377026039933
0.00573490222722476,16.0402268291243
0.00470349867635827,16.0428163917859
0.00379497214634926,16.0454948142831
0.00300069980354084,16.0482595935423
0.00236751195250836,16.0508536514309
0.00185405164178734,16.0533011474564
0.00142858921957386,16.0556366906637
0.00106817168972248,16.0578956893246
0.000756326116548061,16.0601119088365
0.000480853981657877,16.0623195825267
0.000231106601730569,16.0645680390289
-6.92411863359727e-06,16.0669740640114
-0.00027546675427994,16.0700586072526
-0.000417057913024603,16.0718690621999
-0.000548656915002201,16.0736795171471
-0.00066084149286856,16.0753274151906
-0.000761193568136487,16.076887665874
-0.000857215995476939,16.0784598721823
-0.000955087204349786,16.0801443669021
-0.00106381715112447,16.0821144556386
-0.00121373256677166,16.0850014255772
-0.00138118031533495,16.0884556423544
-0.00151487184437068,16.0913822053733
-0.00164119043415023,16.0942805157963
-0.00178036281166976,16.0976223951363
-0.00195010492183954,16.101923018498
-0.00216254217056335,16.1077912651846
-0.00231587702740779,16.1128766379351
-0.00240905312847357,16.1174578394099
-0.00243041451056137,16.1215458736655
-0.00237187772172629,16.1252020738639
-0.00222758592313094,16.1285011664612
-0.00199232430154732,16.1315161011731
-0.00165976827626525,16.1343136863848
-0.00122148954319468,16.136950350432
-0.000661340253017176,16.1394955043936
6.24207903625575e-05,16.1420728416847
0.00105272757998944,16.1449050829533
0.00234141026284701,16.147955044082
0.003881376249864,16.1511057037322
0.00562825096003809,16.1543008725491
0.00681558863376344,16.1562864183938
0.00810675078484698,16.1582719642384
0.00944036419217761,16.1601272366843
0.0108065512282232,16.1618257111764
0.0122878829144274,16.1634548672081
0.0139092071562975,16.1650173169452
0.0157059261198377,16.1665239599946
0.017708530995794,16.1679778018615
0.0199464594993264,16.1693796981668
0.022445088283678,16.1707277361527
0.0252415412491577,16.1720259971753
0.0283710801024338,16.1732757858676
0.0318704724119066,16.1744780612297
0.0357912155918242,16.1756373453884
0.0401882401540955,16.1767566817044
0.0451257588658094,16.1778393270431
0.0506795082975237,16.1788887208442
0.0569377621362705,16.1799081964577
0.0640098322934239,16.1809018307808
0.0720263951514605,16.1818736530967
0.0811478737854023,16.1828280476715
0.0915745501647805,16.1837699308303
0.103561213651541,16.1847049809588
0.117441597075383,16.1856401296626
0.133666172936402,16.186584169527
0.152871865843834,16.1875490617705
0.175465473923806,16.1885301551167
0.201658517848784,16.1895174915108
0.232168502209262,16.1905226801328
0.267984325700141,16.1915629719132
0.310681137007788,16.1926697205399
0.34653538236185,16.1935267998275
0.383971566172689,16.1943838791151
0.417182698213811,16.1951389085556
0.446173561177909,16.1958203777948
0.471500738380266,16.1964636808356
0.493200832573441,16.197093734481
0.510888170756326,16.1977327366712
0.523667887271971,16.1984069915537
0.529669600350931,16.1991585719723
0.525658647624414,16.1999631349803
0.509993488381897,16.2007915349726
0.481238962563021,16.2016596223394
0.43756235108046,16.2025786935639
0.376967838036426,16.203557204434
0.333125973776766,16.2041599333418
0.2852303288429,16.2047626622496
0.24253207262965,16.205272429424
0.205724311967253,16.2057037252471
0.173265913475296,16.2060863749346
0.144130167727462,16.2064386536114
0.117682315696977,16.2067721051621
0.0934760543743351,16.2070953130468
0.0711374592746888,16.2074161611966
0.0502602879007521,16.2077443092776
0.030164899713231,16.2080976377721
0.00829173969564102,16.2085459417506
-0.00038277864599673,16.2087508080446
-0.00826688760863127,16.2089556743386
-0.0146881009680272,16.2091391954797
-0.020682064275878,16.20932759987
-0.0266759825593008,16.2095370320178
-0.0324347795423955,16.2097640899575
-0.0378110773690045,16.2100067978726
-0.0427237124628391,16.2102645200708
-0.0471310704931992,16.210537514851
-0.0510147443655472,16.2108266897394
-0.0546029392266586,16.2111587013021
-0.0573513957461981,16.2114841397464
-0.0595838498928885,16.2118312034997
-0.0613175131101328,16.2122033130121
-0.0625668405910121,16.2126042458841
-0.0633453434750947,16.2130386722878
-0.063664077405705,16.213512432658
-0.0635299081201778,16.2140329499707
-0.0629428756665886,16.2146101670336
-0.0618905931390435,16.2152584172397
-0.0603441955669368,16.2159968466557
-0.05824522042214,16.2168549735206
-0.0554695720118317,16.217885515916
-0.0516770857737073,16.2192177318364
-0.0476356097739313,16.2206065877228
-0.043737785581977,16.2219509742412
-0.0400272718191864,16.2232549391639
-0.0365253649591217,16.2245204858992
-0.0332427834210277,16.2257483104543
-0.0301838384901293,16.2269384493103
-0.0273483795191893,16.2280906252315
-0.0247328942014764,16.2292044290246
-0.022331261814342,16.230279412299
-0.0201353505337945,16.2313151296756
-0.0181355319610585,16.2323111505871
-0.0163211381016411,16.2332670515712
-0.0146808677787409,16.2341823950482
-0.0131227211453157,16.2351058254585
-0.0116250310522101,16.2360530109632
-0.010192078332876,16.2370256982105
-0.00882776844109149,16.2380260686141
-0.00753579990391179,16.2390566875833
-0.00631961273593763,16.2401206013926
-0.00518233620258697,16.2412214641867
-0.00412673436115594,16.242363709808
-0.00315514924640531,16.2435527898869
-0.00226944111465794,16.2447955131765
-0.00147092440152804,16.2461005456721
-0.000760296704979238,16.2474791782713
-0.00013755553423538,16.2489465659494
0.000398107849981677,16.250523860842
0.000830260628149463,16.2521624350253
0.00116675839848925,16.2538523259933
0.00142329903787155,16.2556119755431
0.00161419049944729,16.2574641208257
0.00175293658679188,16.2594395402236
0.00185269094808167,16.2615826819713
0.00192696856664972,16.263963778356
0.00199113277763766,16.2667102632565
0.00206718753664175,16.2701214268882
0.00216665975990278,16.2738824421301
0.00230249158100083,16.2780034800763
0.00247249591589486,16.2823470949831
0.00264591300112733,16.286335771099
0.00282225558092767,16.2901680799803
0.00300184164350008,16.2939490518471
0.00318557690225909,16.2977413354253
0.00337500672828839,16.3015896519941
0.00357222291240267,16.3055302657646
0.00377976356252861,16.3095954166827
0.00400055255284086,16.3138159574904
0.00423788711343376,16.3182231022609
0.00449550106797105,16.3228498031632
0.0047777644245561,16.3277322155899
0.00509007843115362,16.3329109930877
0.00543275970620085,16.3383263199939
0.0057842886131013,16.3435879901398
0.00615370062180616,16.348801515012
0.00654078097041369,16.3539196559047
0.00695007101311788,16.3589590970338
0.00738565567401064,16.3639236406359
0.00785243700756978,16.3688212500875
0.00835561442036965,16.3736567122758
0.00890085410707414,16.378432909357
0.00949433653547966,16.3831505812706
0.0101428840361408,16.3878089135036
0.0108600367663662,16.3924427110554
0.0116674550471036,16.3971105088938
0.0125815808188621,16.4018107067422
0.0136270012284938,16.406564295425
0.0148398691516594,16.4114152192022
0.0162839334238522,16.4164703313888
0.0181121511361217,16.4220425455819
0.0205296843674864,16.4284707437355
0.0220908545149738,16.4322918888809
0.0236875850149035,16.4361130340263
0.0250802615839965,16.4395333536091
0.0262550507139693,16.4426674863482
0.0272247125552847,16.4456860619277
0.0279408036697721,16.4485711705179
0.0283908617702888,16.4513825018026
0.0285630229622646,16.454249796643
0.0284035371466035,16.4573735500557
0.0276875264097338,16.4613816196344
0.0268415374399971,16.4643163581004
0.0257756173607476,16.4672510965664
0.0246981168103995,16.4698315137664
0.023624447665442,16.4722018381137
0.0225500101184589,16.4744619234083
0.0214760816547884,16.4766612787157
0.020406005875817,16.4788286650612
0.0193434903575747,16.4809833305559
0.018292128057699,16.4831394372263
0.0172552664444286,16.4853081476603
0.0162359750870314,16.4874987616463
0.0152370461600873,16.4897193969116
0.0142610049257359,16.4919774310368
0.0133101190571888,16.4942798178812
0.0123864122995302,16.4966333165182
0.0114916735452095,16.499044684002
0.0106274636468112,16.5015208491938
0.00979513199121647,16.5040690472926
0.00899581769581774,16.506696996917
0.00822481477263276,16.509433919983
0.00746762911900063,16.5123559962356
0.00672813587004854,16.5154844951087
0.00601018435134673,16.5188449142408
0.00531782337108493,16.5224667500693
0.004655259611046,16.5263842504716
0.00402677468392841,16.5306374703459
0.00343659344585361,16.535273859495
0.0028886882726462,16.5403509431613
0.00238649581719981,16.5459414713502
0.00193271211074973,16.5521415135667
0.00153213006230637,16.5590265299217
0.00129006188306869,16.5641857636227
0.00109727763737914,16.5693449973236
0.000901945200821541,16.5762770262495
0.000731541046610879,16.5844800511877
0.000597985919366885,16.5934662073827
0.00049776863718464,16.6034662073827
0.000435907768947352,16.6134662073827
0.000402632063242273,16.6234662073827
0.000391097618013907,16.6334662073827
0.000396807169103548,16.6434662073827
0.00041724151029432,16.6534662073827
0.000451573854332401,16.6634662073827
0.000500532867701395,16.6734662073827
0.000561225411964453,16.6827455157151
0.000633134304524252,16.6912967687684
0.00071673918187612,16.6991775679965
0.00081304506024905,16.7064430485529
0.000923432736685455,16.7131438441338
0.00104960071375077,16.7193265385564
0.00119355316779189,16.7250341062735
0.00135761163237621,16.7303062703804
0.00154444186525151,16.7351798020531
0.00175709139153145,16.7396887921452
0.00199904120962799,16.7438649026033
0.00227427021153758,16.7477375993665
0.00258733842152975,16.7513343728021
0.00294349458003451,16.7546809651696
0.00334881772629444,16.7578016157987
0.00381041029363256,16.7607193325895
0.004336667098248,16.7634562176149
0.0049376687288383,16.7660338931624
0.00562578481008269,16.7684741027252
0.00639248707148094,16.7707346056742
0.00724603137136253,16.7728446069885
0.00820412435571007,16.774846819359
0.00929650611365942,16.7767909615258
0.01058248678247,16.7787520469812
0.0122516803307563,16.7809373026515
0.0138075782366474,16.7827326157786
0.0155024134299585,16.7845279289057
0.0170080191663735,16.7860547878739
0.0183136781416506,16.7873810102059
0.0194763200940674,16.7886141500193
0.0205077142916724,16.7898104884771
0.0213980635509519,16.7910110018357
0.0221221345764648,16.7922594635478
0.0226323197790726,16.7936221810555
0.0228221795445251,16.7952517193906
0.0224511767878834,16.7972135160339
0.0215099077661426,16.7991753126771
0.0204371828099072,16.800747860127
0.0192575454196735,16.8022155196035
0.0179624974188654,16.8036883596505
0.0165597268421535,16.8052126857979
0.0150574394426997,16.8068244517578
0.0138902555698248,16.8081225562614
0.0116870013742563,16.8108186990438
0.00969379266460717,16.8136293450905
0.00809393802398164,16.8162469137977
0.0067697980262962,16.8187539992349
0.00560959436352284,16.8212999130743
0.00458701445224607,16.8239146652241
0.00370754617269589,16.8265446286618
0.0029866776819583,16.8290581749599
0.00238482910913953,16.8314877980275
0.00186975189437486,16.8338820153168
0.00141299645792128,16.8363204699938
0.000979642597852378,16.8389876843838
0.000623273121522771,16.8415106695293
0.000372259614220153,16.8435091150667
0.00014492571764883,16.8455075606042
-4.10936218567911e-05,16.8472967447467
-0.000204229408398991,16.8489948128535
-0.000357483487787437,16.8507119308768
-0.000510826835005746,16.8525598144154
-0.000678220234682873,16.8547387297731
-0.000908926441157669,16.8580440059985
-0.00113777346260955,16.8617001095414
-0.0013143123245012,16.8647971709298
-0.00147926887400852,16.8679212765135
-0.00165626334607702,16.8715381760738
-0.00186292110660978,16.8761647895055
-0.00207950731025634,16.881739682293
-0.00222516295701279,16.8865945595896
-0.00230156519803194,16.8910145389839
-0.00229827175458284,16.8950055305571
-0.00220785669589856,16.8986190553612
-0.0020252335169465,16.9019072815104
-0.00174640869775748,16.9049284980414
-0.00136497098015187,16.9077517774042
-0.000867450859021044,16.9104571272664
-0.000224015465524355,16.9131519007324
0.000644838813584394,16.9160434418151
0.00179154995044356,16.9191676422724
0.00327238418766803,16.9225924329302
0.00509521126282541,16.9262766949649
0.00624165554900587,16.9283638620804
0.00749522033270133,16.9304510291959
0.0087594004361495,16.9323486644348
0.0100865329290421,16.9341260563447
0.0115063323913231,16.9358058819308
0.0130582772219116,16.9374148932596
0.0147787287592188,16.9389675094743
0.0166888907832357,16.9404607195012
0.0188215436161039,16.9419003221609
0.0212034640257629,16.9432859809038
0.0238622329769703,16.9446176593816
0.0268357460721918,16.9458995061536
0.0301624141842228,16.947133784059
0.0338840227077959,16.9483225054655
0.0380550602162427,16.9494698709283
0.0427363733046719,16.9505792984104
0.047999304774217,16.9516542944682
0.0539285595152949,16.9526985332459
0.06062460679121,16.9537157314875
0.0682114112161745,16.9547101928585
0.0768402751242679,16.9556864389754
0.0867004686514706,16.9566495643911
0.0980340890376582,16.9576055359485
0.111159312005039,16.9585616455235
0.126511329015235,16.9595274058065
0.14471564840773,16.9605160550398
0.166108499525912,16.9615202594246
0.190935053331389,16.9625322788059
0.219907144655414,16.9635652334176
0.254025201634436,16.9646387740698
0.294882370072014,16.9657876117516
0.32938601868306,16.9666833412876
0.365391043560588,16.9675790708236
0.397489921659071,16.968371858991
0.42560114711908,16.9690889847872
0.45014110249517,16.9697642820192
0.47110545804021,16.9704220204881
0.488123849475595,16.9710833592713
0.500386051585732,16.9717717794753
0.506310656182013,16.9725207423077
0.502982645050209,16.9733430030529
0.488485910033894,16.9741818876285
0.46153838868614,16.9750520934637
0.420543036953442,16.975964308996
0.363749969867102,16.9769280673644
0.322256992340479,16.9775256434918
0.276844930374922,16.9781232196191
0.236072768369538,16.9786314920836
0.200657948519069,16.9790642160945
0.169265865632529,16.979449661962
0.140991997298551,16.9798053390561
0.115267087943437,16.9801424652717
0.0916843130992054,16.9804694693871
0.0698980216990957,16.9807941335543
0.0495290632110408,16.98112597633
0.0299444665891535,16.9814824054819
0.0088490124315908,16.9819285174659
-5.56090437431286e-06,16.9821439876904
-0.00803002368814325,16.9823594579149
-0.014412332690956,16.9825483487399
-0.0203199041611177,16.9827407712165
-0.0262198816748791,16.9829544777279
-0.0318831136942245,16.9831860466382
-0.0371655825427872,16.9834334743513
-0.0419882977175627,16.9836961232876
-0.0463109533096543,16.9839742635137
-0.050183049175976,16.9842753175428
-0.0534070099340023,16.9845853494271
-0.056111643350507,16.9849149180561
-0.0583092183484211,16.9852666194419
-0.0600130513994156,16.9856435085603
-0.061237152630222,16.9860493443247
-0.0619946837380798,16.9864887702917
-0.0622964570734751,16.98696757966
-0.0621492665909577,16.9874931133243
-0.0615533015204616,16.9880752164699
-0.0604968237649848,16.9887279645316
-0.0589525640084122,16.9894700298768
-0.0568656672917953,16.9903299167173
-0.05412141951752,16.9913576370787
-0.0504171380963109,16.9926708066027
-0.0464297518502304,16.9940541337293
-0.042588763617351,16.9953918326632
-0.0389371418387779,16.9966881624522
-0.0354953314049437,16.9979453506139
-0.0322732646247837,16.9991642472786
-0.0292745119453662,17.0003450013289
-0.026498241830085,17.0014874215051
-0.0239403412878816,17.0025911660388
-0.0215941844971238,17.0036558393908
-0.0194512387016345,17.0046810363075
-0.0175015804820397,17.0056663542714
-0.0157343490552412,17.0066113857413
-0.0141335888917891,17.0075183564789
-0.0125894216350972,17.0084482830051
-0.0111069892233741,17.0094023054744
-0.00969031384907743,17.0103823777304
-0.00834325010089996,17.0113907781448
-0.00706942886928791,17.0124301933495
-0.00587220675864827,17.0135038214965
-0.00475461304791698,17.0146155098533
-0.00371929429075026,17.0157699420671
-0.00276845625078265,17.0169728994944
-0.00190380233022811,17.0182316368149
-0.00112646669057141,17.019555441289
-0.000436938536102158,17.0209565020048
0.000165029372921988,17.022451335369
0.000680542345622735,17.0240632899947
0.0010877093341098,17.0257140992827
0.00140402057462635,17.0274215312802
0.00164463516753287,17.0292044059058
0.00182367691280312,17.0310873324733
0.0019546026734187,17.0331041450022
0.00205072986071028,17.0353047830951
0.00212612841502212,17.0377707094932
0.00219770546544858,17.0406579279164
0.00229323551782757,17.0443800048503
0.00241170377939814,17.0481935134016
0.00255395877279513,17.0519813334916
0.00271823387967517,17.0557959198327
0.00290089473963259,17.0596787961971
0.0030987283518507,17.0636647719624
0.00330987748318562,17.0677856234145
0.00353406025425857,17.0720723250838
0.00377247946218529,17.0765567131373
0.00402764566765091,17.0812728693976
0.00430327578079768,17.0862585734176
0.00460439761168746,17.0915565889635
0.00493216777061999,17.0971209870933
0.00526398515814027,17.1025090046632
0.00560950495979247,17.1078414141673
0.00596841824103521,17.113065884744
0.00634521161861447,17.1182040625269
0.00674357081421968,17.1232611755989
0.00716785784071051,17.1282474505136
0.00762254026285772,17.1331690932715
0.00811242536839747,17.138030409417
0.00864271093727156,17.142833433097
0.00921912148840892,17.1475785056153
0.00984802828232881,17.1522646469982
0.0105365883855653,17.1568901131181
0.0113095737960735,17.1615485889173
0.0121814959979275,17.166234781904
0.0131740437522326,17.1709647024174
0.0143176307309404,17.1757699561153
0.0156620008797564,17.1807253067805
0.017309964314411,17.186028148742
0.019618514164253,17.1924673082369
0.0212883235363581,17.1966689085637
0.0230353045655488,17.2008705088905
0.0245368163194946,17.2044956786961
0.0257961087652763,17.2077219303679
0.0268481086868744,17.2107695952727
0.0276721017878332,17.21371760995
0.0282284515557802,17.2165448167609
0.0285148012344942,17.2193725644062
0.0284988017641159,17.2223601158724
0.0280630081144354,17.2258584908516
0.0272712298536837,17.2291640883605
0.0261700816178661,17.2324696858694
0.0250778685197569,17.2352015021682
0.0240024820401639,17.2376362357907
0.0229281054166291,17.2399300959029
0.0218533702649113,17.2421484714249
0.0207811172027552,17.2443259252395
0.0197150038357471,17.2464844985332
0.0186586856005499,17.2486399243757
0.017615601814321,17.2508043313309
0.0165889191424329,17.2529876469793
0.0155815254237666,17.2551984099439
0.0145960363197697,17.2574442884746
0.0136348064385456,17.2597324350933
0.0126999437466673,17.2620697405468
0.011793315029861,17.2644630536541
0.0109165603840219,17.2669193475724
0.0100711013722932,17.2694458856639
0.00925815089102605,17.2720503799585
0.00847872233225509,17.2747411589602
0.00771594172054596,17.2775964224134
0.00696944170877218,17.2806502696426
0.00624304308772017,17.2839267661712
0.00554071742499266,17.2874539582884
0.00486661006753198,17.2912643673983
0.00422497222899087,17.2953959263152
0.00362005034102996,17.2998933216409
0.00305591288311658,17.3048101902737
0.00253618936688734,17.3102132486782
0.00206381220260117,17.3161893185271
0.00164092589773859,17.3228554506746
0.00138510092118086,17.3278082790331
0.00117955602881133,17.3327611073916
0.000973561590513107,17.3392506683706
0.000782211194863662,17.3472824339698
0.000630819823495251,17.355989095629
0.000510107612473154,17.3659706747178
0.0004316126295511,17.3759706747178
0.000384174583830942,17.3859706747178
0.000359581434595792,17.3959706747178
0.000352130484789276,17.4059706747178
0.000358152560983613,17.4159706747178
0.000375589696443533,17.4259706747178
0.000403671024240909,17.4359706747178
0.000442743343625794,17.4459706747178
0.000493453275851784,17.4558235324325
0.00055358063090736,17.4649392607314
0.000623300904813076,17.4733525627398
0.000703363364906243,17.4811182475983
0.000794872151969298,17.4882876085255
0.000899207181975409,17.4949079911111
0.00101800030488242,17.5010231847233
0.00115313989897134,17.5066737646394
0.00130679015715364,17.5118973711181
0.00148141935258911,17.5167289497011
0.0016798358273416,17.521200973328
0.00190523366998137,17.5253436498406
0.002161248622171,17.529185113087
0.00245202698648926,17.5327516036634
0.00278231350899216,17.5360676540629
0.00315756290260854,17.5391562828028
0.00358408724794145,17.5420391995899
0.0040692540545229,17.5447370388035
0.00462176274835741,17.5472696446314
0.00525204656631514,17.5496564397007
0.00596775115153692,17.5519022581948
0.00675944960554474,17.5539738292836
0.00763787177545897,17.5559068631202
0.00861958845997909,17.5577380751591
0.00973131393472529,17.5595083995632
0.0110230844702685,17.5612751263284
0.0126608633662555,17.5632026309128
0.014553923637404,17.565141668371
0.0161325943341125,17.5666091400664
0.0177981122806482,17.5680766117618
0.0192874825158378,17.5693689846711
0.0206142212080137,17.5705501447168
0.0218016745662504,17.5716820590032
0.0228469167207935,17.5728064938931
0.0237299554527516,17.5739631165138
0.0244113438470403,17.5752057113311
0.0248102382334949,17.5766409134061
0.0246472752257723,17.5786883569552
0.0239948910039803,17.5802538428613
0.0229792996554729,17.5818193287674
0.0218196590317808,17.583245870903
0.0205215150635364,17.5846605686396
0.0190929603362278,17.5861184045458
0.0175433584466197,17.5876568536383
0.016580442562842,17.5886117445169
0.0156406452642796,17.5895666353955
0.0137269686873644,17.5916536523218
0.0113325148164996,17.5946181827892
0.0094070405096991,17.5974027097033
0.0078798782404852,17.5999753088384
0.00660194630396808,17.6024747807205
0.00548381411964345,17.6050200331585
0.00450098804309171,17.6076389014509
0.0036358611722485,17.6103546303048
0.00290602094544289,17.6130617491012
0.00230802745085553,17.6156722585942
0.00180508564912377,17.6182408151362
0.00136534329370863,17.6208620490012
0.000951713452716453,17.6237563534679
0.000623416974440417,17.6264467828842
0.000394042238421172,17.6285926491878
0.000189143670834061,17.6307385154913
2.29546044014516e-05,17.6326684411808
-0.000121328256853612,17.6345048970464
-0.000255317547310377,17.6363640759468
-0.000387734698239748,17.6383668971446
-0.00053038830878951,17.6407338736505
-0.000725376815851711,17.6443758477823
-0.000905863835312223,17.6482430142533
-0.00104049417627565,17.6515002413079
-0.00116344068044986,17.6548089670286
-0.00128976908484539,17.6586256633513
-0.00142589756080197,17.663433542421
-0.00153920531571285,17.66864057114
-0.00159703606625664,17.6732656011704
-0.00159613836872243,17.6774747561542
-0.00152861336612454,17.6812901159316
-0.00138683248689245,17.6847602171628
-0.00116324541445896,17.6879385121419
-0.0008494180327028,17.6908831057925
-0.000433596106446159,17.6936590694075
0.000103732308068751,17.6963424215159
0.000795523333912313,17.699020511529
0.00170120790524388,17.7018097811908
0.0029435295599846,17.7049057013907
0.004491836442373,17.708088896043
0.00579489088061898,17.71039183074
0.00727440876370111,17.712694765437
0.00874514720600595,17.714708705557
0.010264598463996,17.7165413110634
0.0118571660978212,17.7182289061649
0.0135907759325882,17.7198367513491
0.0154775620894945,17.7213615126897
0.0175660098002882,17.7228269823329
0.0198790071685297,17.7242320877037
0.0224566127574994,17.725584990188
0.0253302064228738,17.7268863306511
0.0285412979002335,17.7281400707978
0.0321348801633316,17.7293492861702
0.0361593552778875,17.7305162851441
0.0406752686702419,17.7316448913075
0.045752246144149,17.7327386585624
0.0514719356931874,17.7338011622634
0.0579316621080793,17.7348361649692
0.0652496543701634,17.7358478015682
0.0735728566298458,17.7368408174257
0.0830844552953153,17.7378204480068
0.0940196478199805,17.7387928887728
0.106689748069542,17.7397658299865
0.121523440568022,17.7407493772666
0.139148370533675,17.7417580514026
0.159814516878898,17.7427804274585
0.183822746758664,17.7438124116777
0.211892724904747,17.7448687010378
0.245061723893105,17.7459718331768
0.284069694301749,17.7471350028766
0.324937283822994,17.7482585425272
0.35939271780456,17.7491704455304
0.389248844078092,17.749964355437
0.415451437888076,17.7506928276604
0.438216407875913,17.7513853453615
0.457390991802296,17.7520636147156
0.472501151108206,17.7527476551981
0.482637626167086,17.7534601752553
0.486108280116599,17.7542330793138
0.480112138354412,17.7550716472286
0.463033953836605,17.7559257058393
0.433611233428429,17.756808112206
0.390361838395521,17.7577287053552
0.347856949540319,17.7584517550419
0.298689628133659,17.7591748047286
0.25469344101243,17.7597647203888
0.217254679179206,17.7602451787443
0.184472197220357,17.7606610311934
0.155127390640951,17.7610374420588
0.128524068053679,17.7613888796468
0.104207983515682,17.7617251018563
0.0818320634620607,17.7620539903488
0.0610742775733863,17.7623835129956
0.0415321273437172,17.7627246624441
0.0223828737003922,17.7631014018118
0.00751181114953433,17.7634365220474
-0.00071029723809598,17.7636443053323
-0.00819847029770253,17.7638520886171
-0.0145338429195179,17.7640453801959
-0.0203529277854966,17.7642408174349
-0.0261666692305978,17.7644579339223
-0.0317478133833111,17.7646932220755
-0.0369530405611209,17.7649446025183
-0.0417039088088139,17.765211403676
-0.0459589290403659,17.7654938843825
-0.0500221306120691,17.7658228701357
-0.0531486951061535,17.7661393048482
-0.0557586008969753,17.7664753194327
-0.0578676669670938,17.7668338952441
-0.0594889809598869,17.7672181531911
-0.0606361397976335,17.7676319231653
-0.0613217879527244,17.7680799315687
-0.061556149083011,17.7685680698624
-0.0613453831745655,17.7691037977253
-0.0606887120500493,17.7696973140297
-0.0595735722444259,17.7703627900732
-0.0579719269180792,17.7711192265735
-0.0558279458320241,17.7719956838445
-0.0530250125192493,17.7730433780342
-0.0492525147619053,17.7743841613875
-0.0453211281268957,17.7757563369946
-0.0415459999314795,17.7770825162681
-0.037965513785862,17.7783668632419
-0.034597668499936,17.7796115811893
-0.0314507382136413,17.7808175440563
-0.0285270069611883,17.7819849456359
-0.0258245900276303,17.7831136461553
-0.0233385086134745,17.7842033539768
-0.0210614428099922,17.7852537176194
-0.0189843291230479,17.7862643666535
-0.0170968678742469,17.7872349217587
-0.0153879648984717,17.788164984925
-0.0138013808972038,17.7890807224478
-0.0122732729204945,17.7900197981645
-0.010808327769588,17.7909836704391
-0.00941050450751547,17.7919744111517
-0.00808357013050085,17.7929944461856
-0.00683104560385546,17.7940466456117
-0.00565615385948506,17.7951344387215
-0.00456176515397034,17.7962619684648
-0.0035503396611062,17.7974343035395
-0.00262386666679598,17.7986577375314
-0.00178379895419009,17.7999402243586
-0.00103097957065594,17.8012920366525
-0.000365555531876868,17.8027268087243
0.000213132405756908,17.8042632888987
0.000696356772179747,17.805888744642
0.00107803268210279,17.8075590569292
0.00137490358541003,17.8092925435954
0.00160181856056488,17.8111099128711
0.00177275270114831,17.8130387122451
0.00190124575893551,17.8151177460656
0.00200107235823886,17.8174062189457
0.00208753074913152,17.8200056946032
0.0021810089436465,17.8231293183019
0.00230279402565266,17.8268639970549
0.00245080501967479,17.8306961980441
0.00262603747517774,17.8345990510445
0.00282601214406957,17.838606824235
0.00304684380291608,17.8427513829511
0.00328540581118808,17.8470639008056
0.00354028727692888,17.8515763302758
0.00381206269147929,17.8563229990169
0.00410327075574316,17.8613419871845
0.00441840766815413,17.8666763898646
0.0047566333794937,17.8722517597659
0.00509683276695677,17.8776583744014
0.0054485338864891,17.8830043614472
0.00581196858249788,17.8882424618431
0.00619174212714404,17.8933933042616
0.00659167112827022,17.8984628645057
0.0070161274027912,17.9034612339859
0.00746956787313855,17.9083947950337
0.00795674612146871,17.9132679126107
0.00848278518778803,17.9180827606149
0.0090533137649464,17.92283985003
0.0096745849296126,17.927538353562
0.0103536069277341,17.9321765756234
0.0111109354913672,17.9368264363519
0.0119638737844551,17.9415060694304
0.0129321541961933,17.9462249982269
0.0140439498618457,17.9510105153331
0.0153436022807001,17.9559249809957
0.0169173537382444,17.9611271824739
0.0190210570880624,17.9671705760827
0.0207953926623027,17.9717343850368
0.0226800521091835,17.9762981939908
0.0242497396082267,17.980067578945
0.0255529012615999,17.9833520897828
0.0266448144039086,17.9864217888678
0.0275215270228446,17.9894074292412
0.0281285343068054,17.9922489314448
0.0284675461046165,17.9950662870721
0.028513895265262,17.9980069147957
0.028177030732347,18.0013557331523
0.027167928541546,18.0057050837499
0.0262711434060287,18.008395166392
0.0252127496136108,18.0110852490341
0.0241401187320106,18.013540365059
0.0230662472425032,18.0158482898903
0.0219915706165414,18.0180746101518
0.0209188642297604,18.0202561492721
0.0198517605323142,18.0224161695632
0.0187939378088764,18.0245710745493
0.0177488728732963,18.0267333894585
0.0167197733810814,18.0289132856511
0.0157095678355665,18.0311194517972
0.0147209103428498,18.0333596452753
0.0137561935331013,18.0356410594862
0.0128175596959469,18.0379705952044
0.0119069094329301,18.0403550784426
0.0110259169339427,18.0428014262482
0.0101760324618607,18.0453168281534
0.00935849987634204,18.0479088813593
0.00857435901403143,18.0505857742586
0.00780942826936848,18.05341438064
0.00706019469299696,18.0564384903731
0.00633048716826876,18.059681505556
0.00562424565654039,18.0631708523871
0.00494558794299371,18.066938305035
0.00429874775824117,18.0710208637189
0.00368797113442306,18.0754619946459
0.00311734583835578,18.0803136791602
0.00259057282410705,18.0856399209562
0.00211065872213946,18.0915235064275
0.00167981239016398,18.0980752435825
0.00130997734395782,18.105216795586
0.00101523275492527,18.1130303204533
0.000832806175863421,18.1197584534058
0.00065829178744481,18.1283015303409
0.000527023317277992,18.1371523448322
0.000423450648376345,18.1471523448322
0.000355190815792024,18.1571523448322
0.000312431484491361,18.1671523448322
0.000288040264762207,18.1771523448322
0.000277012942980895,18.1871523448322
0.000276019869546622,18.1971523448322
0.000282984581763337,18.2071523448322
0.000296748508067507,18.2171523448322
0.000316850579245187,18.2271523448322
0.000343415266321909,18.2371523448322
0.000377133508578226,18.2471523448322
0.000419332414789762,18.2571523448322
0.000470279045296268,18.2668260678876
0.00052891736391565,18.2757824914399
0.000595920362767355,18.2840599952004
0.000672281899061169,18.2917098609958
0.000759211504832136,18.2987802133735
0.000858114662450863,18.3053157456251
0.000970599112303949,18.3113580031494
0.00109849353125618,18.316945637974
0.00124387308910569,18.32211462484
0.00140908964708752,18.326898455088
0.00159680770163864,18.3313283184605
0.00181004698386477,18.3354332756913
0.00205223387770761,18.3392404204952
0.0023272630667933,18.3427750361545
0.00263957468503407,18.3460607546541
0.00299425060888168,18.3491197212075
0.00339713867515874,18.3519727663336
0.00385501642483734,18.3546395963655
0.00437581335213443,18.3571390164499
0.00496892372698723,18.3594892052641
0.00564566464581176,18.3617080805145
0.00639980864476467,18.3637636485973
0.00723290148401193,18.3656660273754
0.00815683060839837,18.3674479934616
0.00918944882720272,18.3691427204618
0.0103598164930605,18.3707881963938
0.0117292015439096,18.3724462659187
0.0135148683277016,18.3743076014905
0.0154285905661806,18.37605115552
0.0170972950828372,18.377437841388
0.0188543712430407,18.3788245272561
0.0204237865015492,18.3800465833922
0.0218262940539073,18.3811687506262
0.0230848359239307,18.3822484606451
0.0241954984223802,18.3833254443399
0.0251366398862282,18.3844388616273
0.0258654898931358,18.3856439571996
0.0262918261674248,18.3870562531013
0.0260623955459002,18.3891884653182
0.0253526662070514,18.3906689801117
0.0242956126853486,18.3921494949053
0.0230829379966429,18.3935291641798
0.0217181977025714,18.3949160494731
0.0202101680861723,18.3963591649807
0.0185671451859366,18.3978960834716
0.017515206534811,18.3988826931399
0.0164915862890859,18.3998693028082
0.0139181039323885,18.4025735261997
0.0113833116372969,18.4056597850814
0.00942561650433282,18.4084617153475
0.00788665755608236,18.4110340496617
0.00660593570826695,18.4135230575926
0.00548685725816179,18.4160566385939
0.00450427740460258,18.4186628585894
0.00364030668611589,18.4213648179042
0.00288044282355992,18.424186011644
0.00225862863216091,18.4269285591409
0.00175859576675928,18.429525861727
0.00134537360816999,18.4320285730654
0.000994885978352171,18.4344852376876
0.000692318370771455,18.4369255482616
0.000428570825109179,18.4393605255746
0.000194667286244486,18.4418204850663
-2.32127271091923e-05,18.4444256075397
-0.000263327917081291,18.4477275924988
-0.000389531601439298,18.4496786384776
-0.000506009476366371,18.4516296844563
-0.000604593757296681,18.4534039555537
-0.000692177129751051,18.4550814660115
-0.000775505577923404,18.4567706592127
-0.000859996717979315,18.4585801024386
-0.000953390022448472,18.4606972830412
-0.00108175427054273,18.4638133267573
-0.00122090106237989,18.4674675473535
-0.00132998358637517,18.4705414170069
-0.00143208035746837,18.4735959506354
-0.0015421505166898,18.4771055238068
-0.0016703581276363,18.4815583314932
-0.00180833860174915,18.4871583504679
-0.00189211120374072,18.4919765478076
-0.00191979465298779,18.4963094239983
-0.00188219091136634,18.5001848396731
-0.00177130215803558,18.5036851659205
-0.00157826386713803,18.5068979936341
-0.00129401279522231,18.5098806916052
-0.000910868850207184,18.5126669928137
-0.000419834251922648,18.515296673744
0.000194874920098617,18.5178266712301
0.000972342218224106,18.5203616608404
0.00198783707639345,18.5230402231787
0.0033778160927066,18.5260498390091
0.0051073039805711,18.5291839759072
0.00651675814376166,18.5314088516442
0.00809966216413071,18.5336337273812
0.00967972543866815,18.5356024707284
0.0112595368960984,18.5373455613838
0.0129492349024697,18.5389904085888
0.0147594054975738,18.5405359490137
0.0167519129961472,18.5420205822531
0.0189480842733144,18.5434421202179
0.0213918856349866,18.5448118300878
0.0241111836317229,18.5461284913015
0.0271497286967154,18.5473976903502
0.0305479057634183,18.5486211130167
0.0343505177574742,18.5498006960448
0.0386150107090414,18.5509404609995
0.0434043566661141,18.5520434607264
0.0487914512848997,18.5531127927508
0.0548644233772055,18.5541521301531
0.061730056146759,18.5551655227759
0.0695167540936173,18.5561571149955
0.0783829325367143,18.5571315042968
0.0885277605303296,18.5580939442132
0.100206408152975,18.5590505748387
0.11375951166826,18.5600092186575
0.129656040534646,18.5609800700582
0.148581027748813,18.5619776520778
0.170655143136151,18.5629839300356
0.1963017492195,18.5640006933448
0.226285020963198,18.5650422834975
0.261704991661986,18.5661308856747
0.303238512415881,18.5672773667412
0.345080412960073,18.5683471091623
0.379970541558219,18.5692114099725
0.410050198907477,18.569965167093
0.436371886311615,18.570660209712
0.45917210753529,18.5713257206211
0.478267983271076,18.5719837265448
0.493099320762133,18.5726557265077
0.50255756413357,18.5733684792438
0.50441406429536,18.5741652173517
0.495835362298674,18.5749942588712
0.475538757508555,18.5758471333453
0.442078532880676,18.5767365818422
0.393779658184424,18.5776719412813
0.349952642672322,18.5783637674605
0.300108637385391,18.5790555936398
0.255487338999469,18.5796265562693
0.217485998248251,18.5800950480612
0.18423497580045,18.5805021097523
0.154503088641578,18.5808714993483
0.127574454562625,18.58121713366
0.10297705271398,18.5815485458643
0.0803461206579286,18.5818736017258
0.0593355314264326,18.5822005356935
0.0394912469881372,18.5825413684649
0.01978616059992,18.5829250630324
0.00328407464805911,18.5832985224122
-0.00428514750968618,18.5834926660175
-0.0111963923938593,18.5836868096228
-0.0171753758358733,18.5838710871397
-0.023106033224821,18.5840727961763
-0.0289267683159402,18.5842943190761
-0.034442239779997,18.5845327003751
-0.0395389939192584,18.5847865599593
-0.0441562483745939,18.5850556701778
-0.0482630094615396,18.5853405890579
-0.0521298009878359,18.5856702778115
-0.055102281591074,18.5859900192337
-0.0575574717065203,18.5863301370532
-0.059511917665087,18.5866937815692
-0.0609794709873128,18.5870843322832
-0.0619738774321887,18.587505946099
-0.0625073164797879,18.5879637783094
-0.0625888513066173,18.5884643033066
-0.0622225815468023,18.5890158040021
-0.0614033789522436,18.5896302351973
-0.0601128295581567,18.5903234010549
-0.0583125952402136,18.5911178741788
-0.0559255999441426,18.5920500817918
-0.0527778274029747,18.5931912970198
-0.0487338823506381,18.5946032079049
-0.0448052471368841,18.5959633805437
-0.0410492606778813,18.5972800523729
-0.0374947925411003,18.5985566399079
-0.0341563102778576,18.5997945942002
-0.03104024867055,18.6009943666847
-0.0281478047947597,18.6021559118669
-0.0254763917403977,18.603278951467
-0.0230205507237647,18.6043631119045
-0.0207726261879261,18.6054079917848
-0.0187233225224992,18.6064131886162
-0.0168621876920328,18.6073783003249
-0.0151780390839228,18.6083029100599
-0.013601261311954,18.6092214232213
-0.0120836996101735,18.6101634281939
-0.0106298866843003,18.611130488978
-0.00924376103763075,18.6121247163033
-0.00792906384884592,18.6131485857767
-0.00668928586465286,18.6142050303861
-0.00552761524324862,18.6152975597626
-0.00444688292333555,18.616430420751
-0.00344950537897599,18.6176088186462
-0.00253742414185158,18.61883923042
-0.00171204069398873,18.6201298627273
-0.000974143947305813,18.6214913481789
-0.000323824901938699,18.6229378558264
0.000239632385883813,18.6244889732034
0.00070443614592165,18.6261189770765
0.00106986259758977,18.6277961832002
0.00135225043852596,18.629538911128
0.00156624453468089,18.6313685760525
0.00172563954343443,18.6333138408162
0.00184382369281601,18.6354154390091
0.00193446138660325,18.6377362860465
0.0020128442046643,18.6403864144426
0.00209982700979575,18.6436055280373
0.0022127710968274,18.647345017372
0.00235878321374026,18.6513520915774
0.00252329441188893,18.6552155235697
0.00270216620761258,18.6590081516661
0.00289245160786482,18.6627989176071
0.00309232517831936,18.6666357919337
0.00330131420763095,18.6705565544109
0.0035201931801353,18.6745941542046
0.00375078832592066,18.6787795978666
0.00399579261030413,18.6831438403306
0.00425863948507993,18.6877191880343
0.00454351037482333,18.692540725358
0.00485554940225487,18.6976476809271
0.0052013839926644,18.703084685121
0.00555436112045326,18.708375485789
0.00592341959670352,18.7136227281511
0.00630802414241735,18.7187741265111
0.00671255030169877,18.723844735242
0.00714095902604941,18.7288379059006
0.00759806709616332,18.7337623231961
0.00808893547885191,18.7386233848262
0.00861905793247702,18.7434247086818
0.00919439164928307,18.748167664122
0.00982147988254984,18.75285188793
0.0105075915048743,18.7574759164322
0.0112772530609828,18.7621321205513
0.0121450527059924,18.7668160804793
0.0131324519034582,18.7715431618303
0.0142694249004767,18.7763439036014
0.0156046177135591,18.7812904105971
0.0172372940299112,18.786571684519
0.0195002040583812,18.7929208350321
0.0211885356043779,18.7971884039904
0.022960376055747,18.8014559729487
0.0244757177633785,18.805109833756
0.0257445212045454,18.8083480489203
0.0268053732094926,18.8113999478607
0.02764096470261,18.8143553326719
0.0282085711449847,18.8171847567215
0.0285067584575936,18.8200091175314
0.0285050008183737,18.8229846359542
0.0280927187199537,18.8264451743642
0.0273063596107599,18.8297935016176
0.0261998217413589,18.8331418288709
0.0251057608615861,18.8358878134956
0.0240303848455203,18.8383271253808
0.0229563385194072,18.8406226929707
0.0218819440627091,18.8428414525324
0.0208099935481404,18.8450184393759
0.0197441435829089,18.8471758886864
0.0186880599561682,18.8493296178851
0.0176451952450171,18.851491783314
0.0166187302542365,18.8536723037161
0.015611567246255,18.8558796805287
0.0146263355523437,18.8581215212421
0.0136654037780063,18.8604048913774
0.0127308921863042,18.8627365708901
0.0118246795893639,18.8651232667504
0.0109484177243009,18.8675717733754
0.0101035366685482,18.8700891384318
0.00929125728550593,18.8726828043994
0.00851259755612614,18.8753607721921
0.00774912199737819,18.8782066024917
0.00700178938550993,18.8812497372647
0.00627439474479845,18.8845140902199
0.00557090490039947,18.8880274282463
0.00489546170115606,18.8918219217936
0.00425231571253891,18.8959350489744
0.00364571655701767,18.9004108907896
0.00307974118552455,18.9053022423336
0.002558038207357,18.9106745348623
0.00208356384746403,18.9166125856066
0.00165848243490065,18.9232302425182
0.0012958384497824,18.9304216292191
0.00100222142135555,18.9382064168103
0.000797381427891481,18.9459380439936
0.000640921885472014,18.9540311164202
0.000510491637777454,18.9633578039227
0.000414723079809825,18.9733578039227
0.0003525384047587,18.9833578039227
0.000314852016631335,18.9933578039227
0.000295118733427036,19.0033578039227
0.000288780621190967,19.0133578039227
0.000292872865371823,19.0233578039227
0.000305667841257331,19.0333578039228
0.000326395742182925,19.0433578039228
0.000355077987640869,19.0533578039228
0.000392482431147116,19.0633578039228
0.000440204600366043,19.0733578039228
0.000496937497884466,19.0827622140353
0.000562473907976516,19.0914459535131
0.000637634295271783,19.0994595710179
0.000723555012439826,19.106856064463
0.000821610459897,19.1136845243214
0.000933398960208805,19.1199903140254
0.00106075289778918,19.1258154272529
0.00120576049659665,19.1311987903746
0.00137079543435171,19.1361765179265
0.0015585520637756,19.1407821436673
0.00177208947974148,19.1450468349762
0.00201488371157164,19.1489995931676
0.00229089299157554,19.1526674409363
0.0026046378905577,19.1560756082873
0.00296130385754664,19.1592477250531
0.00336687454555795,19.1622060236726
0.00382830880149468,19.1649715627452
0.00435378533548516,19.1675644924121
0.00495305221760884,19.1700043896717
0.00563794881242986,19.1723107151724
0.00639967841476112,19.1744433201309
0.00724378427362221,19.176424337327
0.00818446820516023,19.1782901207918
0.00924394895701111,19.1800793454592
0.0104613369356924,19.1818412654139
0.0119358021534074,19.183677856548
0.0140732474083206,19.1859576460986
0.0156430871754821,19.1874486868232
0.0173138937198666,19.1889397275479
0.0188464286838021,19.190273392082
0.0202064851140731,19.1914758271274
0.0214246828368022,19.1926165431456
0.0225032242435451,19.1937403174915
0.0234260114664135,19.1948860052965
0.0241592393671419,19.1961019699599
0.0246365114157787,19.197474760991
0.024672649488361,19.1992712588884
0.0241239336799492,19.2009856530561
0.0231064356902233,19.2027000472239
0.0219672483033839,19.2041556199609
0.020696898748585,19.2055689407657
0.0192951526014688,19.207014734288
0.0177708039962207,19.2085330109814
0.0166825054452827,19.2096107702077
0.0156160602160709,19.2106885294339
0.0145644685054447,19.2118039777158
0.0121849373330339,19.2145789063778
0.0100601968831374,19.2174513415922
0.00837820815785036,19.2201032429556
0.00701719372827697,19.2225936961015
0.00582972341292765,19.2251150344655
0.00478611739102042,19.2276996641692
0.00386672060832551,19.2303712486528
0.00306267687825212,19.2331275996867
0.00242064941471949,19.2357161022954
0.00189936620579757,19.2381602058948
0.00146708987103943,19.2404935049437
0.00110053744885463,19.2427520938111
0.000782646120419865,19.2449731066136
0.000500276553954103,19.2471989985066
0.000241216519638061,19.2494968391741
-1.31738575650142e-05,19.2520412158263
-0.000216659839996275,19.2543203253799
-0.000400815276966027,19.2565994349335
-0.000538558973523678,19.2584546295438
-0.000651764865767295,19.2600840311482
-0.000754815105520412,19.2616542286209
-0.000855045497368964,19.2632643554055
-0.000959215362733067,19.2650270388053
-0.00107931232578018,19.2671743091358
-0.00128332137407532,19.2711043188697
-0.00146149956575527,19.274823448045
-0.00160379332016942,19.2779801792029
-0.0017460309869744,19.2812989482497
-0.00191260878256249,19.2854029779527
-0.00213384974463489,19.2913264023389
-0.0022964612910921,19.2964846794899
-0.00239970422934104,19.3011428999751
-0.00243155772779257,19.3053039549375
-0.00238352833426044,19.3090282592942
-0.00224966414442784,19.3123823924166
-0.00202506742407315,19.3154397536746
-0.00170415516489689,19.318267302663
-0.00127841729903232,19.3209289805397
-0.000732486724300548,19.323494045995
-3.23833554205136e-05,19.3260649496597
0.000921441986678145,19.3288738915108
0.00217062952753464,19.3319091969365
0.0037777451921797,19.3352567726417
0.00552199692744486,19.3384847959742
0.00675633188096941,19.3405665266289
0.00810372553151826,19.3426482572836
0.00940678175389654,19.3444661246549
0.0107888674184059,19.3461897290445
0.0122598755751978,19.3478118257045
0.0138830716073912,19.3493806917121
0.0156749459854782,19.3508877028619
0.0176761540142858,19.3523450472259
0.0199065257293485,19.3537467557465
0.0224017279476804,19.3550975868508
0.0251937667500504,19.3563983272124
0.0283133393262827,19.3576486317698
0.0318059341375284,19.3588530513614
0.0357190456451984,19.3600144326591
0.0401073718987552,19.3611357928681
0.045035054331724,19.3622204117656
0.0505757015008378,19.3632713735897
0.0568209502022237,19.3642927008919
0.0638787150355351,19.3652882115012
0.0718796298401147,19.3662619504694
0.0809842324856458,19.3672183339125
0.0913927528033141,19.3681622895649
0.103361361018177,19.3690996204717
0.117225139206484,19.3700373359094
0.133437925196888,19.3709843963427
0.152643962823257,19.3719530618792
0.17521035407465,19.372936880238
0.201378496686294,19.373927471664
0.231872393817895,19.3749367500828
0.267694733841908,19.3759824986951
0.310456710474564,19.3770972774259
0.346035947990697,19.3779536585719
0.38313069251567,19.378810039718
0.416063793332952,19.3795660384884
0.444831877957432,19.380249712659
0.469953142980848,19.3808957330953
0.491445434350875,19.3815287613581
0.50891114263843,19.3821709101571
0.521443672002252,19.3828484251757
0.527158429649276,19.3836031680038
0.522849938138999,19.384410183364
0.50690026839575,19.3852408106277
0.477876707423087,19.3861106268866
0.433965243179431,19.3870306856038
0.373196954666752,19.3880096029354
0.329827229075257,19.3886056036068
0.282547327296323,19.3892016042782
0.240344474524896,19.3897071026255
0.203882051254065,19.3901361669806
0.171680494537917,19.3905176623368
0.142749398401285,19.3908693885886
0.116471621282241,19.3912026834189
0.0924097648426507,19.3915260489047
0.0701938836204531,19.3918473721516
0.0494165174389467,19.392176441934
0.0293814288811284,19.3925317092875
0.00734233156673507,19.392988403219
-0.000975967129402703,19.393187233049
-0.00855620830903662,19.3933860628789
-0.0149184781866048,19.3935693397102
-0.0209098652599132,19.3937592127618
-0.0268878570097026,19.3939699630494
-0.0326218954835193,19.3941982357314
-0.0379687459707409,19.3944421263725
-0.0428497451288019,19.3947010477296
-0.0472247743433081,19.3949752929128
-0.0510753780713399,19.3952657975594
-0.0546350239993046,19.3956001573714
-0.0573504436655422,19.3959272355772
-0.0595511127568451,19.3962760987056
-0.0612543161377708,19.3966502122387
-0.0624744554201152,19.3970533968294
-0.0632249096858626,19.3974903768531
-0.0635165246759979,19.3979670634139
-0.0633558667524688,19.3984909750402
-0.0627424317618201,19.3990722744173
-0.0616631486063758,19.399725454544
-0.0600881319218158,19.4004700274693
-0.0579569790496861,19.4013362240805
-0.0551407446590879,19.402378551722
-0.0512784035388328,19.4037338531972
-0.0472496692551606,19.4051191060466
-0.043368788967309,19.4064601088944
-0.0396772587249829,19.4077607821176
-0.0361954018989805,19.4090230390463
-0.032933356874124,19.4102475334905
-0.0298950275149133,19.4114342850023
-0.0270799495865482,19.4125830122988
-0.0244843609397913,19.4136933083701
-0.0221019425783273,19.414764729501
-0.0199244101378586,19.4157968352361
-0.0179420244569923,19.4167891987293
-0.0161440448731637,19.417741398018
-0.0145191316736404,19.4186529940055
-0.0129660750094713,19.4195785539741
-0.0114739316384834,19.4205279751511
-0.0100468809467448,19.421503080783
-0.00868881221589813,19.4225060835241
-0.00740340253215894,19.4235395880656
-0.00619406568475341,19.4246066899754
-0.00506389971058729,19.4257111061111
-0.00401563220947855,19.4268573514074
-0.00305156325643878,19.4280509844168
-0.00217350526542962,19.4292989582359
-0.00138271835441328,19.4306101394453
-0.000679838335241485,19.4319961079289
-6.47916846728321e-05,19.4334724546352
0.000463314009394753,19.4350610305321
0.000886189231982508,19.4367034909492
0.0012149851861091,19.4383990095154
0.00146519745963436,19.44016612615
0.00165105169654231,19.4420281718609
0.0017860068093216,19.4440168868013
0.00188322673550491,19.4461784313698
0.00195633517442222,19.448586486074
0.00202104702792105,19.4513770133542
0.00210071661268072,19.4548811498143
0.00220369531840441,19.4586565436241
0.00234526560787063,19.462833231962
0.0025088463153496,19.4669377449751
0.00267953077329605,19.4708223372497
0.00285569184063253,19.4746175531389
0.00303687528011172,19.4783997881266
0.00322360017515492,19.4822199463207
0.00341722314435911,19.4861172601447
0.00361977391834539,19.490125366172
0.00383382003762849,19.4942754982404
0.00406238423863566,19.4985985628274
0.00430892666102,19.5031266058925
0.004577441970575,19.5078942329216
0.00487273226708108,19.5129400469059
0.00520093212187399,19.5183078829443
0.00554419025976915,19.5236464815617
0.00590172056764379,19.5289075517211
0.00627573463701177,19.534083966081
0.00666926647671381,19.5391745123243
0.00708637364161168,19.5441865657119
0.00753158433579969,19.5491277060723
0.00800983591526364,19.5540042825991
0.00852644957471962,19.5588203607375
0.00908720968432453,19.5635778381311
0.00969846120633156,19.5682767200336
0.0103672442060571,19.5729157344497
0.0111132120956182,19.5775627714862
0.0119540023675973,19.5822398163925
0.0129088467140012,19.5869550037054
0.014005187461017,19.5917341856082
0.0152856831770306,19.596635932737
0.0168317265964628,19.6018079072828
0.0188748666540951,19.6077457033301
0.0206876547288124,19.6124470486836
0.0226232696348132,19.6171483940372
0.0242124629444544,19.6209628791991
0.0255261341326384,19.6242635778833
0.0266271467747494,19.627339440068
0.0275161027678696,19.6303347287404
0.0281347936560607,19.6331800258713
0.0284858797207934,19.6359952333484
0.0285463841679117,19.638925425178
0.0282310548537114,19.6422427199704
0.0272412138961742,19.646605037157
0.0263487102373941,19.649311988177
0.0252904101543698,19.6520189391969
0.0242176014741266,19.6544834460364
0.0231438332257735,19.6567960350021
0.0220692600996642,19.6590246088435
0.0209965620694495,19.6612069475245
0.0199293552195541,19.6633667478186
0.0188713252411268,19.6655206350715
0.0178259629476388,19.6676812539702
0.0167964925462912,19.6698588354363
0.0157858590266053,19.6720620903498
0.0147967329193671,19.6742987698724
0.0138315232513754,19.6765760370134
0.0128923870555089,19.6789007435067
0.0119812402498835,19.6812796422093
0.011099770577034,19.6837195570435
0.0102494413195362,19.6862275584925
0.00943150782287594,19.6888110975561
0.00864702026011474,19.6914781827883
0.00788168679478656,19.6942956562023
0.00713190563383962,19.6973073301849
0.00640150523036603,19.7005364132727
0.00569442819079068,19.7040101088112
0.00501480013261668,19.7077599367015
0.00436687083315832,19.7118226059767
0.00375491478113101,19.7162412442361
0.00318306661176363,19.7210674199146
0.0026551006966572,19.7263645860964
0.00217412815325224,19.7322147789445
0.00174249161533878,19.7387279508941
0.00137178236401652,19.7458379785162
0.00107481880625991,19.7535245754512
0.000841994168082199,19.7622568552266
0.0006969001846598,19.7699088658768
0.000570005866128049,19.7791566546062
0.000478589440414028,19.7891566546062
0.000422907074632777,19.7991566546062
0.000393953614483312,19.8091566546062
0.000385412364562416,19.8191566546062
0.000393176124873718,19.8291566546062
0.000415012975895853,19.8391566546062
0.000450301358254908,19.8491566546062
0.000499914458735915,19.8591566546062
0.000560774474888817,19.8684001372376
0.000632607643688555,19.8769187178795
0.000715956372841979,19.8847708852624
0.00081185270711808,19.8920112409777
0.000921686784605051,19.8986899144234
0.0010471556584657,19.9048530544457
0.00119025468324118,19.9105432572929
0.00135329086305635,19.9157999132114
0.00153891025431302,19.9206594976433
0.00175013554643026,19.9251558360521
0.00199041714814908,19.9293203493063
0.00226369666377245,19.9331822805754
0.00257448829800601,19.9367689101464
0.00292798404036039,19.9401057769343
0.00333019130799074,19.9432169162373
0.00378811997197608,19.9461251212389
0.0043100417268127,19.9488522546088
0.00490586708262091,19.9514196525861
0.00558771953666159,19.9538486886485
0.00634864624486495,19.9561016112404
0.00719486638849807,19.9582011424542
0.00814299082816894,19.9601887093531
0.00922044778512974,19.9621113962662
0.0104800795333728,19.9640368801685
0.0120750415412118,19.966131546654
0.013747567455616,19.9680550923561
0.0155902198586224,19.9699786380582
0.0171397425993885,19.9715188616322
0.018468442090392,19.9728391381794
0.0196507982041495,19.974063689305
0.0207009570236545,19.9752504343522
0.021609740181429,19.976440323247
0.0223523537212318,19.977676609229
0.0228819172230079,19.9790241800126
0.0230946008365587,19.9806302626362
0.0225627925817664,19.9830803709891
0.021767324829919,19.9846185965498
0.0207043286990715,19.9861568221104
0.0195195713509054,19.9876143635949
0.0182152980163006,19.989081025149
0.0168008086898229,19.9906007756558
0.0152844021785367,19.9922095287036
0.0139930021100126,19.9936314758311
0.0117605182755795,19.9963458262795
0.0104234748784411,19.9981729131397
0.00921209147384946,20
