ecg,time
0.000552477135699942,15.0088076942803
0.000619559695751154,15.0175529524603
0.000698791650971497,15.0256102055021
0.000790903704750527,15.0330360212033
0.000897105584273243,15.0398825841197
0.00101898078030131,15.0461978638635
0.00115844908148106,15.0520260729282
0.00131776389415024,15.0574080500071
0.00149953047809783,15.0623815802297
0.00170673837289447,15.0669816777287
0.00194280863581441,15.0712408438394
0.00221165519938404,15.075189308361
0.00251776547575038,15.0788552598558
0.00286630419916848,15.082265078513
0.00326325159653853,15.0854435846361
0.00371559071148942,15.0884143156875
0.00423156901275511,15.0911998562919
0.00482108023373251,15.0938222656847
0.00549624794757385,15.0963036792816
0.00625196001823772,15.0986103849591
0.00709369831341404,15.1007617603191
0.0080387753497727,15.102801329918
0.00911633770141648,15.1047797245379
0.0103843150369741,15.1067727053855
0.0120175988149618,15.1089759613838
0.0135610156047798,15.1108097451538
0.0152442957322698,15.1126435289238
0.0167297305565468,15.1141919967567
0.0180155538749364,15.1155344972272
0.0191595883620334,15.1167818755443
0.0201735890705705,15.1179912728266
0.0210478604744718,15.1192040095156
0.021757470400459,15.1204639628682
0.0222555132473961,15.1218371415384
0.0224378418836675,15.1234738174032
0.022064011303672,15.125461440038
0.0213488242814899,15.1270484547614
0.0203406291988287,15.1286354694847
0.0192038573502049,15.1301175200033
0.0179493355023078,15.1315906693744
0.0165868222238427,15.1331037516355
0.0151256078070777,15.1346926874313
0.0136033762886389,15.136395980521
0.0124222187663197,15.137814853435
0.0103627568658276,15.1405600166209
0.00861984422866913,15.1432434736691
0.00720394014705086,15.1457633168874
0.00597488957897397,15.1482910936817
0.0048917479463563,15.1508770788838
0.00393390368215587,15.1535460665665
0.00308515160761015,15.1563214966244
0.00233184611199744,15.1592279281315
0.00170276937627122,15.1620903322241
0.00119308186383581,15.1647978218481
0.000769647846412394,15.1673895924575
0.000409541360588923,15.1699000502547
9.8056231978829e-05,15.1723470205105
-0.000174611013318715,15.1747355542194
-0.000416896321729632,15.1770777168637
-0.000638270684463445,15.1794169420887
-0.000851222208404745,15.1818585389791
-0.00108425634175322,15.1847514522737
-0.00123621527067418,15.1867608639846
-0.00138165143764983,15.1887702756954
-0.0015062738687545,15.19055447884
-0.00161782229732062,15.1921959741947
-0.00172550500541479,15.1938164242634
-0.00183623017119894,15.1955152447208
-0.00195911575831072,15.1974344114102
-0.0021175028825865,15.1999528730521
-0.00238023435116324,15.2042258706049
-0.00259927852694304,15.2078893010789
-0.00278743429925339,15.2111447268851
-0.00298563300699454,15.2147634534244
-0.00321444301559727,15.2194481245896
-0.00338424088874287,15.2239023953779
-0.00347433025563848,15.2277899805346
-0.00349124566930733,15.2314058345145
-0.00342692449387182,15.2349912865207
-0.00325021701706972,15.2388098716048
-0.00296609039216181,15.2423706689827
-0.00258671193972143,15.2456417762526
-0.00211881968358887,15.2486679687524
-0.00156448196925961,15.2514931678906
-0.000914311982668679,15.2541863649746
-0.000136219643607624,15.2568607221863
0.00085043535095436,15.2597146119554
0.00208975262755093,15.2627885240249
0.00349044018807507,15.265875091021
0.00490635931946002,15.2687564379029
0.00611939866235793,15.2710844005768
0.00741205596116111,15.2734123632507
0.0086605614428731,15.2754851127022
0.00987514464557854,15.277316995095
0.0111616822715437,15.2790566750784
0.0125466255937984,15.2807144697909
0.0140776878006382,15.2823204926394
0.0157734610253019,15.2838673079383
0.0176688145957966,15.285363055232
0.0197857298002371,15.2868035765123
0.0221510090888382,15.2881890301346
0.024797542982014,15.2895223671247
0.027758240792917,15.2908050214654
0.0310680658469723,15.2920383034041
0.0347743725003766,15.2932265835105
0.0389286663382165,15.2943731113936
0.0435907656857154,15.2954812269442
0.0488314801567142,15.2965545160313
0.0547352823277114,15.2975967758362
0.061402743184045,15.298611860859
0.0689553078092441,15.2996038326669
0.0775424657366999,15.3005771735362
0.0873504844862423,15.3015368682872
0.0986166837543082,15.3024887071946
0.111651542318152,15.303439715841
0.126876223688885,15.3043989253616
0.144889714500191,15.305378728547
0.166146159358001,15.3063776865168
0.190797626768225,15.3073828119702
0.219531625715252,15.3084063482177
0.253299831725521,15.3094663114743
0.293600118766615,15.31059424548
0.329013786933616,15.3115053018376
0.366176675092749,15.3124163581952
0.399116815768381,15.3132140463498
0.427885968779761,15.313930283176
0.453026793420461,15.3146018826836
0.474597676771251,15.3152541894395
0.492271744865398,15.3159086831762
0.505286485742908,15.3165888001271
0.51213455075937,15.3173276699327
0.509909027366236,15.3181448856326
0.496531187813682,15.3189783604591
0.47073343402471,15.3198434643603
0.430898718125409,15.3207514450087
0.375239308548854,15.3217113296584
0.332562379357045,15.3223310256727
0.285485634309606,15.322950721687
0.243332362124434,15.323473390027
0.206947623585114,15.3239139622894
0.174830894040474,15.3243037501979
0.145977135049644,15.3246617812378
0.119768467499228,15.3249999394587
0.0957739439122152,15.3253269206111
0.0736379567873651,15.3256505025953
0.0529869222754126,15.3259798051637
0.0332381598637113,15.3263305364502
0.0125526171898418,15.3267542950591
0.00207566047335602,15.3270012741854
-0.00520998790859704,15.3271908823524
-0.0118659230864211,15.3273804905194
-0.0177162660214671,15.3275633430019
-0.0236701377439107,15.3277691326258
-0.0294597129111153,15.3279938593246
-0.0349086373278296,15.3282348957698
-0.0399187046734589,15.3284912016971
-0.0444382170238519,15.3287627726166
-0.0484403986195963,15.3290503257292
-0.0521111339476056,15.3293752996377
-0.054990264311097,15.3296978331099
-0.0573544639967749,15.3300413453067
-0.0592196432793687,15.3304090009447
-0.0605999293986185,15.3308043326643
-0.0615090292324075,15.3312316938235
-0.0619587556707173,15.3316964986921
-0.0619574265366433,15.3322055754545
-0.0615078933071547,15.332767710437
-0.0606023492740158,15.3333959461725
-0.0592189519269176,15.3341071459029
-0.057312905434408,15.334926243866
-0.0547927559806936,15.3358948895895
-0.0514392636071883,15.3371006792683
-0.0474181812705003,15.3385022135191
-0.0435226850481159,15.3398554011201
-0.0398054745574954,15.341166270159
-0.0362921832439084,15.3424376689893
-0.0329956696371833,15.3436707515524
-0.0299214436663629,15.3448658094279
-0.0270701028430203,15.3460227105189
-0.0244386403017351,15.3471411297232
-0.022021292934458,15.3482206683127
-0.0198101855323595,15.3492609112035
-0.0177958705223552,15.3502614476324
-0.0159678003910054,15.3512218689127
-0.0143147448033683,15.3521417507496
-0.012755844630523,15.3530628380908
-0.01125689277525,15.3540075492863
-0.00982229780885662,15.3549775431957
-0.00845599136978119,15.3559749672139
-0.00716170444949663,15.3570023433399
-0.00594291557604926,15.3580626629043
-0.00480279924034923,15.3591595097812
-0.00374417216452778,15.360297226686
-0.00276943738123394,15.3614811449659
-0.00188052566945849,15.3627179110469
-0.00107883324458655,15.3640159657068
-0.000365153439564307,15.365386276287
0.000260402072637121,15.3668435117128
0.000798501436642991,15.3684080498024
0.00123517489134801,15.3700424325151
0.00157441052325555,15.3717261311896
0.00183211962734979,15.3734775132519
0.0020226768148249,15.3753186629771
0.00215960631698113,15.3772793083693
0.00225601350486334,15.3794020433303
0.00232524383905577,15.3817534182136
0.00238220316580679,15.3844519910459
0.00244735400544597,15.3877657819629
0.00253636868271391,15.3915143990289
0.00265182648023074,15.3953215137
0.00278861501957837,15.399063132969
0.00294317357751864,15.4028027591116
0.00311207355091104,15.4065873182731
0.00329303569039753,15.4104538761861
0.00348519658558057,15.4144347322179
0.00368903559736841,15.4185603026609
0.00390619103137079,15.4228609831551
0.00413926964783832,15.4273685217328
0.00439173722669532,15.43211734046
0.00466799041424623,15.4371460195588
0.00497370126437661,15.4424986047456
0.00530030688851273,15.4479578777125
0.00563662195790136,15.4532885761992
0.00598836183195,15.458543972791
0.00635702189986701,15.4637014890509
0.00674683120612654,15.4687762800823
0.00716185870246696,15.473775706829
0.00760665184362601,15.478707998545
0.00808600481543807,15.4835782847322
0.00860510923349361,15.4883895750228
0.00916963452796589,15.4931427850001
0.00978585763413285,15.4978372736214
0.0104607995108265,15.5024714149781
0.0112159660605223,15.5071228486737
0.0120678215604158,15.511803185542
0.013036587943128,15.5165235375829
0.0141513185689684,15.521311873601
0.0154572274593107,15.5262327483947
0.0170432942120095,15.5314516256483
0.0191812251152093,15.5375589441552
0.0209336439367011,15.542046112436
0.0227899139472324,15.5465332807168
0.0243471986773748,15.5502743280315
0.0256429720632879,15.5535472603774
0.0267283259105706,15.5566117231591
0.0275962990549301,15.5595893281861
0.0281950131464659,15.5624266841464
0.0285255338664949,15.5652438252904
0.0285620381889936,15.5681897008068
0.0282102740324051,15.5715579944731
0.0271877365181149,15.5758975243613
0.0262879778579465,15.5785747576278
0.0252294208861965,15.5812519908944
0.0241570018980062,15.5836989828912
0.0230832770880958,15.5860018462815
0.0220088465034125,15.5882246259926
0.0209365433184304,15.5904034777008
0.0198700103054237,15.59256133844
0.0188129227766741,15.5947144247104
0.0177687510400844,15.5968751399954
0.0167406956813242,15.5990535679858
0.0157316784035474,15.6012583285136
0.0147443470876675,15.6034971202702
0.0137810885514475,15.6057770832835
0.0128440399475909,15.6081050659873
0.0119350970525362,15.6104878411181
0.0110559294907286,15.6129322693612
0.0102079836519528,15.6154454775082
0.0093924993608431,15.618034994066
0.00861051319453041,15.6207089280976
0.0078462504647452,15.6235403139318
0.00709788506070296,15.6265675459996
0.00636925071034502,15.6298141882771
0.00566432093930632,15.6333077666344
0.00498725343962998,15.6370801844009
0.00434232971536242,15.6411686152455
0.00373385312565614,15.6456167737618
0.00316598207340477,15.6504770168722
0.00264250756270021,15.6558139576061
0.0021665602079223,15.6617114109396
0.00174053506843017,15.6682819383702
0.00137726540941819,15.6754316591133
0.00109233957675911,15.6831658240922
0.000914423614203879,15.6899867544138
0.000751644318566716,15.6984578488488
0.00063236243094125,15.7073127645409
0.00054480355273461,15.7173127645409
0.000495797685425062,15.7273127645409
0.000476468050613633,15.7373127645409
0.000480948350014676,15.7473127645409
0.000505988813491667,15.7573127645409
0.000550513518568662,15.7672664394744
0.000610392219853932,15.7764541664525
0.000684181605861066,15.7849120651843
0.000771810202121826,15.7927006983074
0.000874018132705522,15.7998763173996
0.000992095188913184,15.8064904331208
0.00112776367351377,15.8125903648243
0.00128313500082,15.818219711471
0.00146070516203145,15.8234187359333
0.00166337451975609,15.8282246917578
0.00189448588212207,15.8326721168229
0.0021578816031302,15.8367931061295
0.00245798036709899,15.8406175699848
0.00279987953629572,15.8441734899799
0.00318949295619052,15.847487191169
0.00363373888000292,15.8505836484709
0.00414080600195523,15.8534868523004
0.00472054349592436,15.8562202849992
0.00538506338266935,15.8588076008006
0.00613333757803706,15.8612253629382
0.00696903062326709,15.8634840299421
0.0079109978387678,15.8656317665495
0.00899229151461969,15.8677274578156
0.0102832247479041,15.8698672507239
0.0120248277486587,15.8723385929883
0.0133819098888124,15.8740507587969
0.0148352301486131,15.8757629246055
0.0161900194344417,15.8773091397373
0.0173807397125243,15.8786818923814
0.0184397871756469,15.8799682707927
0.0193724539549373,15.8812215450766
0.020166534234314,15.8824833772546
0.0207950672506848,15.8838002872063
0.0212075138128022,15.885245649214
0.0212858006556399,15.8869988461412
0.020834450323282,15.8889675572694
0.0198897646118282,15.8909362683976
0.0188352384766409,15.8925440122246
0.0176838501409508,15.8940522699679
0.0164300212580379,15.895562766461
0.0150817150505147,15.8971203407213
0.0142979976910745,15.8980150732415
0.0135244495817079,15.8989098057618
0.0127243618944289,15.8998737503713
0.0106498171098349,15.9026064391442
0.00885713315530637,15.9053234787475
0.00740038213490211,15.9078709480235
0.00614591107778638,15.9104010922333
0.00503938792604318,15.9129851803979
0.00405940587477128,15.9156491582816
0.00318949157305494,15.918416586638
0.00241579526629416,15.9213119058542
0.00178267766515329,15.9240918972229
0.00126646877103753,15.9267200652253
0.000835754368504672,15.9292307023283
0.000467886059943721,15.9316582435212
0.000146562608668979,15.9340349517035
-0.000140690263238477,15.9363956050554
-0.000405523415082123,15.938795694064
-0.000664308965013507,15.9413693141099
-0.000971488878086912,15.944736987391
-0.00113195734605748,15.946634733928
-0.00128508302292288,15.9485324804651
-0.00141968737121906,15.9502680080134
-0.00154391774796781,15.951922586048
-0.00166638229640527,15.9535999355482
-0.00179525396102542,15.955410799135
-0.00194436395617587,15.9575593750106
-0.00217063235404347,15.9609179076303
-0.0024010390212051,15.9644553335461
-0.00259034750071583,15.9674641041333
-0.00277571888548782,15.9705341708486
-0.00297836751660224,15.9741168959293
-0.00320778645074238,15.9787524485011
-0.0033685953128521,15.9830205436889
-0.00345266656279147,15.9868159436543
-0.00346448947857867,15.9904062889825
-0.00339373396965621,15.9940221079967
-0.0032032940013727,15.997964771324
-0.00291098638439038,16.0015328404901
-0.00252740458733201,16.0047971349945
-0.00205768648970229,16.0078195428081
-0.00150014878503045,16.0106603496383
-0.000842632126488877,16.0133916961816
-5.05810042957042e-05,16.0161282223952
0.000964635032020738,16.01908669962
0.0021886653571558,16.0221644195106
0.00356326025757136,16.0252610238249
0.00499417673080485,16.0282501082662
0.00619400395527636,16.0306126152886
0.00747510852934014,16.032975122311
0.00865209420159658,16.0349712933672
0.00985793622495155,16.0368261135595
0.0111236388697076,16.0385664517992
0.0124971827220975,16.0402349151699
0.0140180296325171,16.0418509767502
0.0157043221387017,16.0434072242874
0.0175897905597592,16.0449114303436
0.0196941201584704,16.0463583726246
0.0220465516789577,16.0477504196986
0.0246780292136698,16.0490896107155
0.02762061327935,16.050377335735
0.0309105088476936,16.0516156688694
0.0345940293850109,16.0528087274278
0.0387223912897393,16.0539598289794
0.0433547548706919,16.0550722863809
0.048562347065714,16.0561499096343
0.0544288676197967,16.057196434082
0.0610543526764885,16.0582157334661
0.0685599923719715,16.0592119387083
0.0770948367752724,16.0601895759165
0.0868449290676051,16.0611537024736
0.098047681552623,16.062110207945
0.111015052334797,16.0630663112278
0.126171676025641,16.0640313219238
0.144125764793844,16.0650181552118
0.165273673708743,16.0660225984076
0.189810091522236,16.0670341068016
0.2184318701292,16.0680655110488
0.252112822633139,16.0691358716878
0.292411233732425,16.070279047031
0.327170311116786,16.0711873499446
0.363549038511575,16.0720956528581
0.395938926029904,16.0728962658483
0.424285793949635,16.0736179619661
0.449048156787885,16.0742958045064
0.470248290250489,16.0749545130852
0.487541345461781,16.0756152679346
0.500154896290983,16.0763011611517
0.506584872790938,16.0770444598851
0.50396595107792,16.0778664841931
0.490257212668322,16.0787039316818
0.464204106275992,16.0795717222125
0.424228541055474,16.0804807809585
0.368592726679185,16.0814404691041
0.326777863064905,16.0820496147922
0.280799653234445,16.0826587604802
0.239537942963946,16.0831748673206
0.203784112776797,16.0836122127672
0.172141407805603,16.0840005245273
0.143667554513431,16.0843580405856
0.117775953002007,16.0846963004745
0.0940522008141022,16.0850238572511
0.0721493516109855,16.085348471351
0.0516956394949273,16.0856794051953
0.0320943789569883,16.0860329952556
0.0113610822315279,16.0864655135804
0.0016130275717465,16.0866993761885
-0.0071536466553562,16.0869332387966
-0.013594395480642,16.087123467473
-0.0195002597002619,16.0873154543342
-0.0254039512943391,16.0875287934251
-0.0310753126139777,16.0877600640872
-0.0363684962963352,16.0880072248551
-0.0412034151972009,16.0882696132503
-0.0455391192720699,16.0885474825759
-0.049420695783056,16.0888478595946
-0.0526589225898595,16.0891575348536
-0.0553779667796837,16.0894867044806
-0.0575899778256967,16.0898379469689
-0.0593082566888827,16.0902143026055
-0.0605468433048273,16.0906195122635
-0.0613189721897329,16.0910581963509
-0.0616355755368638,16.091536117301
-0.0615036253337896,16.0920605735846
-0.0609236196177224,16.0926413169069
-0.059884247201795,16.0932923475353
-0.0583588786693958,16.0940321706015
-0.0562938264042552,16.0948889659515
-0.0535770469964113,16.0959119509849
-0.0499156001266075,16.0972156332521
-0.0459392072550639,16.0986001131174
-0.0421071061250073,16.0999387814072
-0.0384631061735027,16.1012359809574
-0.035028030308543,16.1024939911622
-0.0318120214341719,16.1037136893702
-0.0288187864725098,16.1048952386018
-0.0260475924109064,16.1060384547747
-0.0234944019726732,16.107142999588
-0.0211526490887666,16.1082084790531
-0.0190138481305964,16.109234488589
-0.0170681120649484,16.1102206261085
-0.0153046070017846,16.1111664846717
-0.0137096273078918,16.1120729926131
-0.0121712061792543,16.1130024354204
-0.0106945132058922,16.1139559360216
-0.00928358109881084,16.1149354422175
-0.00794227757173739,16.1159432247707
-0.00667424949633052,16.1169819608229
-0.00548287282024019,16.1180548365569
-0.00437120017434911,16.1191656839397
-0.00334190633388745,16.1203191667357
-0.00239723133965633,16.1215210399442
-0.00153892061929317,16.1227785224406
-0.000768160640830931,16.1241008513604
-8.55071535837571e-05,16.1255001429099
0.00050919975486222,16.1269928022437
0.00101694565448558,16.1286019968191
0.00141671556997462,16.1302518246418
0.00172520556517671,16.1319578540279
0.0019575368470113,16.1337388680417
0.00212775271418888,16.1356193219974
0.00224919035986303,16.1376327955792
0.00233497978717169,16.1398287651106
0.0023988696376639,16.1422877260585
0.00245711574352244,16.1451631293404
0.00253557943246375,16.1488574080291
0.0026362560656868,16.1526162871448
0.00276124416400538,16.1563511915147
0.00290881685960895,16.1601131634331
0.00307538115575102,16.1639425336549
0.00325769703891769,16.1678731887836
0.00345380743717667,16.171936126434
0.00366327787389674,16.1761615589242
0.00388712945935723,16.1805805659044
0.00412766890633082,16.1852263489486
0.00438838262513745,16.1901356911838
0.00467401712159484,16.1953502897202
0.00499099618676481,16.2009181840344
0.00531352563799593,16.2063208365071
0.00565020576639521,16.2116672593222
0.00600068567102043,16.2169047788262
0.00636922904566435,16.2220536886025
0.00675946300078763,16.2271197989688
0.00717567854225292,16.2321137876616
0.00762227561685087,16.2370422834231
0.0081039905665657,16.2419099808274
0.00862593766847384,16.2467191808851
0.00919374507804742,16.2514704026114
0.00981367457873442,16.2561627698355
0.0104927585688659,16.2607945629752
0.0112534572004597,16.2654482257969
0.0121116764588112,16.2701303966124
0.0130880421649772,16.2748536802397
0.0142122244446241,16.2796472173954
0.0155309281075499,16.284578810171
0.0171373989575735,16.2898238433315
0.0193279863815022,16.2960302193375
0.0210519620293507,16.3004178310529
0.0228706887269188,16.3048054427682
0.0244103956114987,16.3085084556785
0.0256952883905004,16.3117664049606
0.0267708680326907,16.314825169354
0.0276258953317202,16.3177933327435
0.0282122007862642,16.3206270685716
0.0285298566992251,16.3234466629459
0.0285512057532171,16.3264037915176
0.0281758457614431,16.3298071407433
0.0273948893338554,16.3332399779735
0.0262731640871669,16.3366728152037
0.0251750324562725,16.3394406939618
0.0240991465480928,16.3418865009422
0.0230250279783016,16.3441849480338
0.0219504903049292,16.3464051856096
0.0208782474952971,16.3485828838428
0.0198119433248381,16.3507405669956
0.018755243712491,16.3528942216491
0.0177116044775276,16.3550561197439
0.016684210233563,16.3572362698812
0.0156759668360926,16.3594432521472
0.0146895069411128,16.3616847500793
0.0137272023584137,16.3639679087766
0.0127911766013794,16.3662995965772
0.0118833119030636,16.3686866229592
0.0110052648689307,16.3711359016077
0.0101584703367468,16.3736546273115
0.00934415683842924,16.3762504171718
0.00856335110381621,16.3789314893851
0.00779976894121431,16.3817732603038
0.00705227766847357,16.3848120938185
0.00632471080451325,16.388071782018
0.00562104910476831,16.3915800845124
0.00494545466568143,16.395369183844
0.00430220827174699,16.3994765955068
0.00369560456505801,16.4039464683729
0.00312978661195211,16.4088316980904
0.0026084960744772,16.4141978733756
0.00213481792778944,16.4201300892416
0.0017110899579974,16.4267428708519
0.00141648117354971,16.4324730308027
0.00118726753312,16.4382031907535
0.000966215286278157,16.4457271838871
0.000799421417917491,16.4535150961242
0.000661287501447507,16.4624936826429
0.000559376201882007,16.4724936826429
0.000499082433558414,16.4824936826429
0.000470349145485854,16.4924936826429
0.0004663377963313,16.5024936826429
0.000482900047655373,16.5124936826429
0.000518287495760085,16.5224936826429
0.000570253924998729,16.5320535456261
0.000636013104807297,16.5408682087823
0.000714986769955351,16.5489866320875
0.000807591527187833,16.5564664732434
0.000914862951020766,16.5633609376155
0.00103829056330412,16.5697188685063
0.00117974962597121,16.5755852359953
0.00134148204000455,16.5810015459282
0.00152610569383475,16.5860061785804
0.00173664227807155,16.5906346860009
0.00197656276302208,16.5949200630464
0.00224984915708785,16.5988930008244
0.00256107762644576,16.6025821284424
0.00291552691803771,16.6060142586627
0.00331932462166163,16.6092146526746
0.00377964732818738,16.6122073194332
0.00430500346216687,16.6150153780515
0.00490565156440063,16.6176615371225
0.00559424956484379,16.6201687858411
0.00636269331976864,16.6224945369378
0.00722069776994412,16.6246716784897
0.0081882269160281,16.6267470615918
0.00930033165453004,16.6287785163286
0.0106329076269134,16.6308634081321
0.012480479691332,16.6333373239081
0.0138760220146618,16.6350007154825
0.0153650328513725,16.6366641070568
0.0167359339103035,16.6381539490394
0.017944879528393,16.6394864511891
0.0190215833336635,16.6407419492388
0.019969165291564,16.6419705260742
0.0207737116896684,16.6432131550604
0.0214058448041283,16.6445176410022
0.0218097758890384,16.6459631173694
0.0218469456830979,16.6477595007514
0.0213477151534826,16.6496558008517
0.0203780281383432,16.6515521009519
0.0193039085190547,16.6531205878536
0.018126380537321,16.6546092252117
0.0168419614075654,16.6561089185926
0.0154591108589073,16.6576622178418
0.0146469439561423,16.658565819085
0.0138477866930671,16.6594694203282
0.0129172651171327,16.6605698241874
0.0107885135425752,16.6633350585621
0.00896547469341399,16.6660660480286
0.00749009434009595,16.6686204344732
0.00622746453652,16.6711445450913
0.00511537155021476,16.6737206313651
0.00413168301710203,16.6763750896088
0.00325962350791816,16.6791314218231
0.00248517713130123,16.6820139045346
0.00183524006138949,16.6848623516545
0.00130840690191791,16.6875552033353
0.000871112191745689,16.6901285327116
0.000499159857244134,16.692619790919
0.00017571598947856,16.6950606444755
-0.000111448083564454,16.6974799874606
-0.000373222522278678,16.6999220410434
-0.000623957653021059,16.7024961126164
-0.000900420957818736,16.705620980573
-0.00106698513774322,16.7076535317487
-0.00122510921745265,16.7096860829243
-0.00136144991564503,16.7115161846434
-0.00148381365525327,16.7132163582631
-0.00160189369051875,16.7149050979549
-0.00172333838137249,16.7166871283749
-0.00185862277882736,16.718720936064
-0.0020368572534748,16.7214699016639
-0.00230617704109734,16.7257576876822
-0.00252051997615811,16.7292966275897
-0.00270868187913106,16.7325312914827
-0.00290800642676061,16.7361739037241
-0.00313291339929113,16.740832812321
-0.0032962769216795,16.7452447498955
-0.00337993673402627,16.7491094021378
-0.00338990395957722,16.7527164667731
-0.00331730640246779,16.7563021925195
-0.00312934526190807,16.7601325678019
-0.00283614174565152,16.7636629005823
-0.00244818174620402,16.7669072442244
-0.00196939260410927,16.7699253223621
-0.00139881173479788,16.7727678583886
-0.000724162516828112,16.7755059123916
9.45248546770784e-05,16.7782684362096
0.00115084639084712,16.7812736239691
0.00240442555903213,16.784352128052
0.00380860075273,16.7874381038927
0.00535565362509517,16.7905648175118
0.00649625011403661,16.7927169567209
0.00772024311445438,16.79486909593
0.00896090860911885,16.7968663398217
0.0102115610106662,16.798683224498
0.0115433586029526,16.8004080183981
0.0129869984813991,16.8020564719321
0.0145839106361117,16.8036501852285
0.0163539222281469,16.8051840229071
0.0183301859564774,16.8066647034816
0.0205367421842113,16.8080901077042
0.0230002475327517,16.8094602385598
0.0257553928426114,16.8107787188244
0.028837129136206,16.8120474615534
0.0322831427783045,16.8132682218459
0.0361431430404851,16.8144452788603
0.0404719229800207,16.8155819767539
0.0453334843728635,16.8166817719018
0.0508033698568549,16.8177482685
0.0569724604795423,16.8187853855421
0.0639495337666661,16.8197971303159
0.0718669789077663,16.8207877923764
0.0808891683047017,16.8217621735829
0.0912235375491412,16.8227257510552
0.103138596960104,16.8236850628178
0.116993211618334,16.8246483192854
0.133288957393531,16.8256265507802
0.152763918118931,16.8266354671407
0.175319916760094,16.8276466592312
0.20155940422285,16.8286712339968
0.232300308134919,16.8297250622652
0.268754630616181,16.8308335714855
0.310580873688812,16.8319819170271
0.35030892109312,16.8330016707171
0.383879110491096,16.8338442168733
0.413035405673988,16.8345899727961
0.438549800107118,16.8352831529131
0.460548605477914,16.835950576846
0.478779956213537,16.8366135981052
0.492609533735076,16.8372938762764
0.500811487748585,16.8380192350139
0.500904236513561,16.8388359629605
0.490304350945739,16.8396705662714
0.467829682097698,16.8405305254583
0.432007676237269,16.8414276601213
0.381175829766665,16.8423712169112
0.338633322418996,16.8430248481265
0.290963666181814,16.8436784793418
0.248187021388111,16.8442247804997
0.211421947673614,16.8446799492817
0.179055863508972,16.8450794771175
0.150015085991305,16.8454444350063
0.12365549160044,16.8457875977675
0.0995389758293069,16.8461180165198
0.0773153347972204,16.8464434502594
0.0566358620882985,16.8467724441226
0.037006679525562,16.8471183878096
0.017150547888604,16.8475176974496
0.00886365975144032,16.8477051150938
0.00121907148801729,16.8478925327379
-0.0065423470328467,16.8481006692363
-0.0130167394327972,16.8482916179638
-0.0188830083557066,16.8484818553734
-0.0247780067022343,16.8486940300633
-0.0304610068435825,16.8489245141614
-0.0357777626527448,16.8491710732676
-0.0406432640591442,16.8494329251386
-0.0450136409386939,16.8497102444763
-0.0489465368708839,16.8500111560786
-0.0522202284273469,16.850320159803
-0.054975033697822,16.850648482352
-0.0572228996265347,16.8509986717937
-0.0589768837831036,16.8513737119512
-0.0602509329286892,16.8517772732138
-0.0610583313880875,16.8522138845847
-0.0614102156482487,16.8526891855858
-0.0613139535032445,16.8532103032242
-0.0607708697043617,16.8537866229348
-0.0597708563455624,16.8544318302146
-0.0582892423817655,16.8551637438196
-0.0562761619425041,16.8560092151325
-0.053628778526794,16.8570142467239
-0.050088526537796,16.858281234148
-0.0461121692063765,16.8596693233932
-0.0422751575227452,16.8610106288103
-0.0386240040016434,16.862309928926
-0.0351806976930627,16.8635697405574
-0.0319559659326749,16.8647910706881
-0.0289538480564947,16.8659741547705
-0.0261738203689804,16.8671188500746
-0.0236119868499466,16.8682248423668
-0.0212618802510437,16.8692917519824
-0.0191150841354249,16.870319183212
-0.0171617581902432,16.8713067399331
-0.0153910973574771,16.8722540198426
-0.0137917348626915,16.8731605940264
-0.0122501544391895,16.8740892798956
-0.0107701302115497,16.8750419664199
-0.00935571082376139,16.8760205853214
-0.00801076949904738,16.8770273955855
-0.00673895975714973,16.878065059452
-0.00554366527377261,16.8791367441912
-0.00442794746621595,16.8802462574926
-0.00339449087011932,16.8813982314906
-0.0024455461213218,16.8825983791886
-0.00158286985910477,16.8838538623723
-0.000807660048012996,16.8851738382428
-0.000120483730760834,16.8865703068315
0.000478808669329991,16.888059496126
0.000991194548523278,16.8896642855657
0.00139620749138034,16.8913125829109
0.00170939858305514,16.8930164047778
0.00194598058120024,16.8947944797117
0.00212005350889871,16.8966710195099
0.00224500572832652,16.8986792021659
0.00233401258755254,16.9008677739705
0.00240085853229327,16.903315712801
0.0024617994341487,16.9061724983598
0.00254241697948884,16.9098236180991
0.00264510549081927,16.9135607719461
0.00277298885805274,16.9173048523847
0.00292477040079733,16.9210991138108
0.00309692459845552,16.9249797544618
0.00328609296223066,16.9289787320424
0.00349017463013097,16.9331264075951
0.00370866194565301,16.9374532391146
0.00394261819111033,16.9419912578652
0.00419454309512539,16.9467753890549
0.00446831575483394,16.9518449005897
0.00476936613824125,16.9572446826953
0.00509015346159983,16.9627695188848
0.00541839955516121,16.9681533080431
0.00576038294040284,16.9734584832721
0.0061175307668284,16.9786605146463
0.00649405259885534,16.9837766228899
0.00689383571986756,16.9888147590236
0.00732119509460438,16.9937840403018
0.00778062166779322,16.9986902116289
0.00827695071183427,17.0035368567824
0.00881544956612671,17.0083254624266
0.00940194831114184,17.0130559248492
0.0100429625085939,17.0177269576792
0.0107488385891613,17.0223554278039
0.0115434606324816,17.0270203197862
0.0124419368789823,17.031714920785
0.0134677958421332,17.0364588233948
0.0146550935917081,17.0412909495324
0.0160622354715421,17.0463049927931
0.0178201255456417,17.0517636742997
0.0202374090853819,17.0582895514386
0.0218261341255675,17.0622071265913
0.0234634204930665,17.0661247017441
0.0248944616645674,17.0696102880817
0.0261012206035023,17.0727742631806
0.0271027900783423,17.0758002165658
0.0278602805165075,17.0787057020331
0.0283515338083816,17.0815196541582
0.0285685495841984,17.0843675785594
0.0284668817725278,17.0874308499618
0.0278752067282048,17.0911977023276
0.0270514630376736,17.0942666926517
0.0259755645107437,17.0973356829759
0.0248935835733296,17.0999752966299
0.0238195510777283,17.1023720355477
0.0227452136505336,17.1046458798744
0.0216709069615288,17.1068526050948
0.0205997879563544,17.109023407063
0.019535550334607,17.1111787370101
0.0184818175598237,17.1133334427444
0.0174419789161753,17.1154991131675
0.0164191476092702,17.1176853283614
0.0154161581409247,17.1199003983254
0.0144355761942294,17.1221518366623
0.0134797078209466,17.1244466965197
0.0125506142841617,17.126791809531
0.011650119857926,17.1291939907
0.01077982052429,17.1316602141921
0.00994110005143242,17.1341977546006
0.00913513160643894,17.1368143672862
0.00836190564450468,17.1395220358048
0.00760184328786896,17.1424117019959
0.00685885200413259,17.1455039196445
0.00613674889691143,17.1488236018257
0.00543955902787396,17.1523995446633
0.00477147696446417,17.1562651547978
0.00413679216254483,17.1604594387916
0.00353976906085683,17.1650284532997
0.00298446281166926,17.1700277288223
0.00247445003327511,17.1755268616308
0.00201259828961011,17.1816170480419
0.00160103893465177,17.1884215042526
0.00134126877323633,17.1937565630037
0.00113957924379573,17.1990916217549
0.000930579233680871,17.2064413481191
0.000760628644182023,17.2145825977795
0.00062662759930732,17.2235534835541
0.000526866940581702,17.2335534835541
0.000466658954471954,17.2435534835541
0.000436128244667065,17.2535534835541
0.000428455754391893,17.2635534835541
0.0004393481554456,17.2735534835541
0.000466685000640136,17.2835534835541
0.000510282027682656,17.2935534835541
0.000567241890450486,17.302884760229
0.000636325378578309,17.3114844673296
0.000717665506836516,17.31940860934
0.000812071620687861,17.3267128153244
0.000920810922799046,17.3334482384751
0.00104551663734613,17.339661932358
0.00118815725834763,17.3453972937275
0.00135103744640224,17.3506944282588
0.00153681847870374,17.3555904586894
0.00174855250562314,17.3601197992831
0.00198973184159223,17.3643144080962
0.00226435268730189,17.3682040229137
0.00257699854647722,17.3718163883957
0.00293294852634667,17.3751774881067
0.00333832112022856,17.3783117938512
0.00380027043088322,17.3812425455284
0.0043272613524265,17.3839920885588
0.00492947335654797,17.3865823160402
0.00561942239470111,17.3890352980645
0.00638785203582915,17.3913064843347
0.00724419645223947,17.3934287615731
0.00820692990072685,17.3954459260725
0.00930749795282393,17.3974098916619
0.010610260787217,17.3994018216172
0.0123351030941268,17.4016639764375
0.0138165692276353,17.4033833018633
0.0154183182958746,17.4051026272892
0.016887365532088,17.4066187300828
0.0181704217012761,17.4079481130295
0.0193133520975463,17.4091875416593
0.0203257650355617,17.410391768511
0.0211970665878228,17.4116017413966
0.021901328428549,17.4128618765855
0.0223896973365873,17.4142404269879
0.0225513156092169,17.4158978229742
0.0221562174967644,17.417847851943
0.0212119082124889,17.4197978809118
0.0201401458374002,17.4213720332735
0.018962129274026,17.4228451728816
0.0176705564722217,17.4243238112898
0.0162732638399468,17.4258536594636
0.0152066473817658,17.4270063441201
0.0141589196250908,17.4281590287767
0.0132244550291311,17.4292388807383
0.0110355452268255,17.4320178995998
0.00915614364353035,17.434774146668
0.00764224994896142,17.4373451105962
0.00636076118749559,17.4398607909763
0.00523416387773365,17.4424244937522
0.00423897535533751,17.445063600062
0.00335786627412792,17.4478015703062
0.00257648919262692,17.450662424687
0.00189848830496103,17.4535965219065
0.00135361554511386,17.4563653639443
0.000904908296991915,17.4590067853591
0.000525886330360612,17.4615607150505
0.000199420287906936,17.4640517111865
-8.5454935547965e-05,17.4664875725065
-0.000337402843863149,17.4688767240513
-0.000565768665257715,17.4712548180161
-0.000782732653832921,17.4737163298963
-0.0010129198059684,17.4765521893437
-0.00117439747735756,17.4786795245712
-0.00132817216597173,17.4808068597987
-0.00145673781184262,17.4826565063522
-0.00156998120457352,17.4843347590428
-0.00167823500442088,17.4859778358512
-0.00178854866327423,17.4876868957838
-0.00190947136407182,17.4895955726943
-0.00206080715937152,17.4920288322771
-0.00232701697767369,17.4964101472929
-0.00255431795593034,17.5002604190224
-0.00274470540730918,17.5035984983625
-0.0029416323036729,17.5072412831516
-0.00316677541242776,17.5119036328322
-0.00333695162321928,17.5164141111871
-0.00342614121252125,17.5203322686837
-0.0034412768633767,17.5239575326419
-0.00337480497778319,17.5275350764948
-0.00319674966469628,17.5313197608496
-0.00291025474809922,17.5348662646859
-0.00252717631880394,17.5381300379529
-0.0020535870757272,17.5411561672058
-0.00149153206511329,17.5439860023258
-0.000831272059561132,17.5466887287148
-3.93130367562218e-05,17.5493802205432
0.00097120029274211,17.5522717379636
0.00222618538595115,17.5553543114374
0.00363863129627339,17.5584377642979
0.00517016475544448,17.5615090248378
0.00635771715353481,17.563738415907
0.00762930750710947,17.5659678069763
0.00890464300225387,17.5680196977868
0.0101427951430919,17.569821858385
0.0114722889010608,17.5715519510559
0.0129029311322707,17.5731963707044
0.0144863242314665,17.5747892521839
0.0162397189072363,17.576322090599
0.0181983517774862,17.5778031476427
0.0203852782561112,17.5792291700364
0.022827833394524,17.5806004268334
0.025560215833968,17.5819201682275
0.0286169019053381,17.5831900975054
0.0320347506273713,17.5844117426632
0.0358630699084444,17.585589428906
0.0401558430130181,17.5867264444241
0.0449760796204745,17.5878262036052
0.0503979605631856,17.5888922496378
0.0565107887703044,17.589928469877
0.0634211444596821,17.5909388061514
0.0712584130039094,17.5919274580674
0.0801826264354695,17.5928990893065
0.0903949074718661,17.5938589834979
0.102153992526904,17.5948133775394
0.115802807969758,17.5957699986073
0.131814950562238,17.5967390467783
0.150881861994477,17.5977350306052
0.173110945354015,17.5987392850639
0.198937179276261,17.5997540908935
0.22912939519857,17.600793740311
0.264793890104002,17.6018803538059
0.30662405823615,17.6030251775018
0.348573422735882,17.6040890063377
0.38350683405014,17.6049479875642
0.413609006013398,17.6056972918056
0.439943627407219,17.6063886487802
0.462748271800708,17.6070511889472
0.481835885779102,17.6077069777369
0.496635587321611,17.6083777093138
0.506013348515747,17.6090906971427
0.507665537932622,17.6098908575241
0.498775205329303,17.6107188949606
0.478091776547175,17.6115717626168
0.444146395940328,17.6124621812692
0.395240001986195,17.613399426709
0.351223287051974,17.6140884222529
0.301251182544448,17.6147774177969
0.256554957644471,17.6153462330975
0.218492781674434,17.6158132944663
0.185191062482523,17.6162193065827
0.155416715804757,17.6165878688906
0.128451822557619,17.6169328302764
0.103822442360535,17.6172636959002
0.0811617412674091,17.6175883306563
0.0601205206392088,17.6179150061574
0.0402376632210929,17.6182558870373
0.0204555449863082,17.6186406787621
0.00395535619362846,17.6190140111217
-0.00357446061443198,17.6192071448101
-0.0104509030279382,17.6194002784986
-0.0164058360907157,17.6195837524653
-0.0223485374107838,17.6197858329692
-0.0281738553416344,17.6200075879282
-0.0336886945672821,17.6202461028763
-0.0387817422950849,17.6205000497948
-0.043393498806324,17.6207692343813
-0.047493639087359,17.6210542375002
-0.0513460312748681,17.6213834153961
-0.0543124656075668,17.6217032837285
-0.0567617841799165,17.622043595031
-0.0587105736468556,17.6224075069931
-0.0601727927139895,17.6227984201812
-0.0611622570585746,17.6232205186943
-0.0616911786499673,17.623678994096
-0.0617686101519796,17.6241803709193
-0.0613985827934596,17.6247330041884
-0.0605757432821895,17.6253489985179
-0.0592813551803525,17.6260443138121
-0.0574763857915399,17.6268418609661
-0.055082082507881,17.627778802981
-0.0519189929244606,17.6289286149523
-0.0478917425430105,17.6303393886025
-0.0439800593911632,17.6316990043734
-0.0402408979017032,17.6330153457074
-0.0367027990929671,17.6342917352079
-0.0333800961568447,17.6355295726372
-0.0302791685059507,17.6367292799799
-0.027401193203637,17.6378907941683
-0.0247435805892883,17.6390138260434
-0.0223008781796855,17.6400979950601
-0.0200654414142049,17.6411428952339
-0.0180279880658033,17.6421481209768
-0.0161780803570723,17.6431132680934
-0.0145045498201005,17.644037918272
-0.0129383497294921,17.6449563794616
-0.0114314873281602,17.6458983319456
-0.00998850375112337,17.6468653382423
-0.00861334960103303,17.6478595083579
-0.00730978084484394,17.6488833170708
-0.00608130631303728,17.649939696397
-0.00493113632576367,17.6510321547923
-0.00386212911547594,17.6521649376387
-0.00287673503701263,17.6533432483584
-0.0019769381482901,17.6545735614541
-0.00116419410888932,17.6558640802178
-0.000439362244127953,17.6572254325067
0.000197372462767347,17.6586717803406
0.000746595923975967,17.6602227002334
0.00119684592467442,17.6618526247504
0.00154766335613371,17.6635297226344
0.00181526298329745,17.6652723119177
0.00201415627026927,17.6671017978496
0.0021579688369346,17.6690468277791
0.00225985865138999,17.6711481086497
0.00233314456781014,17.6734685045337
0.00239252249433447,17.6761179296453
0.00245754668390695,17.6793357074994
0.00254653436533047,17.6830750537802
0.00266036083024076,17.6868387608881
0.00279696980685089,17.6905729606748
0.00295319497509843,17.6943306581367
0.00312550245581537,17.6981528798676
0.0033113407506156,17.7020738343687
0.00350958565683547,17.7061245911912
0.00372054861127243,17.7103353343752
0.00394582072985041,17.7147369786894
0.00418809093750926,17.7193624359744
0.00445106517982983,17.7242480487912
0.00473959261021124,17.7294349526864
0.00506012802197036,17.7349704650366
0.00538715330194659,17.740350233586
0.00572882115856294,17.7456744288306
0.0060848744665986,17.7508929059637
0.00645953315337768,17.7560241565536
0.00685650728618215,17.7610738701216
0.00728018194960986,17.7660522563364
0.00773508614548231,17.7709657038224
0.00822610568783325,17.7758186789055
0.0087585228844359,17.7806132679096
0.00933814972769878,17.7853497668019
0.00997144923587673,17.7900271044996
0.0106668609577757,17.7946509487399
0.0114495257115728,17.7993128804363
0.0123336679061718,17.8040028545356
0.0133420057060002,17.8087393103595
0.0145070123577981,17.8135572841421
0.0158826217697069,17.8185406478164
0.0175847074434816,17.8239173005045
0.0199988527494667,17.8305274268598
0.0216184854209197,17.8345517267962
0.0232979491734563,17.8385760267326
0.024758119474344,17.842116665734
0.0259874314678273,17.8453053070128
0.0270109706502208,17.8483390259959
0.027797261623771,17.8512611818591
0.0283168907071741,17.8540792185589
0.0285643831044319,17.8569164444367
0.0285009203148885,17.8599434584219
0.0279821898531198,17.8635790620005
0.0271728307627634,17.8667470064382
0.0260874307174759,17.869914950876
0.0250015427782233,17.8725946199895
0.0239271529805323,17.8750080809814
0.0228529850155733,17.8772904491648
0.021778659799342,17.8795017446949
0.0207071991888229,17.8816746967862
0.0196422846019259,17.8838304833443
0.0185875578356305,17.8859843513339
0.0175464348408582,17.8881481250559
0.0165220568734273,17.8903315273318
0.0155172865617912,17.8925429510649
0.0145347159941904,17.8947899537431
0.013576676922501,17.8970796009411
0.012645255772751,17.899418710154
0.0117422994182737,17.9018140634587
0.0108694270512244,17.9042725759783
0.010028043089421,17.9068014448008
0.00921934112178233,17.9094083206174
0.00844431829844728,17.9121014565989
0.00768289683392202,17.9149720078361
0.00693818688138564,17.9180428409943
0.006213997872137,17.9213384733718
0.00551434009329486,17.9248872771798
0.00484339910643653,17.9287221533667
0.00420546527567721,17.9328814903571
0.00360482005113923,17.9374105510816
0.00304555882815627,17.9423637727255
0.00253133105614235,17.9478090810245
0.00206509836003146,17.953835146978
0.00164908396038093,17.9605616106856
0.00137419158055576,17.9660954198348
0.00115837071038609,17.971629228984
0.000937846372454246,17.979307042982
0.000775241955933665,17.987108738236
0.000639365431962705,17.9961984346552
0.000540463501220352,18.0061984346552
0.000481683473583033,18.0161984346552
0.000453273816509842,18.0261984346552
0.000448576540280101,18.0361984346552
0.000463501638980086,18.0461984346552
0.000496230866799091,18.0561984346552
0.000545712782976431,18.0659680438688
0.000608738956622692,18.0749830613151
0.000684619767007967,18.0832852462911
0.000773703455450658,18.0909334117845
0.000876968256554194,18.0979820650183
0.000995845153387899,18.1044812065084
0.0011321435088893,18.1104768364558
0.00128802916296682,18.1160113858126
0.00146603170637223,18.1211240709911
0.00166907057396023,18.1258512002077
0.00190049724415011,18.1302264503742
0.00216415365983243,18.1342811250076
0.00246444976098075,18.1380443983375
0.00280646447377207,18.1415435587288
0.00319608110853561,18.1448042670427
0.00364017051113667,18.1478508450423
0.00414684809572149,18.1507066169343
0.00472584863572731,18.1533943503295
0.00538909941844772,18.1559368771945
0.0061352662237447,18.1583104986965
0.00696711915294182,18.1605237156308
0.00790204259839274,18.1626218618374
0.00896965849906416,18.1646583040578
0.0102296518981954,18.1667140666454
0.0118584251344156,18.16899329523
0.0133352958152528,18.1708176514875
0.0149395529536521,18.1726420077449
0.0163777102277335,18.174210619205
0.0176264172162634,18.1755766091296
0.0187367109616067,18.1768468464316
0.0197190036811068,18.178078524553
0.0205633248944531,18.1793133853444
0.0212448143152327,18.1805958245209
0.0217169023647656,18.1819926094085
0.0218762519849579,18.1836555553724
0.0214887354368896,18.1856696475576
0.0207734125214594,18.1872769225548
0.0197720947662627,18.188884197552
0.0186474604673569,18.190383497079
0.0174102217947937,18.1918711042135
0.0160699712918319,18.1933961210191
0.0146359872885336,18.1949942970101
0.0131513969274396,18.196703498161
0.0117492301086885,18.1984533489184
0.00980585877032529,18.2011676882445
0.0081741984383969,18.203796571586
0.00682414675884645,18.2063069934244
0.0056394691454661,18.2088528923196
0.00459309148283152,18.2114650601214
0.0036662659575223,18.2141673299966
0.00284374003126244,18.2169833671818
0.00211678553729797,18.2199194204613
0.00153398051962203,18.2226825008285
0.00105666237774489,18.2253024266305
0.000656041007802536,18.2278166160614
0.000312270254653753,18.2302560904471
1.17675336477732e-05,18.2326429755414
-0.000255656418331628,18.234998012829
-0.000499763672665094,18.2373607341517
-0.000733557060056876,18.2398310096826
-0.000987177052770279,18.2427522159719
-0.00115214025607568,18.2447887976203
-0.00130923165276485,18.2468253792686
-0.00144304517158421,18.2486311497901
-0.00156220637270458,18.2502903318043
-0.00167672816544032,18.2519266232159
-0.00179398177758797,18.2536403929603
-0.00192348273498237,18.2555736480821
-0.0020891383460056,18.2581012612722
-0.00236468881574218,18.2624258526932
-0.00259285959124753,18.2661324787454
-0.00278692206560471,18.2694134986335
-0.00298947098493264,18.2730525261076
-0.00321995335390094,18.2777483047909
-0.00338386420607418,18.2820935628484
-0.00346992541007118,18.2859253824683
-0.00348350790069968,18.2895246232108
-0.00341516431216911,18.2931261532762
-0.00323032714678942,18.2970132932502
-0.00294152719821842,18.3005723703488
-0.00255971913478113,18.3038356932006
-0.00209018426141112,18.3068600788083
-0.00153336135260195,18.3096941776761
-0.000878989002364496,18.3124060739184
-9.299563321837e-05,18.315112464289
0.00091102426513165,18.3180247898253
0.00214502693410043,18.3211035177125
0.00353371274644942,18.3241953515607
0.00495242314282649,18.3271196359353
0.00613143763557669,18.3294134997956
0.00738705974075253,18.3317073636558
0.00861882892025316,18.3337821458941
0.00981644307392637,18.3356140067922
0.0110908360567098,18.3373609488443
0.0124629439814961,18.3390251226218
0.0139813003012869,18.3406382670078
0.0156632632403319,18.342191686947
0.0175435844973489,18.3436938079823
0.0196434326748784,18.3451400655241
0.0219898982607997,18.3465310677707
0.0246151797242647,18.3478695682297
0.027551788823611,18.3491570174858
0.0308345283124404,18.350394836347
0.0345101552210584,18.3515873691449
0.0386296626575656,18.3527378896243
0.0432520936688343,18.353849716871
0.0484479078251353,18.3549265408403
0.0543004964070549,18.3559721198652
0.0609093307536153,18.3569903140022
0.0683944905480798,18.357985188353
0.0769037790602738,18.3589612316039
0.0866212626693548,18.359923427718
0.0977813584976821,18.3608775620373
0.110690878628601,18.3618306687926
0.125765817809978,18.3627917765911
0.143597971301849,18.3637732859888
0.164655006348716,18.3647746101293
0.189075147217106,18.3657819872917
0.217540129658282,18.3668077099904
0.250993929683162,18.3678698458278
0.290919034198891,18.3689998552505
0.326290774459181,18.3699194939245
0.363443889443943,18.3708391325985
0.396359453835461,18.3716432119534
0.425111530632635,18.3723645999768
0.450241932866,18.3730403592775
0.471812154657645,18.3736959024891
0.4895039516793,18.374352620748
0.50257355856063,18.3750335890247
0.509560703067532,18.3757708808588
0.507613542906527,18.3765899403133
0.494586267879946,18.3774241742517
0.469233927733906,18.3782889023847
0.429967814732542,18.3791953906557
0.375027710740481,18.3801527376824
0.332510343740811,18.3807753919433
0.28553326734027,18.3813980462042
0.243442121874621,18.3819229230682
0.207108419190136,18.3823650281204
0.175034281078521,18.3827559652568
0.146216112719339,18.3831149058548
0.120037776381996,18.3834537979929
0.0960702261516124,18.3837813604726
0.0739603187047924,18.3841053591493
0.0533389863586396,18.3844348380512
0.0336366401670651,18.3847852060751
0.0130993197691743,18.385205882269
0.00223754635250724,18.3854620446407
-0.00505951034353649,18.3856523940082
-0.0117251984368543,18.3858427433758
-0.0175608683127235,18.3860255703151
-0.0235050624418194,18.3862314637141
-0.0292886334278674,18.3864563875801
-0.0347339092562206,18.3866976751866
-0.0397419313713844,18.3869542632414
-0.0442605648480164,18.3872261335644
-0.0482621055969916,18.3875139945074
-0.0518987483387892,18.3878359159889
-0.0547835883866106,18.388158482981
-0.0571543416223612,18.3885020366945
-0.0590263770005404,18.3888696840518
-0.0604137628455662,18.3892649405763
-0.0613301893353718,18.3896921379028
-0.0617874945357099,18.3901566607103
-0.0617940741053937,18.3906652953877
-0.0613529316172965,18.3912267668007
-0.0604565921241299,18.3918539945049
-0.0590836971448812,18.3925636964573
-0.0571903991769166,18.3933804932948
-0.0546874130377174,18.3943453134595
-0.051362556219564,18.3955433580548
-0.0473459031619727,18.396945452928
-0.0434539566882377,18.398298800328
-0.0397398533240874,18.3996096315032
-0.0362294616890283,18.400880869737
-0.0329357312726206,18.402113711323
-0.0298642019694479,18.4033084731811
-0.0270154745122758,18.4044650391282
-0.0243865340265237,18.405583094505
-0.021971605683762,18.4066622476779
-0.0197628026817752,18.4077020884776
-0.0177506678995421,18.4087022095324
-0.0159246471756324,18.4096622043975
-0.0142735067021702,18.4105816500776
-0.0127152502224562,18.4115030150275
-0.0112169952197806,18.4124480153344
-0.00978313799845868,18.4134183194894
-0.00841760847405346,18.4144160788574
-0.00712413512297844,18.4154438203458
-0.00590619323273734,18.4165045413688
-0.00476695329662799,18.4176018334672
-0.00370922724691231,18.4187400491945
-0.0027354124780339,18.4199245327845
-0.00184743319991298,18.4211619479523
-0.00104667799927259,18.42246075935
-0.000333931308982102,18.4238319684749
0.000290705730656133,18.4252902953518
0.000827914080300038,18.426856198839
0.0012634863714679,18.4284910539815
0.00160183265182922,18.4301754359695
0.00185884133527164,18.4319277205149
0.00204888119564279,18.4337700613442
0.00218547693731015,18.4357322972744
0.0022817440279397,18.4378572164651
0.00235105490029115,18.4402117517269
0.0024083803881305,18.4429153709254
0.00247437690334998,18.4462392115799
0.00256444408291616,18.4499890452366
0.00267948185245477,18.4537488237486
0.00281696535166366,18.457483300462
0.0029735029773021,18.461244520179
0.00314561579359041,18.4650728756035
0.00333091374404041,18.4690022790747
0.0035284501026161,18.4730636938532
0.00373869176414082,18.4772873438619
0.00396334989303406,18.481704281102
0.00420520078471263,18.4863476593988
0.00446801922158054,18.491254183635
0.00475672780316572,18.4964654652754
0.00507789192328488,18.5020294341887
0.0054035997015947,18.507399580696
0.00574475252023967,18.5127244007642
0.00610024044378739,18.5179394394085
0.00647462350161309,18.5230686274514
0.00687151866886341,18.5281163604369
0.00729533077121305,18.5330931866184
0.00775057039213856,18.5380052869897
0.00824211814470351,18.5428570513102
0.00877525243841906,18.5476504704732
0.00935578790156151,18.5523857817123
0.00999019578116492,18.5570618793722
0.0106872893548182,18.5616866758021
0.0114719464524797,18.566349209455
0.0123585634763558,18.5710401027167
0.0133702006032757,18.575778002921
0.0145396553660377,18.5805986707178
0.0159213491401202,18.5855877916981
0.0176338830523581,18.5909795367794
0.02004862637923,18.5975733157989
0.0216620834450383,18.6015763865425
0.0233331627506891,18.6055794572861
0.0247877006875444,18.6091093777273
0.0260127279858769,18.6122932544373
0.0270321328483098,18.6153254256977
0.0278130157005352,18.6182443905546
0.028327340074298,18.6210615895394
0.028569168931235,18.6239006990274
0.0284986816402132,18.6269341888994
0.0279670191041519,18.6305924908076
0.0271550255542507,18.6337417067963
0.0260715539719161,18.6368909227851
0.0249864489062947,18.639563262291
0.0239121434426477,18.6419737710977
0.0228379544706001,18.644254677502
0.0217636391391874,18.6464652209645
0.0206922444743888,18.6486378565087
0.0196274542038495,18.6507936345959
0.0185729068212387,18.6529477337673
0.0175320134682106,18.6551119394573
0.0165079103350407,18.6572959526078
0.0155034549723113,18.6595081555229
0.0145212347358513,18.6617561027823
0.0135635767661843,18.6640468637359
0.0126325630730724,18.6663872655171
0.0117300366013485,18.6687841048488
0.010857612564638,18.6712443182186
0.0100166920679459,18.6737751295993
0.00920846549927312,18.6763842247629
0.00843392752278752,18.6790798998735
0.00767286857227336,18.6819540222304
0.00692860140846509,18.6850288601872
0.00620493842482372,18.6883290153581
0.00550589556529968,18.6918829512711
0.00483566388784552,18.6957236821089
0.00419853869585225,18.6998897410021
0.00359880528797999,18.7044265846581
0.00304056137494376,18.7093889263501
0.00252745664131962,18.7148451226567
0.00206245504019837,18.7208845249562
0.00164779203659317,18.72762783827
0.00139994536159399,18.7326018674156
0.00120110956134808,18.7375758965613
0.000986877646349202,18.7447099407222
0.000814414613832345,18.7525516546427
0.000673341123974399,18.7615065165652
0.000568862014084908,18.7715065165652
0.000506955637692411,18.7815065165652
0.000477377893028468,18.7915065165652
0.000473184688413669,18.8015065165652
0.000490166303478008,18.8115065165652
0.000526567898149939,18.8215065165652
0.000579774744309346,18.8310122906757
0.000647076376093414,18.8397736068928
0.000727913694764143,18.8478416420322
0.000822727506615169,18.8552741323347
0.00093258514198902,18.8621242674462
0.00105901615201989,18.8684408644547
0.00120394478522981,18.8742688619052
0.00136967157713263,18.8796497311425
0.00155888377828836,18.8846218178382
0.00177468475354414,18.8892206431583
0.00202064202594391,18.8934791792806
0.00230085249809116,18.8974281078358
0.00262003064727379,18.9010960683238
0.00298362441884025,18.9045099134179
0.0033979724614174,18.9076949876209
0.00387052156859128,18.9106754472026
0.00441013719433464,18.9134746557673
0.00502756893721145,18.9161157196935
0.00573407342430558,18.9186154681954
0.00652058178533834,18.9209320531224
0.00740106988036709,18.9231101508723
0.00839877337317247,18.9251998667752
0.00955657275239791,18.9272677216119
0.0109774470407113,18.9294424169218
0.0130756160871397,18.932187245098
0.0144138440538604,18.9337623321995
0.015813425808049,18.935337419301
0.0170821562015595,18.9367545459374
0.0182104549051721,18.9380577907882
0.019211927157268,18.9393086799032
0.0200807933878766,18.9405510522776
0.0207966045287062,18.9418272722379
0.0213207245303824,18.9431950233093
0.0215742979343172,18.9447686775566
0.0212820919244206,18.9469976872278
0.0206050335450312,18.9486702661639
0.0196138091066433,18.9503428451
0.0185095474738989,18.9518629681906
0.0172963447397552,18.9533573839579
0.0159816676850246,18.9548820659563
0.0145748687618691,18.9564736240309
0.0134252215354252,18.9577959087213
0.0123409782611403,18.9591181934117
0.0103150818457444,18.9618478135919
0.0085883739600749,18.9645282703224
0.00718137334101075,18.9670481941678
0.00595489839132207,18.9695830573765
0.00487239420137614,18.9721771222362
0.00391374683721657,18.9748550377068
0.0030629817277961,18.9776403483773
0.00230657468076155,18.9805577683917
0.0016932770709304,18.983335369937
0.0011924049771445,18.9859655081839
0.000773338713229994,18.988485247133
0.000414361756512764,18.9909296459748
9.99574371895246e-05,18.9933306045658
-0.000181833589952688,18.9957229986221
-0.000442761126478054,18.99816775111
-0.00070107816422658,19.0008269986551
-0.000927370216841914,19.0033639719319
-0.00109448465871128,19.0053644073955
-0.00125337185260371,19.007364842859
-0.00138875537282468,19.0091422674939
-0.00151219512837831,19.0108180968086
-0.00163286744345571,19.0125037944048
-0.00175867212707849,19.0143071293706
-0.00190193342418699,19.0164125079403
-0.00210518042951001,19.0194839163084
-0.00234079816365655,19.0231602451552
-0.0025320351541617,19.0262454813228
-0.00271408188847728,19.0292960133681
-0.00291109243163482,19.0327944469659
-0.0031337513162683,19.0372281008728
-0.00330921824268693,19.0416608508996
-0.0034053519142387,19.0455523758166
-0.00342858828188496,19.0491711345022
-0.0033721327823511,19.0527539016554
-0.00320712628441237,19.0565611576735
-0.0029315375456967,19.0601795461679
-0.00256220696705153,19.0634808249727
-0.0021040451158148,19.0665376752038
-0.00155695629485839,19.0694057314298
-0.000911171185600303,19.0721526455444
-0.00013798843624629,19.0748799389966
0.000846771456881064,19.077803377626
0.0020544565855854,19.0808822598129
0.00341547009880785,19.0839680954433
0.00489306278498724,19.0870493051502
0.0061164048036201,19.0894400344058
0.00742661512310016,19.0918307636613
0.00863292804640368,19.093851223064
0.00985788235518457,19.0957105132907
0.011143185505907,19.0974544811186
0.0125334576372693,19.0991215580296
0.0140711327837116,19.1007354056208
0.0157738941734713,19.1022884167451
0.0176763675299239,19.1037891959319
0.0197974486554003,19.1052320276903
0.0221690654054994,19.1066209534017
0.0248214257215746,19.1079572403657
0.0277854779971356,19.1092416796561
0.0311010106675806,19.1104777106748
0.0348135565072009,19.1116688024091
0.0389749183318719,19.1128182435332
0.0436448316266909,19.1139293020131
0.0488956985519583,19.1150058526915
0.0548123906889629,19.1160516369484
0.0614964423311083,19.1170705463729
0.0690712280833524,19.1180667718679
0.0776886279608578,19.1190449008518
0.0875387391151521,19.1200100906259
0.098864939284349,19.1209683819089
0.111988484288217,19.1219272357391
0.127349345438052,19.1228963613028
0.145583450557129,19.1238893977699
0.166978767302911,19.1248965958197
0.191817695580346,19.1259123259008
0.220822078159644,19.1269501450811
0.255013840857317,19.1280305187194
0.295695802672146,19.1291807435416
0.329839119128312,19.1300737510004
0.365397506408096,19.1309667584591
0.397131121323196,19.1317594220921
0.424947986727276,19.1324783575369
0.449217764420794,19.1331563612509
0.469911485497106,19.1338172854893
0.486642754028517,19.1344821238591
0.498586247757751,19.1351742586089
0.504142971683116,19.1359269513309
0.500411792568023,19.1367517973909
0.485525400431501,19.1375931023233
0.4582029968548,19.1384652693561
0.416864586880011,19.1393787888101
0.359781287094377,19.1403435212828
0.318816910940012,19.1409327896903
0.274112610896773,19.1415220580978
0.233926992319231,19.1420249417239
0.198930789622982,19.1424547797724
0.167855379102208,19.142838697568
0.139836455776837,19.143193626784
0.114324723158308,19.1435305295662
0.0909235305238124,19.143857733811
0.0692915953459626,19.1441830305691
0.0490475882879553,19.1445161160638
0.0295365652376867,19.1448751638342
0.00823429743593154,19.1453321521023
-0.000108062121689949,19.1455382985093
-0.00769892039866928,19.1457444449163
-0.0140130371603106,19.1459330029846
-0.0199169034194097,19.14612709022
-0.0257995670148078,19.1463423106063
-0.031436514904824,19.1465752876814
-0.0366881038906696,19.1468240945583
-0.0414779760584373,19.1470881457719
-0.0457674000395338,19.1473677490533
-0.0497636485708123,19.1476844410845
-0.0529321372892286,19.1479972233075
-0.0555809929416835,19.1483295962468
-0.0577250167258762,19.148684409274
-0.0593776699206724,19.1490647862243
-0.0605529237620425,19.1494745669272
-0.0612637615484733,19.1499184972047
-0.0615206796121137,19.1504025039255
-0.0613299980581555,19.1509341091694
-0.0606909810380793,19.1515235758688
-0.0595907525621903,19.1521852809454
-0.0580002926429941,19.1529385904755
-0.0558613615257987,19.1538133505309
-0.0530507490082097,19.1548628864227
-0.0492302487514126,19.1562182245198
-0.0452759533027532,19.1575950738764
-0.0414748617938957,19.1589267740814
-0.0378660489127054,19.1602173566408
-0.0344682789578181,19.1614688617109
-0.0312904960458049,19.1626820479249
-0.0283355908096215,19.1638570235237
-0.0256022209211954,19.1649935827565
-0.0230858767018399,19.1660913822967
-0.0207796262128906,19.1671500305895
-0.0186747090893589,19.1681691275176
-0.0167610445299342,19.1691482740576
-0.0150276771038267,19.1700870625922
-0.0134419545659303,19.1709976075939
-0.0119137320089609,19.1719312667787
-0.010447962761295,19.1728893116853
-0.00904865308615206,19.1738737434871
-0.0077196339097597,19.1748868999137
-0.00646450615913778,19.175931541505
-0.00528659021066601,19.1770109595634
-0.00418887305180165,19.178129120447
-0.00317395325556186,19.1792908626811
-0.00224398349569343,19.1805021732309
-0.00140060980540149,19.1817705866542
-0.00064490586790917,19.1831057831343
2.27010563051335e-05,19.1845205251947
0.000602519247937115,19.1860322089445
0.0010915456700472,19.1876498780125
0.00147490878707781,19.189308427454
0.00176979977666449,19.191026252299
0.00199111955219737,19.1928229047313
0.00215277156451157,19.1947241426844
0.00226803431643504,19.1967657258356
0.00235010096499652,19.1990011353453
0.00241301982935458,19.2015193467149
0.00247400542811066,19.2044967935312
0.00255792005714836,19.2082345208902
0.00266410289426759,19.2119735836185
0.00279517157405362,19.2157168240187
0.00294900699299599,19.2195090315089
0.00312197377954971,19.223386612568
0.00331094951012543,19.2273816260865
0.00351417593167245,19.2315244561962
0.00373146701463034,19.2358455537707
0.00396413244399649,19.2403769078199
0.00421482864319208,19.2451533573612
0.00448750923820034,19.2502140472728
0.00478761501914566,19.2556037188524
0.00510814151645043,19.261126639482
0.00543621994146038,19.2665067455577
0.00577827715776183,19.271809760923
0.00613562663308227,19.2770096086987
0.00651248713663309,19.2821237219786
0.00691273859738316,19.2871598708692
0.00734070896482234,19.2921271908356
0.00780090373333788,19.2970314087331
0.00829817766488683,19.3018761069064
0.00883781937831824,19.3066627562046
0.00942568214897049,19.3113912300574
0.0100683073750448,19.3160602232574
0.010776627127759,19.3206899966759
0.0115741163470723,19.3253556881189
0.0124761450838969,19.3300515803193
0.0135064703464989,19.3347975931697
0.0146999113607653,19.3396337605852
0.0161158295556368,19.3446566430236
0.0178896416520058,19.3501395289337
0.0203075330233716,19.356642670709
0.0218880887649578,19.3605325571428
0.0235141926920679,19.3644224435766
0.0249371376989529,19.3678932895663
0.026137442213129,19.3710506073876
0.0271326448813944,19.3740746090179
0.0278818246235188,19.3769755428749
0.0283648488263646,19.3797885520686
0.0285729639252083,19.3826398838073
0.0284599774910888,19.3857143835849
0.0278454158492889,19.3895239817601
0.0270173887788488,19.3925651604212
0.0259438677542485,19.3956063390823
0.0248629184226584,19.3982341197312
0.0237889939841465,19.4006256944137
0.0227146400853305,19.402896841258
0.021640390380519,19.4051020890906
0.0205694402863981,19.4072721656983
0.0195054866602328,19.4094272960277
0.0184521471793222,19.4115822016517
0.0174128029269685,19.4137483956227
0.0163905585461332,19.4159354106947
0.0153882400647596,19.4181515276687
0.0144084051590303,19.4204042428707
0.0134533522395073,19.4227006011223
0.0125251350292318,19.4250474334794
0.0116255710634468,19.4274515593613
0.0107562495407538,19.4299199640258
0.00991854796451834,19.4324599383806
0.00911363353918895,19.4350792603442
0.00834083207354043,19.4377923597448
0.0075813205455044,19.4406880681145
0.00683900506022125,19.4437870686063
0.00611771129218952,19.4471143908363
0.00542147205949333,19.4506989719915
0.00475448859492234,19.4545743898586
0.00412105484643752,19.458779865153
0.00352543595634324,19.463361737854
0.00297168250320326,19.4683759403337
0.00246335954821759,19.473892697038
0.00200332211689459,19.4800041806477
0.00159425215104596,19.4868246521539
0.00132814344289681,19.4923591843239
0.00112545290523182,19.4978937164938
0.00090919778867563,19.5058104370331
0.000747187557218158,19.5140013758455
0.000619869201701412,19.5230635973662
0.000527549421205683,19.5330635973662
0.000473596751079965,19.5430635973662
0.00044868598128643,19.5530635973662
0.000446483793244536,19.5630635973662
0.00046319159139607,19.5730635973662
0.000497237458136166,19.5830635973662
0.00054734176805133,19.5927649069037
0.000610578784385112,19.601716922667
0.000686391291411002,19.6099632733758
0.000775190897059357,19.6175618997927
0.00087798393662602,19.6245664689329
0.000996209786447205,19.6310262546961
0.00113167400999964,19.6369866243002
0.00128652992361511,19.642489450843
0.00146328743881857,19.6475734536079
0.00166483944453851,19.6522744935511
0.00189450379148737,19.6566258408749
0.00215608046803204,19.660658424148
0.00245392735187013,19.6644010656865
0.00279305814918476,19.6678807161122
0.00317927317527277,19.6711227022595
0.00361933536372699,19.6741510015912
0.0041212155000276,19.6769885640656
0.00469444738497829,19.6796577229242
0.0053506658613902,19.6821807648849
0.00609016013823043,19.6845391636102
0.00691338867006396,19.6867335569546
0.00783631412465426,19.6888073578459
0.00888553299324783,19.690810088324
0.010112181055211,19.6928121727335
0.0116500760087796,19.6949668506962
0.0132784042585484,19.6969632231158
0.0146938374313732,19.698548885275
0.0161815146639911,19.7001345474342
0.017505582210616,19.7015301320129
0.0186815094234807,19.702807592585
0.0197276328564352,19.7040315643278
0.0206394164063438,19.7052458444317
0.0213969853160452,19.7064919872852
0.0219622963157358,19.7078258297637
0.0222582559216703,19.7093563809326
0.0220263850133144,19.7114947069958
0.0213690186138178,19.7131583745909
0.0203757866159749,19.714822042186
0.0192632445018827,19.7163242589792
0.01803550537647,19.7177996605487
0.0166996923745525,19.7193062114668
0.0152652667391435,19.7208810462876
0.0147670537679985,19.7214264244341
0.0142754579124042,19.7219718025805
0.0120697796125993,19.7246066979896
0.0099836940383497,19.7274657916333
0.00831023942789737,19.7301246159439
0.00694475533023261,19.732631632945
0.00574861396264475,19.735170390523
0.00469316638070738,19.7377732291661
0.00375917749662128,19.7404640702527
0.00293111494845021,19.7432664698742
0.0021957653568105,19.7462054374093
0.00159720891489135,19.749022625912
0.00110919310625258,19.7516943245414
0.000701041896718834,19.7542607996226
0.000351736455314737,19.7567556879912
4.73421691980508e-05,19.7592001336064
-0.000222206687325063,19.761610200596
-0.000466565396327798,19.7640205379733
-0.000698344387351769,19.7665240266114
-0.000944489521452412,19.7694280071606
-0.00111248976219374,19.7715577350963
-0.00127196077274131,19.7736874630321
-0.00140568690061031,19.7755504484602
-0.00152354739585814,19.77724654882
-0.00163612906556052,19.7789100672869
-0.00175077200238215,19.7806434055267
-0.00187644561801185,19.7825841086366
-0.00203428623530904,19.7850740162093
-0.00230779953488107,19.789507558037
-0.00253744513786498,19.7933551440018
-0.00272975731551931,19.7967025062538
-0.0029286856599501,19.8003716705513
-0.00315417884611596,19.8050639421162
-0.00331922950097102,19.8095166192394
-0.0034040915553341,19.8134027869693
-0.00341505441561662,19.8170168225235
-0.00334362154479554,19.8205992825135
-0.00315782957332728,19.8244120321183
-0.00286600985357092,19.827940109895
-0.00247826493245171,19.8311891123892
-0.00199973448739861,19.8342075931757
-0.00143113397035855,19.8370401780195
-0.000761520012384144,19.8397567475616
4.49094736893226e-05,19.8424766712435
0.0010854453247731,19.8454343114355
0.00234409388594583,19.8485145321101
0.00375686045962983,19.8515992738886
0.00531330348259522,19.8547219645135
0.00647698126680798,19.8569028162448
0.00772530383335982,19.8590836679762
0.00899345743940243,19.8611128160034
0.0102368390926648,19.8629091595967
0.0115754038155019,19.8646351749364
0.0130194922078743,19.8662777921899
0.0146184663200226,19.8678681735706
0.0163899506275428,19.8693984749608
0.0183684189965597,19.8708763559942
0.0205776608503135,19.8722992581886
0.0230444957090388,19.8736671443553
0.0258037318349589,19.8749835796129
0.0288903406816478,19.8762504030263
0.0323419175059875,19.87746928592
0.0362082812718277,19.8786445098607
0.0405442674609366,19.8797794012738
0.0454139779399937,19.8808774146985
0.0508928133083769,19.8819421028485
0.0570717229534335,19.8829773854516
0.0640594296225955,19.8839872489023
0.0719882033799179,19.8849759583497
0.0810220290233986,19.8859482683804
0.0913677135088925,19.886909602185
0.10329247621457,19.887866409773
0.117152613568462,19.8888267594022
0.133444345765648,19.8898014325129
0.15290137316362,19.8908060273375
0.175466447964817,19.8918140741259
0.201706491677566,19.8928347150889
0.23242794896012,19.8938833178325
0.268815429655827,19.8949842784756
0.310837605228834,19.896130683336
0.351214733802536,19.8971582777236
0.385181687277765,19.8980019299036
0.414617190894467,19.8987459318162
0.44037313745466,19.8994363639816
0.462605642401765,19.9001006292488
0.481077870886075,19.9007603022285
0.495166372219695,19.9014371818812
0.503654480073693,19.9021593208988
0.504059948802269,19.9029737743182
0.493749508692423,19.9038060303727
0.471539278761236,19.9046641169026
0.435942863246294,19.9055600754893
0.385273524513648,19.9065030838845
0.342225263945955,19.9071645833852
0.293864604548872,19.9078260828859
0.250524697882526,19.9083772539916
0.21337004857455,19.9088348406025
0.180717196062488,19.909235534524
0.15144925565027,19.9096009949365
0.124901259808788,19.909944248356
0.100624379679265,19.9102744528816
0.0782627837762226,19.9105993939254
0.057466037743224,19.9109275573911
0.0377457327672697,19.9112720597687
0.0178715124682687,19.9116677610665
0.00950437287379724,19.9118549230006
0.00178388627428012,19.9120420849347
-0.00624363868108811,19.9122551569075
-0.0127807758232926,19.9124462179239
-0.0186492462526882,19.9126347460432
-0.0245616242525489,19.9128453884416
-0.0302719341127381,19.9130744597134
-0.0356212069311639,19.9133196441964
-0.0405216003530099,19.91358010511
-0.044927562818636,19.9138559785077
-0.0488115978158428,19.9141480901944
-0.052155193857345,19.9144572157916
-0.0549537733664427,19.9147834421656
-0.0572434982208816,19.9151312918635
-0.0590376190226413,19.9155037314151
-0.0603501311428495,19.9159043776456
-0.0611944671603093,19.9163376922339
-0.061582009615433,19.916809227818
-0.061520480297637,19.9173259953154
-0.0610118380959673,19.9178971082748
-0.0600467943809397,19.9185360736837
-0.0586018167391577,19.9192602931666
-0.0566290989422063,19.9200958439351
-0.0540305209251697,19.9210869427026
-0.0505642740756031,19.9223297300827
-0.0465723832667741,19.9237226379477
-0.0427148061098844,19.9250682078475
-0.0390404335279839,19.9263716191161
-0.0355725524041401,19.9276355201107
-0.0323226466698522,19.9288609784935
-0.0292952738569644,19.9300482549949
-0.0264903016207641,19.9311972142315
-0.0239041413985515,19.9323075406321
-0.0215305672780604,19.9333788496388
-0.0193613466072313,19.9344107401207
-0.0173867709457547,19.9354028119292
-0.0155961202111292,19.9363546614582
-0.0139780708536109,19.9372658622364
-0.0124302798016526,19.9381919179581
-0.0109434918736489,19.939141841071
-0.00952187833287014,19.9401174690271
-0.00816933297115424,19.941121021583
-0.00688953636685495,19.9421551116277
-0.00568590518906487,19.9432228444201
-0.00456154005758272,19.9443279486288
-0.00351917121307859,19.9454749540031
-0.00256110186016595,19.9466694382206
-0.0016891485826601,19.9479183798287
-0.000904577462232235,19.949230680442
-0.000208033169914722,19.9506179701211
0.000400544341534068,19.952095915272
0.000922026474398162,19.9536864877073
0.00133807856336923,19.9553297810943
0.0016603905313335,19.9570264208384
0.00190440637315683,19.9587949749658
0.00208431988232129,19.9606588830426
0.00221356423647798,19.9626500595007
0.00230528624294945,19.9648149741196
0.00237310657990469,19.967227932622
0.00243276909351688,19.9700264613475
0.00250778641365196,19.9735477192831
0.00260678661016222,19.9773130508869
0.00272987801161528,19.9810478028755
0.00287601804871946,19.9848025661738
0.00304175863239924,19.9886190768864
0.00322373361711509,19.992531893002
0.00340478278698875,19.996265946501
0.00359058169864814,20
