ecg,time
-0.000104718524474685,15.0014374535098
-0.000297507912424845,15.0043078438278
-0.000469346911184907,15.0072742379142
-0.000647018422616309,15.0108780261731
-0.000859111455795668,15.0161902368893
-0.00102825688779353,15.0217461132977
-0.00113712985853404,15.0268158464608
-0.00119083959007416,15.0313631553741
-0.00119106205712307,15.0354355970462
-0.00113646347487552,15.0390818758666
-0.00102420904780627,15.0423565343389
-0.000850244004925224,15.045318793757
-0.000608617511695325,15.0480325696959
-0.000289247250101134,15.0505713949339
0.000126817159265205,15.0530260523064
0.000684272692898427,15.0555512184627
0.00144657101869912,15.0582846699715
0.00222465757785289,15.060632854197
0.00309181845998702,15.0629810384226
0.00396915095117839,15.0652021964468
0.00508572982477385,15.067883710606
0.00596488350205651,15.0698749239977
0.00691266561819264,15.0718661373893
0.00790152151845666,15.0737420611735
0.00893255023659285,15.0754729771842
0.010065464488489,15.0771331278298
0.0113473228913249,15.0787545753428
0.012792952463093,15.0803215666772
0.014439960187172,15.0818457756037
0.0163007683092727,15.0833137009402
0.0184055683650808,15.0847293681704
0.0207804590966838,15.0860924582745
0.0234524520563891,15.0874029263465
0.0264474550825505,15.0886600699914
0.0298079863003803,15.0898691700288
0.0335777462653886,15.0910332753537
0.0378076570329172,15.0921556269907
0.0425571052993314,15.0932395286102
0.0478961684175733,15.0942884211235
0.053908729271542,15.0953059800083
0.0606940276804668,15.0962958302975
0.0683713131740953,15.0972617421805
0.0770853458645599,15.0982077062653
0.0870144286085437,15.0991380792764
0.0983816280017691,15.1000577466722
0.111471184669625,15.1009723536181
0.126654244670195,15.1018887025402
0.14443070278876,15.1028153976197
0.165504132283304,15.1037640730522
0.190150635759244,15.1047236815767
0.218717026886725,15.1056902562007
0.251979086964804,15.1066751450918
0.291022891659312,15.1076961094761
0.337690601880883,15.1087889007775
0.37326185022884,15.1095640904447
0.409932063072239,15.1103392801119
0.442512701888319,15.1110322636696
0.471052466017531,15.1116687257436
0.495957703594574,15.1122792111742
0.517134917256831,15.1128872169094
0.534030903970874,15.1135165835271
0.545415763456167,15.1142006400572
0.548481159774772,15.1149804639688
0.540239496402363,15.115777086597
0.519499296635228,15.1166097901619
0.484504250961128,15.1174942683312
0.433081231143151,15.1184410885114
0.369172892506314,15.1193760891702
0.324996335637603,15.1199411338509
0.27755658363481,15.1205061785316
0.23541360294502,15.1209886336435
0.198954404775831,15.1214020331701
0.16672562037381,15.121772240039
0.137760735467427,15.1221154687482
0.111446549629705,15.1224423481519
0.0873372218560087,15.1227611709119
0.0650391489569092,15.1230801105177
0.0440811264158103,15.123410313384
0.02351706684205,15.1237762949997
0.00806001319802518,15.1240916327167
-0.000702435636268342,15.1242920218546
-0.00867447604280954,15.1244924109925
-0.0152035245447104,15.1246727742955
-0.0212444828686962,15.1248561088814
-0.0273161029647103,15.1250606213694
-0.0331708618281523,15.1252828214258
-0.0386515190147819,15.1255206179249
-0.0436708123389946,15.1257732866965
-0.0481834272199676,15.1260410144053
-0.0521693721775331,15.1263246447657
-0.0556241044513294,15.126625558258
-0.0587347687127775,15.1269700328781
-0.0610661337667229,15.1273105683441
-0.0628900074579771,15.1276752419672
-0.0642237186837703,15.1280680540475
-0.0650812717926553,15.1284935562814
-0.0654743319781171,15.1289574363894
-0.0654105046672966,15.1294669204792
-0.0648910216301839,15.1300314594025
-0.063904817212177,15.1306651201843
-0.0624246206849393,15.1313863906008
-0.0603946868912178,15.1322235748862
-0.0576973785527902,15.1332265169985
-0.0540199058728156,15.1345132432498
-0.0499101128001764,15.135913927331
-0.0459322509616445,15.1372699660798
-0.0421354333721581,15.1385858450555
-0.0385439252215989,15.1398636809701
-0.0351703430269334,15.1411041966961
-0.0320204274551271,15.1423074135348
-0.0290951918573303,15.1434730200017
-0.0263920900602306,15.1446005660881
-0.0239057914546359,15.1456895632684
-0.0216287870439707,15.1467395313405
-0.0195519113252835,15.1477500135072
-0.0176648092190367,15.1487205712348
-0.0159563555255184,15.1496507652548
-0.0143721549149587,15.1505656415659
-0.0128464620647558,15.1515038688555
-0.0113839749291615,15.152466885326
-0.00998865458170857,15.1534567510455
-0.00866427569624588,15.154475879272
-0.00741437249458584,15.1555271260723
-0.00624218700445572,15.1566139045605
-0.00515061499293445,15.1577403382708
-0.0041421495351118,15.1589114717388
-0.0032188217567084,15.160133567392
-0.00238213763102664,15.1614145374684
-0.00163300855080232,15.1627645965625
-0.000971671225658571,15.1641972943231
-0.000397588044431111,15.1657312482867
8.09636899242456e-05,15.1673554991285
0.00045730457285924,15.1690242670534
0.000748098661342586,15.1707558423946
0.000968064061630137,15.1725708068098
0.00113098722854044,15.1744965163129
0.00125012282252776,15.1765714535729
0.00133878579763059,15.1788542184415
0.00141145104394027,15.1814450285554
0.00148671225161085,15.1845529746696
0.00158498203106788,15.1882862031014
0.00171034639206452,15.1922273292226
0.00187222618292568,15.1965167099373
0.00205116374810391,15.2007562233983
0.00224905477321551,15.2051741109677
0.00248334956764174,15.2102709720312
0.00271160862424057,15.2151858149648
0.00294420264395229,15.220174540425
0.00314639214680436,15.2244719575866
0.00333300348139616,15.2283901312888
0.00351530889262732,15.2321543083866
0.0036989850985647,15.2358668188892
0.00388786462332635,15.2395882266124
0.00408512868339126,15.2433619414976
0.0042937677686031,15.2472229611067
0.00451684136728838,15.2512021827773
0.00475768035695137,15.2553291964536
0.00502004879371972,15.2596337965115
0.00530834010036344,15.2641472236458
0.00562787633742702,15.2689034074927
0.00598541832414444,15.2739403844616
0.00637899007749244,15.2791586587576
0.00678912679203333,15.2842504540915
0.00722491620741312,15.2892959570662
0.00768733657907985,15.2942602764221
0.00818176882498589,15.2991534343529
0.00871370277483607,15.3039777186915
0.00928967284474338,15.3087376650315
0.0099168143069196,15.3134351786195
0.0106036808136579,15.3180749647822
0.0113758478903594,15.3227520017389
0.0122476154672095,15.3274558986386
0.0132414873871381,15.3322041531584
0.014388843242874,15.3370297943004
0.0157415259740714,15.342012250015
0.0174091925572911,15.3473656573486
0.0197994140387875,15.3540027267673
0.0214225624139024,15.3580783308618
0.0231113926438075,15.3621539349563
0.0245773731445981,15.3657226599627
0.0258105697549815,15.368923504901
0.0268389135853797,15.3719605622709
0.0276345477635008,15.3748890265418
0.0281648449912696,15.3777063724333
0.0284256778589413,15.3805344607927
0.0283814291903749,15.3835375865468
0.0279020663275139,15.3870984456926
0.0271019731502488,15.3903268254501
0.0260121795061725,15.3935552052076
0.0249277632303111,15.3962542561567
0.0238584014207503,15.398671414494
0.022790429374125,15.4009519202856
0.0217228466825309,15.4031583553034
0.020658494194703,15.4053242311768
0.0196009691456839,15.407471010367
0.0185538577438865,15.4096140204677
0.0175205307257146,15.4117650563495
0.016504088320824,15.4139337377654
0.0155073553913447,15.4161282922269
0.0145328858772118,15.418356059401
0.0135829760972503,15.4206238250573
0.0126596756610906,15.4229380679785
0.011764795131766,15.425305158901
0.0108999185851631,15.427731513621
0.0100664121402823,15.4302237369067
0.00926543075163845,15.4327887650333
0.00849124356910421,15.4354579511316
0.00772936890634083,15.4383048265898
0.00698357509357648,15.4413496898363
0.00625762207894159,15.4446168441865
0.0055554854129915,15.4481343826501
0.00488132220018974,15.4519348987098
0.00423940438423492,15.456056431506
0.00363400862479562,15.4605438218293
0.00306923863642231,15.4654509677227
0.00254877660007584,15.4708448637702
0.00207560891238297,15.4768127553368
0.00165193193125456,15.4834723322626
0.00129258354222269,15.4906803760514
0.000994305937582829,15.4984855426882
0.000759422096403066,15.5070185762497
0.000596416726773346,15.515688599019
0.000477367310277009,15.5246996842004
0.00038672973538238,15.5346352943403
0.000327158164746616,15.5446352943403
0.0002909268600329,15.5546352943403
0.000272045282284755,15.5646352943403
0.000266263087352882,15.5746352943403
0.000270742927500637,15.5846352943403
0.000283802973227566,15.5946352943403
0.000304693141859882,15.6046352943403
0.000333445611222306,15.6146352943403
0.000370829591685701,15.6246352943403
0.000418427639127994,15.6346352943403
0.000476260229198968,15.6442432507951
0.000543188035261361,15.653097694422
0.000619987131021846,15.6612463521598
0.000707809639573427,15.6687479011001
0.00080806163287394,15.6756565489036
0.000922381880395354,15.6820219972921
0.00105264977037357,15.6878899188399
0.00120100683853069,15.6933023639697
0.00136988739519039,15.69829809435
0.00156205478149536,15.7029128815543
0.00178064727374884,15.7071797827726
0.00202923224933355,15.7111293957426
0.00231187468910715,15.7147900879152
0.00263322035434424,15.7181882201251
0.00299860410327808,15.7213483765945
0.00341419080068349,15.7242936018069
0.00388716306148737,15.7270456548433
0.00442598351046721,15.7296253095781
0.00504077208916967,15.7320527306021
0.00574125869777074,15.7343401972019
0.0065162227106223,15.7364461369409
0.00737569758415154,15.7384067092052
0.00833514039806284,15.7402587598807
0.00941902219769312,15.7420422420509
0.0106718291735155,15.7438105719459
0.0122231258860065,15.7456948248834
0.0145709343701166,15.7481317590822
0.0161088482821903,15.7495621004883
0.0177250418647526,15.7509924418943
0.0191959869190531,15.752277819865
0.0205097327830016,15.7534580562955
0.0216853884889824,15.7545915378454
0.022718901462227,15.7557195298094
0.0235895188849446,15.7568820661384
0.0242566642003589,15.7581344235467
0.0246362588769918,15.7595887212312
0.0244200236799208,15.7617155565237
0.0237414452035538,15.7632665481051
0.022718232864229,15.7648175396866
0.021553215627805,15.7662442090725
0.0202509344314666,15.7676651909407
0.018819833128648,15.7691330449047
0.0172689519349192,15.7706852877977
0.0163004608448492,15.771655650024
0.0153555552692634,15.7726260122502
0.0139096873560459,15.7742012912138
0.0116510944040746,15.7769420904519
0.00979160515252432,15.779545321371
0.00827602768126853,15.7819920979384
0.00703055305050742,15.784302992658
0.00599586888221846,15.7865003698648
0.00512507477505119,15.7886086765721
0.00438051811281365,15.7906571776177
0.00373047187715927,15.7926860644189
0.00314446653488974,15.7947632947899
0.0025801677671329,15.7970528376545
0.00212668457566125,15.7991602806857
0.00172807762503787,15.8012677237169
0.00144275201871789,15.8029609094088
0.00121446535943041,15.8044514641879
0.00101211569842626,15.8058926991149
0.000821005102823917,15.8073756309766
0.000628942065401878,15.8090062073833
0.000416168763241495,15.8110088105116
6.73147319827225e-05,15.8148633305373
-0.000239529378489428,15.8190669588718
-0.000512610426183764,15.8237610641267
-0.000763369265034053,15.8292901993185
-0.000958914106432145,15.8349436160852
-0.00109345862661423,15.840234714764
-0.00117108826519128,15.8450055538326
-0.00119508800027804,15.8492841292779
-0.00116511859430334,15.853112652913
-0.00107889544169368,15.8565463653805
-0.00093299257267891,15.8596397147114
-0.00072232440283667,15.8624570303892
-0.000439063520164656,15.8650654957454
-6.96787734826333e-05,15.8675428091034
0.000413939579729087,15.8700009571545
0.00108829185415736,15.8726726128682
0.0019884709851448,15.8755555090606
0.00294512040579789,15.8782036822022
0.0038154158100908,15.8804292981956
0.00486402785684622,15.8829732323278
0.00576846925989829,15.8850481806743
0.00674023326666432,15.8871231290208
0.00769084350236801,15.8889631016134
0.00873724634027391,15.8907633721284
0.00983458765139091,15.8924137917859
0.0110881143667056,15.8940457621836
0.0125181360073743,15.8956422408221
0.014116589862879,15.8971659644137
0.0159365843164868,15.8986457059996
0.0179996324703534,15.9000755413677
0.0203201229593724,15.9014476086394
0.0229283515191103,15.9027652839185
0.025858994776995,15.9040321704126
0.0291481373380868,15.9052505468033
0.0328375730758807,15.906423167631
0.0369755840014121,15.9075529832809
0.0416215401966262,15.9086438209727
0.0468437210233279,15.9096991392314
0.0527227801100871,15.910722453604
0.0593545043970928,15.9117173420755
0.0668540428896774,15.9126875549409
0.0753611167628817,15.9136370674883
0.0850471027249018,15.914570160638
0.0961256343880784,15.9154916005995
0.108867940235105,15.9164068656221
0.123626611290023,15.9173225153815
0.140873678777666,15.9182467711575
0.161267281093058,15.9191905882731
0.185250694960986,15.9201501008619
0.213031623737609,15.9211149062712
0.245346618803095,15.9220956401448
0.283206798695433,15.9231084308821
0.328246117731041,15.9241839722151
0.364641795674823,15.9249875593073
0.402480573185886,15.9257911463995
0.436026071201085,15.9265019277871
0.465337911032112,15.9271474794244
0.490973264413179,15.9277615181129
0.512936147908025,15.9283684371721
0.530773859508357,15.9289913948362
0.543435436525974,15.9296606460793
0.548546251624954,15.9304324452163
0.542622598032288,15.9312243123479
0.524485709639763,15.9320485788299
0.492488345364507,15.9329218039885
0.444518201385648,15.9338556252686
0.381849149832831,15.9348093259513
0.336459380048036,15.9354046632356
0.287178559074698,15.9360000005199
0.243508870810259,15.9365028672024
0.20600415460934,15.9369282201261
0.173009875163794,15.9373057303038
0.143440557708533,15.9376535251147
0.116628382162089,15.9379830645581
0.0921041086785946,15.9383029282549
0.0694721408033777,15.9386211277342
0.0482934570053873,15.9389477880466
0.027794689371777,15.9393027031705
0.00938156247696754,15.9396698675718
9.45750669614266e-05,15.9398799922384
-0.00832035422573472,15.940090116905
-0.0149144256588815,15.9402715090164
-0.0209449088419293,15.94045371546
-0.0270206387122181,15.9406573051474
-0.0328897047973632,15.9408787337537
-0.0383904612905897,15.9411158263178
-0.0434329985722988,15.9413678040665
-0.04797041847655,15.9416348163921
-0.0519817650110045,15.9419176786395
-0.0554619893592852,15.9422177466155
-0.0585752980938838,15.9425580795231
-0.0609361107286429,15.9428972758655
-0.0627888881429577,15.9432604581925
-0.0641506817058469,15.9436515434048
-0.06503557714383,15.9440750250982
-0.0654554180680367,15.9445365146176
-0.0654181011856716,15.9450431331236
-0.0649253814726543,15.9456041186873
-0.0639670045793641,15.9462333228119
-0.0625168826370523,15.9469488390741
-0.0605215481620421,15.9477781842331
-0.0578688782755541,15.948769281601
-0.0542675145093308,15.9500326776203
-0.0501520884660853,15.951436483237
-0.0461646785873787,15.9527950697883
-0.0423562598792195,15.9541132852381
-0.0387520794500801,15.9553933708892
-0.0353652850589906,15.9566361125047
-0.0322019576789554,15.9578415624799
-0.0292633565936805,15.9590094236405
-0.026547124975142,15.9601392514652
-0.0240480807170789,15.9612305584735
-0.021758829693367,15.9622828636012
-0.0196702916751692,15.9632957088419
-0.017772170305697,15.9642686551289
-0.0160533753911256,15.9652012640651
-0.0144657903828478,15.9661147768117
-0.0129363992562554,15.9670515763981
-0.0114699706756964,15.9680130511194
-0.0100704751292711,15.9690012422915
-0.00874170009144949,15.9700185395991
-0.00748719559013031,15.9710677696462
-0.00631022261403265,15.9721523082641
-0.00521369917799338,15.973276231108
-0.0042001440350226,15.9744445201258
-0.00327161760486071,15.9756633541499
-0.00242965904600718,15.97694053079
-0.00167521727911869,15.9782861022503
-0.00100857168701746,15.9797133784556
-0.000429233989499857,15.9812406036365
5.60134985652728e-05,15.9828627483369
0.000437973144981941,15.9845283323962
0.000733477372359749,15.9862556590764
0.000957310174906386,15.9880649926966
0.00112330440385245,15.989983194865
0.00124473344709388,15.9920479025803
0.0013348874824315,15.9943161142639
0.0014081244589624,15.996884484264
0.00148262466497699,15.9999514811052
0.00158012754428595,16.0036844820593
0.00170351100840667,16.0076016815938
0.00186431659014752,16.0118929680611
0.00204254813272533,16.0161318700095
0.00223986151411022,16.0205434641109
0.00247314423380608,16.0256186378291
0.00270150952293044,16.0305335264255
0.00293400021715304,16.0355174662786
0.00313687222190504,16.0398284239106
0.00332375037772666,16.0437522990654
0.00350611232238102,16.0475187509673
0.00368971154984227,16.0512317230037
0.00387840828688138,16.05495238989
0.00407539335575,16.0587244417915
0.0042836577345504,16.0625830186781
0.00450625459995522,16.0665590773704
0.00474650301565121,16.0706822206025
0.00500814942396395,16.0749822225942
0.00529556222503465,16.0794902763837
0.00561402661471823,16.0842402310031
0.00597024787565295,16.0892700130297
0.00636323689899972,16.0944935673539
0.00677240871901838,16.0995868523667
0.00720721788050924,16.1046354382802
0.00766846589978558,16.1096024215471
0.00816154227803795,16.1144982444713
0.00869189434082467,16.1193250417807
0.00926603374515028,16.124087441703
0.0098910673197405,16.1287874026548
0.0105749133749329,16.13342578888
0.0113435892969088,16.1381020190642
0.0122111128734537,16.1428045990645
0.0131997519419035,16.1475507339298
0.0143403791618673,16.1523723503472
0.0156836504374101,16.157346144125
0.0173353263776578,16.1626771422147
0.0196741182245536,16.169210269512
0.0213152565307921,16.1733489395941
0.023028285004927,16.1774876096762
0.0245091695481204,16.1810862552584
0.0257531836635473,16.1843001969306
0.0267917924245829,16.187341869633
0.0276009643233183,16.190279134641
0.0281444475518032,16.1930993222382
0.0284192192584016,16.1959236079177
0.028391930474952,16.1989123225318
0.0279417292626179,16.2024249894993
0.0271478504815512,16.2057028975934
0.0260521596222069,16.2089808056874
0.024965433561868,16.2116979919849
0.0238957646005139,16.2141221128407
0.0228277946543647,16.2164061101805
0.0217601589795292,16.218614479322
0.0206956329648197,16.220781368219
0.0196378056302658,16.2229285324079
0.0185902686221097,16.2250714599606
0.0175564014829593,16.2272220425625
0.016539314222737,16.2293899608071
0.015541841331464,16.2315834814825
0.0145665459684573,16.2338099694117
0.0136157334548492,16.2360762250851
0.0126914616602549,16.2383887353511
0.0117955493147606,16.24075387239
0.0109295887557293,16.2431780470515
0.0100949529212451,16.2456678575521
0.0092928044498133,16.2482302256329
0.0085182437718409,16.2508934740915
0.00775586303444348,16.2537337557713
0.00700943416567429,16.2567712273004
0.00628270863992392,16.2600300709475
0.00557965507616799,16.2635382330944
0.00490442496528818,16.2673281334637
0.00426128756852556,16.2714375987562
0.0036545216597362,16.2759111985389
0.00308824086557587,16.2808024537297
0.00256614728341767,16.2861777887861
0.00209125460885676,16.2921235698901
0.00166578453198696,16.2987562073319
0.00130410601042081,16.3059446819069
0.00100372741529412,16.3137263591557
0.000766468517160475,16.3222305710513
0.000594469065923855,16.331306344398
0.000478140056298885,16.3401233999854
0.000386896663358907,16.3500841089849
0.000327054031031143,16.3600841089849
0.000290582287304014,16.3700841089849
0.000271483922297284,16.3800841089849
0.000265497024910045,16.3900841089849
0.000269769232570886,16.4000841089849
0.00028260270412913,16.4100841089849
0.000303230587458084,16.4200841089849
0.000331665779542885,16.4300841089849
0.000368652607491199,16.4400841089849
0.000415738640420645,16.4500841089849
0.000473140851394499,16.4597254329052
0.000539595574864039,16.4686119743272
0.000615860538655029,16.4767902640011
0.000703075861000528,16.4843191157332
0.000802636423839498,16.4912529073367
0.000916169244638764,16.4976414950546
0.0010455406873605,16.5035306915158
0.00119287760313548,16.5089626753146
0.00136059760692027,16.5139763261001
0.00155144506037425,16.518607523629
0.00176853638744007,16.5228894237544
0.0020154137402558,16.5268527139299
0.00229611267278013,16.5305258427283
0.0026152441543925,16.5339352428473
0.00297810145302692,16.537105560155
0.00339079869264404,16.540059889583
0.00386045534226734,16.5428200271407
0.00439545332231309,16.5454067661597
0.0050058058763125,16.5478402669888
0.00570252976653898,16.5501370031363
0.00647326140975655,16.5522502633934
0.00732778250338255,16.5542161641266
0.00828117885763564,16.556071474813
0.00935717785564248,16.5578556906967
0.0105984537773864,16.5596207758953
0.012124088886332,16.5614877498366
0.0144193321095349,16.5638881217336
0.015968378011595,16.5653362544813
0.0176024503675167,16.5667843872289
0.0190914318866465,16.5680824868136
0.0204192689844795,16.5692683408342
0.0216082497334454,16.57040327307
0.022656069029511,16.5715293938966
0.0235433854501881,16.572686257968
0.0242318080421675,16.57392684102
0.024643284183727,16.5753545395986
0.0245185089580548,16.5773591950736
0.0238886510362797,16.5789451769489
0.0228837372800244,16.5805311588243
0.0217358445216188,16.5819647895651
0.0204502635709726,16.5833823448334
0.0190343923489824,16.5848414771848
0.0174975323995608,16.5863803277694
0.0164680498513573,16.5874095155806
0.0154604586084663,16.5884387033917
0.0144119440253186,16.5895627258158
0.012068299105427,16.5923275789341
0.0101298696432132,16.5949649098414
0.0085520946356104,16.5974418196927
0.00725811204694084,16.5997784397779
0.00618571722961188,16.6019969169221
0.0052857601845999,16.6041211248521
0.00451898611880794,16.6061790313333
0.00385277978473198,16.6082078283211
0.00325698558833797,16.6102673615881
0.00269401889914872,16.6124893038621
0.00218063626344851,16.614821261045
0.00184599770352442,16.6165434143871
0.00154463106608592,16.6182655677292
0.00130075174233601,16.6198031330962
0.00109056424031244,16.6212516705884
0.000896625868287485,16.6227076283618
0.000706777317563947,16.6242633147053
0.000506163070025893,16.6260734590987
0.000252288791678592,16.6286641937102
-2.93346582581617e-05,16.6320449470913
-0.000236855698490472,16.6349921238902
-0.000411180710123534,16.6378670153698
-0.000584832747547757,16.6412097945381
-0.000780183571930486,16.6457561679387
-0.000971323821576277,16.6514498242822
-0.00109927500090905,16.6566922173075
-0.00117064092203706,16.6614117961975
-0.00118836395940717,16.6656435990078
-0.00115190552623474,16.6694273746272
-0.00105892300617024,16.6728214558781
-0.000905819824752087,16.6758827917157
-0.000687363276155819,16.6786743770089
-0.000395504573906506,16.6812629716527
-1.54480207162624e-05,16.6837313769437
0.000483468406498421,16.6861968202593
0.00117765096709217,16.6888813111817
0.00210753703343202,16.6918026678943
0.00304111267624267,16.6943579104931
0.00391642438519501,16.6965830089301
0.00500310636506206,16.6992040239866
0.00590447123695709,16.7012562425388
0.00687641023535208,16.703308461091
0.00784234812794773,16.705151749068
0.0088765032983513,16.7069012989711
0.0100046718649958,16.7085674359059
0.011274689570064,16.7101872710636
0.0127140891164387,16.7117609512316
0.0143485620908887,16.7132864931114
0.0161984438604048,16.7147582283183
0.0182928571062716,16.716178680719
0.0206534573210475,16.7175446503685
0.0233045529739089,16.718855443839
0.0262826596712495,16.7201156070452
0.0296246905804005,16.72132758338
0.0333737245523003,16.7224943194726
0.0375781706082373,16.7236185264131
0.0422992198207626,16.7247042168151
0.0476067799477014,16.7257548733819
0.0535834273972689,16.7267740206968
0.0603275070107422,16.727765275366
0.0679568362574129,16.7287323597726
0.0766151713179591,16.7296793100828
0.0864789858067964,16.7306104621823
0.0977687678988065,16.7315306631637
0.110765320314214,16.7324455169935
0.125834737573086,16.7333617563188
0.143469697069879,16.7342878983777
0.164361746104497,16.7352354024443
0.188830837827383,16.7361950676202
0.21718724497385,16.7371612716167
0.250196320981323,16.7381451767688
0.288923858845961,16.7391641046987
0.335154038379251,16.7402524041231
0.370933288807476,16.741034921382
0.407899336572176,16.7418174386408
0.440725420016558,16.7425150487925
0.469464614161655,16.7431539239575
0.494560617137372,16.743765374624
0.515945205032366,16.7443730988668
0.533092639690771,16.7450007181874
0.544823949126817,16.7456806519311
0.548440081059001,16.7464603220082
0.540796934219545,16.7472557159805
0.520732223538822,16.7480862380617
0.486517901410958,16.7489677971968
0.435996234111444,16.7499112281573
0.372344759433061,16.7508517693831
0.327870559032226,16.7514242243553
0.27998151359006,16.7519966793274
0.237463423911315,16.7524841757857
0.200744933651944,16.7529005615557
0.168324858972261,16.7532726089148
0.139208283583755,16.7536169928381
0.11276890876319,16.7539445427515
0.0885554061196777,16.7542636167769
0.0661742100174104,16.7545823353319
0.0451637109830026,16.754911549491
0.0246295564378247,16.7552743708079
0.00847891174809681,16.7556017773012
-0.000455112602907409,16.7558054047487
-0.00857219887297752,16.7560090321963
-0.0151214103147604,16.7561897357917
-0.0211589974866602,16.7563727373444
-0.0272316574213485,16.756576979788
-0.0330905557142132,16.756798956544
-0.0385771189962619,16.7570365507995
-0.0436032845547852,16.7572890216869
-0.0481232585404189,16.7575565444695
-0.0521167580354914,16.7578399542457
-0.0555791245561728,16.7581406239884
-0.0586977172886166,16.7584847723911
-0.0610364995102559,16.7588249915589
-0.0628675898063356,16.7591893008586
-0.0642083209987279,16.7595816887068
-0.0650727176065586,16.7600066919574
-0.0654724892992636,16.7604699786198
-0.0654153152415338,16.7609787476339
-0.0649025665985284,16.7615423907347
-0.0639233793473857,16.7621749264609
-0.0624507924685594,16.762894735813
-0.0604296591159171,16.7637299158496
-0.057743804174129,16.7647298013898
-0.0540862155939579,16.7660104033186
-0.0499750002145648,16.7674118632906
-0.045994726215443,16.7687685336878
-0.0421949882405294,16.7700849875135
-0.0386002974582069,16.7713633738523
-0.0352234028752572,16.7726044320738
-0.0320701294916029,16.7738081917527
-0.0291415511767357,16.7749743453233
-0.0264351680683828,16.7761024443934
-0.0239456856977931,16.7771920008801
-0.0216656229075845,16.7782425345023
-0.0195858347843453,16.7792535882628
-0.0176959803698235,16.7802247235671
-0.0159849428279708,16.7811555014102
-0.0143998364206184,16.7820700489975
-0.0128731606377367,16.7830079319842
-0.0114096304059125,16.7839705765372
-0.0100132089905087,16.7849600381888
-0.00868767404737351,16.7859787244917
-0.00743656347462015,16.7870294843788
-0.00626312370030493,16.7881157219323
-0.00517025563849753,16.7892415490815
-0.00416045827884391,16.7904119951845
-0.00323576945634111,16.7916333023846
-0.00239770268903131,16.7929133550859
-0.0016471778187339,16.7942623284177
-0.000984441040390307,16.795693713707
-0.00040896552613279,16.7972260375414
7.13274861944499e-05,16.7988497758792
0.000449151306610243,16.8005177706931
0.000741211400483503,16.8022483145481
0.000962242942182003,16.804061911826
0.00112604506144716,16.805985797896
0.00124587894884283,16.8080582486756
0.00133505652435039,16.8103374713898
0.00140802918371137,16.8129228059748
0.00148329915759089,16.8160207025409
0.00158160936188226,16.8197537725811
0.00170672340558459,16.8236890178361
0.0018684254424561,16.8279748236608
0.00204745098111793,16.8322151036518
0.00224581224951226,16.836639915819
0.00248009899468716,16.8417309144696
0.00270856786705301,16.8466444635774
0.00294160945379059,16.8516370072083
0.00314353848146355,16.8559241173386
0.00333012429311354,16.8598379553677
0.00351250325499647,16.8636004282518
0.00369630359670381,16.8673126369213
0.00388534175185617,16.8710346741491
0.00408279352667578,16.8748097347622
0.00429164812830891,16.87867270617
0.00451496632985929,16.8826544398676
0.00475608174669809,16.8867845155312
0.00501876254412371,16.8910927429259
0.00530740834901821,16.895610399474
0.005627351890911,16.9003714785047
0.00598537266645917,16.9054141025322
0.00637891674188085,16.9106309885041
0.00678916112581532,16.9157233646745
0.00722498105420047,16.920768474935
0.00768745258654949,16.9257325625408
0.00818194685780274,16.9306254688996
0.0087139679124146,16.9354495888895
0.00929005040438579,16.9402094298526
0.0099173297251616,16.9449068786586
0.0106043828976335,16.9495467747783
0.0113767673258504,16.9542239059473
0.0122487938654881,16.9589279203863
0.0132429772937987,16.9636763289639
0.0143907223986632,16.9685022162383
0.0157439339649615,16.9734851539753
0.0174124763668457,16.9788397640787
0.0198055063578187,16.9854824727766
0.0214277563410785,16.9895548552526
0.0231153668250066,16.9936272377285
0.024580583319333,16.9971944073349
0.025813201729066,17.0003945661193
0.0268409927946145,17.0034313841293
0.0276359056603966,17.006359389897
0.0281655012073431,17.0091765936038
0.028425592024018,17.0120048953601
0.028380437176725,17.0150088099685
0.0278994899288638,17.0185723370465
0.0270990690380662,17.0217981170321
0.0260095814290448,17.0250238970177
0.0249252887242669,17.0277219787525
0.0238559466220182,17.0301387592365
0.022787977977992,17.0324190749877
0.0217204015789857,17.0346254052804
0.0206560617650328,17.0367912271519
0.0195985561934701,17.0389379870469
0.018551470747591,17.0410810037892
0.0175181756492392,17.0432320669779
0.0165017705601081,17.0454007930725
0.0155050797751481,17.0475954074986
0.0145306566946632,17.0498232486124
0.0135807970998539,17.0520911014835
0.012657550108844,17.0544054445664
0.0117627257962068,17.0567726486608
0.0108979077392319,17.0591991300189
0.0100644616451138,17.0616914939654
0.00926354200635544,17.0642566778163
0.00848937381590395,17.0669261963911
0.00772752489047786,17.0697734407006
0.00698176327990659,17.0728187167943
0.00625584927492002,17.076086334422
0.00555375865739405,17.0796043942565
0.00487964865156579,17.0834054986625
0.00423779111049956,17.0875276973177
0.00363246226805313,17.0920158440194
0.00306776488530085,17.0969238543295
0.00254737948437753,17.1023187487784
0.00207429017412504,17.1082878115238
0.00165069077638462,17.1149487850739
0.00129143686375384,17.1221579185986
0.000993234115425782,17.1299643984816
0.000758409430294938,17.1384990483332
0.000595576672203301,17.1471614760995
0.000476417406333522,17.1561790176811
0.000385728994509037,17.1661159589641
0.0003260850419467,17.1761159589641
0.000289746112361126,17.1861159589641
0.000270720470445646,17.1961159589641
0.000264753968162745,17.2061159589641
0.000269002414147838,17.2161159589641
0.000281773262742832,17.2261159589641
0.000302300528051631,17.2361159589641
0.000330593168937651,17.2461159589642
0.000367386344360155,17.2561159589642
0.00041421182167311,17.2661159589642
0.000471388051282543,17.2757745877385
0.000537589752855978,17.2846778054479
0.00061356631582307,17.2928715163695
0.000700452163347404,17.3004145988357
0.000799636562184396,17.3073615137318
0.000912740419094922,17.3137621932333
0.00104162318826197,17.3196625191193
0.00118840384418642,17.32510473352
0.00135549098740727,17.3301277748067
0.00154561869346406,17.3347675767503
0.00176189151292656,17.3390573445677
0.00200783787389796,17.3430278106238
0.00228747729648092,17.3467074641007
0.00260540178746947,17.3501227735971
0.00296688193460812,17.3532984155931
0.00337800418406793,17.3562575097483
0.00384585356760529,17.359021869618
0.00437876799821705,17.3616122966921
0.00498670256829347,17.3640489466367
0.00568137488624937,17.3663506085462
0.00644979880846791,17.3684677329738
0.00730161841283965,17.3704364089255
0.00825171778411098,17.3722933627261
0.00932342277010696,17.3740778403507
0.010558439798135,17.3758410267508
0.0120703297782215,17.3776986026302
0.0143363485341455,17.380078094012
0.0158913094231048,17.3815358502646
0.017535083705275,17.3829936065172
0.0190345235932465,17.3842990388883
0.0203704343501546,17.3854881082311
0.021566958897797,17.3866238792208
0.0226228044225084,17.3877489928081
0.0235194072398673,17.3889027835528
0.0242195312737728,17.390137051242
0.0246481748293699,17.391550830592
0.0245676358452363,17.3934984401898
0.0239619036673375,17.3951071253161
0.0229629122988684,17.3967158104424
0.0218219537233155,17.3981538712615
0.0205436311479503,17.3995701282235
0.0191343799915464,17.4010254736439
0.0176035312900144,17.4025584902565
0.016493121046933,17.4036676120343
0.0154079920014975,17.4047767338121
0.0143292299348059,17.4059370915098
0.0119986734337978,17.4086988928093
0.0100720906876631,17.4113324047988
0.00850393311140676,17.4138058841654
0.00721769833776907,17.416139485236
0.00615154805578979,17.4183553580256
0.00525663777250717,17.4204774052753
0.00449395213869793,17.4225336722177
0.00383104577367563,17.4245615480809
0.0032378431002113,17.4266214126601
0.0026765762222717,17.4288469822881
0.00217003219974606,17.4311573989908
0.00183691201462563,17.4328775549053
0.00153687539330384,17.4345977108197
0.00129405649786686,17.4361334059587
0.00108463746126611,17.4375810584204
0.000891304640022757,17.4390368500013
0.000701943813023513,17.4405932319092
0.000501669247976706,17.4424059205444
0.000247452194040694,17.4450092263899
-3.19236855122859e-05,17.4483744698043
-0.000237881700406468,17.451307071408
-0.000411416994138538,17.454174849792
-0.000584482339511469,17.457512387487
-0.000779140212523905,17.4620499173962
-0.000970046923789146,17.4677457798923
-0.00109780542612492,17.4729906776742
-0.0011690072187929,17.4777121969154
-0.00118660773968401,17.4819458484884
-0.00115007142181851,17.4857308779765
-0.00105705524936821,17.4891261885656
-0.000903982739031939,17.4921881773192
-0.000685610761698311,17.4949802911133
-0.000393925577403393,17.4975689725634
-1.4223055731133e-05,17.500036686373
0.000483953108773943,17.5025001445059
0.00117735537564924,17.5051832211058
0.00210590228607715,17.5081014641081
0.00304099515862429,17.5106608004718
0.00391623714118203,17.5128850753261
0.00499983489174245,17.5154980498726
0.0058999642680876,17.5175477121182
0.00687017660645987,17.5195973743638
0.00783700876349762,17.521443948243
0.00887032405986674,17.5231938294359
0.00999722060348989,17.5248600210773
0.0112659434167625,17.5264802315947
0.0127036170903621,17.5280540514753
0.0143363044668372,17.5295799048596
0.0161841377163972,17.531051895365
0.0182763550094972,17.5324726434664
0.0206345963895455,17.5338389230613
0.0232831466566418,17.5351500239565
0.0262584929854823,17.5364104871084
0.0295975014215439,17.5376227466799
0.0333431950308005,17.5387897438511
0.0375439035997622,17.539914182514
0.0422607521844816,17.541000078001
0.0475635557315975,17.5420509118519
0.0535347748946143,17.5430702071444
0.0602726093759091,17.5440615786352
0.0678946883936596,17.5450287458123
0.076544524506594,17.5459757413034
0.0863982621693975,17.5469068955733
0.0976759339968987,17.5478270478333
0.110657691116111,17.5487417904263
0.125708654503039,17.5496578381674
0.143319969237823,17.5505836798376
0.164180573290537,17.551530725243
0.188620946330278,17.5524902170788
0.216942847425453,17.5534561390535
0.249909412895237,17.5544396035222
0.288582093404694,17.5554578260025
0.33473293805852,17.5565448450464
0.370563246728691,17.5573286162693
0.407599173558564,17.5581123874923
0.440483335443646,17.5588107093539
0.4692700099668,17.5594498573463
0.494411300464048,17.5600613062922
0.515844333455453,17.560668799708
0.533048795079585,17.5612959248509
0.544855191581853,17.5619749498898
0.548584849774631,17.5627544386728
0.541062352145128,17.5635494686671
0.521130852727046,17.5643794789281
0.487066833459249,17.565260434802
0.436713668490376,17.5662032355326
0.373115849804358,17.5671447282842
0.328561223522886,17.5677188579215
0.280557414328431,17.5682929875588
0.237945042718044,17.5687816052025
0.201161413779617,17.5691986380137
0.168693247424486,17.5695710717622
0.13953852043866,17.5699156886136
0.113067616597148,17.5702433645401
0.0888277329259742,17.5705624735477
0.0664250849871615,17.5708811263552
0.0453998259452005,17.5712101145119
0.0248676509260819,17.5715722699478
0.00856231212959403,17.5719023090824
-0.000406564455485568,17.5721065512271
-0.00855314511888239,17.5723107933719
-0.0151068084686125,17.5724915370133
-0.0211441697569186,17.5726744448062
-0.0272175856962985,17.5728786052047
-0.0330779098183056,17.5731005083745
-0.0385662664799063,17.5733380322812
-0.0435944099397955,17.5735904325606
-0.0481164365265605,17.5738578820161
-0.0521119966460443,17.574141213808
-0.0555764159191957,17.5744417991815
-0.058692591431634,17.5747852572333
-0.061034246005344,17.5751253234647
-0.0628681598644562,17.5754894687772
-0.0642116133685647,17.5758816702051
-0.0650786403432819,17.576306459317
-0.0654809684115871,17.5767694972932
-0.0654263042116779,17.5772779737783
-0.0649160685474837,17.5778412598133
-0.0639394666955809,17.5784733580654
-0.0624696395663302,17.5791926140796
-0.0604516331336945,17.5800270568348
-0.0577697379579006,17.5810258555875
-0.0541187689152557,17.5823043746401
-0.0500067067193784,17.5837061516928
-0.0460252049766146,17.5850630943273
-0.0422240366350549,17.5863798064336
-0.038627808140418,17.5876584472415
-0.0352493220358851,17.5888997610275
-0.0320944391242083,17.5901037795917
-0.0291642601126146,17.591270196199
-0.0264563063485166,17.5923985625772
-0.0239653002833173,17.5934883904325
-0.0216837739866797,17.5945391991646
-0.019602592425773,17.5955505314883
-0.0177114214665871,17.5965219486482
-0.0159991483395597,17.5974530116751
-0.0144136297725081,17.5983673969406
-0.0128865045255478,17.5993051100442
-0.0114224958603294,17.600267571233
-0.0100255681388097,17.601256833803
-0.00869950051743406,17.6022753024997
-0.00744783275342495,17.6033258227495
-0.00627381350823663,17.6044117941998
-0.00518034631826023,17.6055373230854
-0.00416993320033186,17.6067074313212
-0.00324461544208609,17.607928351108
-0.0024059104705675,17.6092079532134
-0.00165474254446389,17.6105563934422
-0.000991362875379554,17.6119871345798
-0.000415250426677843,17.6135186587385
6.58495807429431e-05,17.6151421453952
0.000444352711109094,17.6168097606982
0.000736984294283291,17.6185397984574
0.000958487297801537,17.6203527252272
0.00112266631787777,17.6222757173905
0.00124278470281327,17.624346949884
0.00133215130686776,17.6266244384419
0.00140520335189445,17.6292070959145
0.00148039299674785,17.6323000932771
0.00157862080294116,17.6360331075053
0.00170350300936017,17.6399654863664
0.00186524338043743,17.6442556763992
0.00204414948339637,17.6484949705337
0.00224203727616106,17.6529104033891
0.00247615797959186,17.6579987497062
0.00270464658780973,17.6629136012782
0.00293736830416443,17.6679004394938
0.00313995230067394,17.6722031052089
0.00332677336583489,17.6761234838941
0.00350919216427219,17.6798885294971
0.00369291876801122,17.6836011980864
0.00388179807680167,17.6873222905562
0.00407901570770711,17.6910953251654
0.00428756239941289,17.694955353802
0.00451049477160925,17.6989332955174
0.0047511382463737,17.7030587433527
0.00501324867369671,17.7073614814209
0.00530120777454848,17.7118727287689
0.00562032047391956,17.7166263795863
0.00597732201743576,17.7216604223947
0.00637066064990043,17.7268811569343
0.00678038412733217,17.7319737501332
0.00721573987476963,17.7370207249496
0.00767763001014977,17.7419863247555
0.00817143936650158,17.7468807604833
0.00870263898993128,17.7517062577746
0.00927775256049531,17.7564673947519
0.00990390172425817,17.7611661006714
0.0105893309559615,17.7658052131021
0.0113598312332301,17.7704818637925
0.0122295651750586,17.7751851256153
0.0132209216269704,17.7799323520854
0.0143650329804336,17.7847560337833
0.0157131619801857,17.7897342622265
0.0173730524925188,17.7950766997557
0.0197378880582265,17.8016622554694
0.0213697354033088,17.805768275711
0.0230702742548802,17.8098742959526
0.0245435565817619,17.8134575809754
0.0257820777358474,17.8166648206046
0.0268154871721562,17.8197041121012
0.0276178039055635,17.8226368817065
0.0281546188655638,17.8254555920201
0.0284223526707394,17.828281750492
0.0283865225275932,17.8312776506126
0.0279217509573876,17.8348142158926
0.0271247407372919,17.8380669498614
0.0260320877471785,17.8413196838301
0.024946547429631,17.8440277304131
0.0238770381836518,17.8464483697238
0.0228090694491104,17.8487306250067
0.0217414616272579,17.8509380279021
0.0206770231723674,17.8531044082054
0.0196193472958635,17.8552513752879
0.0185720229789052,17.8573943372296
0.0175384254213423,17.8595451373989
0.0165216597922494,17.8617134259693
0.0155245558187772,17.8639074499916
0.0145496720974611,17.8661345615317
0.0135993094900162,17.868401553463
0.0126755217871143,17.8707149082249
0.0117801236716916,17.8730809968233
0.0109147033819564,17.8755062320119
0.0100806304807225,17.8779972145511
0.00927906378043803,17.8805608725782
0.00850468563586057,17.8832270491603
0.0077425526492652,17.8860705817944
0.00699643482224743,17.8891116971431
0.00627008775560808,17.8923746368194
0.00556748340628649,17.8958874190569
0.00489277594225514,17.8996825485174
0.00425023581924228,17.9037979555618
0.00364414060232669,17.908278341737
0.00307859878779982,17.9131774111807
0.00255730231247389,17.9185618648816
0.00208325088345475,17.9245184950663
0.00165865291436806,17.9311643300045
0.00129810420731941,17.9383624368158
0.000998737847008285,17.9461556808493
0.000762557862864453,17.954674090361
0.00059433811171062,17.9635859835795
0.000476941283526728,17.9724848649767
0.000385953342953379,17.9824402953724
0.000326238791732494,17.9924402953724
0.000289841968111833,18.0024402953724
0.000270772666986634,18.0124402953724
0.000264775353196105,18.0224402953724
0.000269002507034963,18.0324402953724
0.000281758234827936,18.0424402953724
0.000302274041800814,18.0524402953724
0.000330557195485626,18.0624402953724
0.000367341640212538,18.0724402953724
0.000414158077943365,18.0824402953724
0.000471331733843136,18.0921000888348
0.000537532434402994,18.101004379899
0.000613509020485077,18.1091990402682
0.000700395762975327,18.116742962851
0.000799581918859684,18.1236906226719
0.000912688462957366,18.1300919641172
0.00104157496581665,18.1359928795438
0.00118836055641161,18.1414356203264
0.00135545402468017,18.1464591329883
0.00154558967675975,18.1510993585224
0.00176187233600602,18.1553895085714
0.00200783075880794,18.1593603212578
0.00228748486052133,18.1630402909806
0.00260542712938339,18.1664558911116
0.00296692875215503,18.1696318025574
0.00337807693065122,18.1725911491781
0.00384595767846588,18.1753557486396
0.00437891022166819,18.177946406623
0.00498689147170456,18.1803832833222
0.00568160312240005,18.182685117069
0.00645007645526424,18.1848024254066
0.00730196181723045,18.1867713066523
0.00825215351442588,18.1886284992379
0.00932399832281975,18.1904132726973
0.0105592543399108,18.1921768672445
0.0120717157834057,18.1940352080224
0.0143403246467867,18.1964173957931
0.0158946369374217,18.1978746133326
0.0175374784516086,18.199331830872
0.0190359680280543,18.200636885877
0.0203711185596815,18.2018258558317
0.0215669344577654,18.2029616851969
0.0226220502866631,18.2040869799423
0.0235178493928706,18.2052410910275
0.0242170198555345,18.2064758987218
0.0246443626483016,18.2078907277157
0.0245608280998085,18.2098421379179
0.0239534977061397,18.2114493178492
0.0229542282838113,18.2130564977805
0.0218129133251997,18.2144943431353
0.0205342300487048,18.2159107562039
0.0191246885165533,18.2173664021641
0.0175936208377628,18.2188998315528
0.0164898940463887,18.2200024803197
0.0154111196340391,18.2211051290867
0.014336595367548,18.2222606317118
0.0120043090648798,18.2250234203259
0.0100762581472899,18.2276579631139
0.00850700860267792,18.230132315025
0.00721998129580086,18.232466615988
0.00615327219357471,18.2346829985502
0.00525798996508436,18.2368053305495
0.00449509208665777,18.2388615873982
0.00383213109705416,18.2408890072978
0.00323907981552782,18.2429475824123
0.00267841306325161,18.2451695946011
0.00216904854558203,18.2474922001462
0.00183582457654803,18.24921306619
0.00153570253299146,18.2509339322337
0.00129283456841709,18.2524701646878
0.00108346288695402,18.2539176948142
0.000890233748811666,18.2553728499438
0.000701035416280677,18.2569279274756
0.000501041137694339,18.2587378569549
0.000247700354430514,18.2613308471051
-3.25959160198217e-05,18.264705042931
-0.000239187773981767,18.2676459199192
-0.000412917694532354,18.2705167328646
-0.000586064473512151,18.2738555286796
-0.000780860741078558,18.27839523303
-0.000971869105875793,18.2840909555824
-0.00109977631736844,18.2893355957539
-0.00117116406194477,18.2940574101276
-0.00118895561691711,18.2982911718072
-0.0011526061823687,18.3020763307035
-0.00105976741093275,18.3054716135242
-0.00090685456477552,18.3085335890334
-0.000688631087574552,18.3113255521297
-0.000397081383029904,18.3139140330953
-1.7490064105091e-05,18.316381577999
0.000480610824539141,18.3188449125932
0.00117387206355083,18.3215274837669
0.00210230328829234,18.3244452460884
0.00303712836669343,18.32700370599
0.00391192864968219,18.3292268038475
0.00499428802654709,18.3318370115845
0.00589484511779568,18.3338880744065
0.00686542166682315,18.3359391372286
0.00783176758463649,18.3377855452928
0.00886478021115742,18.3395358197029
0.00999113259155513,18.3412021813513
0.0112591977885745,18.3428225871201
0.0126961035758886,18.3443966294603
0.0143279303421842,18.3459227444623
0.0161747801421037,18.3473949997929
0.0182658972098191,18.3488160237953
0.0206229159975377,18.3501825839221
0.0232700606559161,18.3514939401679
0.0262438122690367,18.3527546437114
0.029581007680737,18.3539671266576
0.0333246352198015,18.3551343290555
0.0375229853905312,18.3562589543808
0.0422371324845443,18.3573450176848
0.0475368322603531,18.3583960004339
0.0535044716514503,18.359415425301
0.0602381575359987,18.3604069062821
0.0678554007341021,18.3613741616449
0.0764995585090168,18.3623212221022
0.0863465684952573,18.3632524152898
0.0976161802446687,18.3641725762613
0.110588145273655,18.3650872911948
0.125626998319665,18.3660032655295
0.143222977635731,18.3669289730432
0.164063507985703,18.3678757974959
0.188484952348856,18.3688352307229
0.216784255498293,18.3698010342948
0.249723258738362,18.3707842938228
0.288360895254154,18.371802166118
0.334462174510236,18.3728885136053
0.370321095839028,18.3736731007857
0.407396738419692,18.3744576879661
0.440313827967312,18.3751564964457
0.46912723526159,18.3757958629528
0.494293967732928,18.3764073608369
0.51575431088856,18.3770147608694
0.532991197497029,18.3776416286157
0.544840883220808,18.3783201368073
0.548637525959377,18.3790995557665
0.541186782811843,18.3798943986361
0.521335151312573,18.3807241226737
0.487362107277984,18.3816047236175
0.437112207748043,18.3825471367617
0.373548269475734,18.383489209667
0.328950399672719,18.3840643044212
0.280883504476627,18.3846393991754
0.238219084678608,18.3851286654588
0.201399581450492,18.3855460754185
0.168904990941677,18.3859187368184
0.139729328357848,18.3862634931453
0.113241139042812,18.3865912470167
0.0889868159350242,18.3869103815218
0.066572481301494,18.387229001778
0.0455393317014994,18.3875578651281
0.0250088566353699,18.3879196435734
0.00861302057080347,18.3882512395275
-0.000375318467984327,18.3884558323095
-0.00853835460229095,18.3886604250914
-0.0150944669173473,18.3888411974019
-0.0211316041572597,18.3890240574577
-0.0272053378218897,18.3892281770356
-0.0330663531623269,18.3894500444279
-0.0385556091243691,18.3896875346292
-0.0435847601215504,18.3899399013089
-0.0481078426763933,18.3902073159039
-0.0521044708482079,18.3904906105119
-0.0555699480620133,18.3907911554404
-0.0586842759286655,18.391134184979
-0.0610275355142753,18.3914741692157
-0.0628630383616025,18.391838226941
-0.0642080300530821,18.3922303281429
-0.0650765493920548,18.3926550013357
-0.0654803341323559,18.3931179037468
-0.0654271067505508,18.393626219619
-0.0649183168922953,18.3941893080604
-0.0639432107057672,18.3948211623879
-0.0624749898793275,18.3955401073644
-0.0604588157474624,18.3963741319711
-0.0577792571064869,18.3973723080684
-0.0541322136715264,18.3986496198349
-0.0500197950312143,18.4000515713094
-0.0460377222528358,18.4014086608986
-0.0422358687563264,18.4027255107061
-0.0386388943235998,18.4040042860697
-0.0352596309932533,18.4052457342763
-0.0321039589519909,18.4064498885462
-0.0291729932320352,18.4076164427321
-0.0264642663935495,18.4087449487196
-0.023972509780675,18.4098349181653
-0.0216902623921733,18.4108858703415
-0.0196083943633351,18.4118973478397
-0.0177165751292261,18.4128689118378
-0.0160036940504126,18.4138001233973
-0.0144179952910424,18.4147144243535
-0.0128906710246778,18.415652049208
-0.0114264488755149,18.4166144151294
-0.0100292938155885,18.417603574253
-0.00870298582899607,18.4186219298668
-0.00745106569668746,18.4196723255761
-0.006276783310936,18.4207581587246
-0.00518304365722044,18.4218835325897
-0.00417235043284494,18.4230534652195
-0.00324674685472967,18.424274183651
-0.00240775255377564,18.4255535515697
-0.00165629430844464,18.426901714746
-0.000992626236851924,18.4283321211484
-0.000416230725045988,18.4298632298074
6.52392775073059e-05,18.4314865859803
0.000444045783352639,18.4331540043282
0.000736924061312334,18.4348837793737
0.00095862071189713,18.4366963580429
0.00112294264246579,18.4386188861242
0.0012431536049548,18.4406894862003
0.00133255980032794,18.4429660747901
0.00140558931757746,18.4455473437056
0.00148066472478153,18.4486378033705
0.00157876726436455,18.4523707952546
0.00170344815122549,18.4563016901998
0.00186511725447278,18.4605939278608
0.00204389114985065,18.4648328170917
0.00224149206975088,18.4692440275072
0.00247485725307566,18.4743179242309
0.00270325635518543,18.4792327905412
0.00293574144317517,18.4842164207677
0.00313866380324199,18.4885281345334
0.0033255857242861,18.4924523058095
0.00350799650175279,18.4962188526206
0.0036916527838819,18.499931811845
0.00388041542948239,18.5036523930531
0.0040774755673129,18.5074243018092
0.00428582481625174,18.5112826853092
0.00450851752426056,18.5152585023442
0.0047488746241341,18.5193813547134
0.00501064523886875,18.5236810132664
0.00529820133546326,18.5281886653392
0.00561683271511051,18.5329381511751
0.00597325045739424,18.5379673853348
0.00636646051587068,18.5431902308539
0.00677588358567117,18.5482829100679
0.00721097418113337,18.5533308949822
0.0076725375057051,18.558297312785
0.0081659658558367,18.5631925789683
0.00869671167167333,18.5680188216609
0.00927129257846967,18.5727806577647
0.0098968227188795,18.5774800397745
0.0105813680934386,18.5821187282195
0.0113508450048315,18.586795118976
0.012219336534928,18.5914979752996
0.0132091642699858,18.5962445679827
0.0143513153171939,18.6010670714519
0.0156967113284556,18.606042791455
0.0173519778054205,18.6113787753113
0.0197020815362596,18.6179346368792
0.0213391256092038,18.6220589203545
0.0230466544185656,18.6261832038297
0.0245242129498136,18.6297751146174
0.0257658321664459,18.6329861235606
0.0268021772517128,18.6360267498855
0.0276083638709837,18.6389620474295
0.0281489450433297,18.64178158135
0.0284206564040439,18.6446066680404
0.0283896589697823,18.647598481765
0.0279331602749997,18.6511214279733
0.0271379198951596,18.6543883504512
0.0260435625860632,18.6576552729292
0.0249573552563151,18.6603684892485
0.0238877556839038,18.6627911035033
0.0228197859075312,18.6650743468589
0.0217521619164142,18.667282296385
0.0206876734686983,18.6694489624821
0.0196299114212647,18.6715960375481
0.0185824662939687,18.6737389750671
0.0175487157827686,18.6758896457731
0.0165317678350509,18.6780577170022
0.0155344549162184,18.6802514468507
0.0145593382441593,18.6824781944259
0.0136087212472449,18.6847447566604
0.0126846600641854,18.6870576181712
0.0117889717060926,18.6894231502308
0.0109232467689032,18.6918477640141
0.0100888567554437,18.6943380582389
0.0092869626702874,18.6969009566773
0.00851247978461101,18.6995654536275
0.00775020486389242,18.7024071211408
0.00700390894520631,18.7054461459663
0.0062773452856921,18.7087067356275
0.00557448394757415,18.7122168671022
0.0048994775868602,18.7160089962675
0.00425659599514762,18.7201209939709
0.00365011745031206,18.7245974860194
0.00308415340094348,18.729492071538
0.00256240162219026,18.7348712931062
0.00208786985206589,18.740821699126
0.00166277414590788,18.7474599644271
0.00130158075656761,18.7546525429331
0.00100163742430805,18.7624391496698
0.000764807259956693,18.7709494143504
0.000593968353768645,18.7799819023457
0.000477430907018581,18.7888236793004
0.000386340544173604,18.7987849785023
0.000326607750911592,18.8087849785023
0.000290208091663667,18.8187849785023
0.000271152713589664,18.8287849785023
0.00026518631716885,18.8387849785023
0.000269461327346845,18.8487849785023
0.000282282793214074,18.8587849785023
0.000302884944238499,18.8687849785023
0.000331280065660725,18.8787849785023
0.000368210114634939,18.8887849785023
0.000415218121056867,18.8987849785023
0.000472556109484076,18.9084321728195
0.000538939247097559,18.9173243273185
0.000615122878209003,18.9255077687495
0.000702245650220928,18.9330413418897
0.000801701016141308,18.939979460383
0.000915114436866917,18.9463720126261
0.0010443505063523,18.9522648400575
0.00119153404892183,18.9577001473168
0.00135908035183464,18.9627168377738
0.00154973112045984,18.9673508127533
0.00176659970828237,18.9716352476554
0.00201322472202504,18.9756008476252
0.00229363757753972,18.9792760772307
0.00261244435698836,18.9826873834439
0.00297493249831937,18.9858594246076
0.00338720902725745,18.9888153062679
0.00385638461206484,18.9915768329477
0.0043908299719342,18.9941648039189
0.00500054361439371,18.9965993821518
0.00569672484274743,18.9988976437185
0.00646685073283536,19.001012142953
0.00732066976465168,19.0029789965585
0.0082732198563632,19.0048349721332
0.00934813344586289,19.0066195149571
0.0105878565256974,19.0083844171084
0.0121101137479323,19.0102494041035
0.0143986174077615,19.0126455010089
0.015948842863626,19.0140959835842
0.0175849433737997,19.0155464661594
0.0190760966430873,19.0168463441822
0.0204055888017039,19.0180330359708
0.0215961211143095,19.0191682602204
0.0226456156350966,19.0202942473501
0.0235349094988677,19.0214505008011
0.0242258814592832,19.0226897227398
0.0246411997447846,19.0241142835498
0.024526832020701,19.0261053716659
0.0239026698423598,19.0276964349276
0.022899416527378,19.0292874981892
0.0217533270070024,19.0307221961206
0.020469612583261,19.0321394892689
0.0190554768186799,19.033597747682
0.0175202356919716,19.0351352081933
0.0164738667253187,19.0361811725883
0.0154499899809734,19.0372271369833
0.0143991488694146,19.0383542967987
0.0120563957959208,19.0411200735075
0.010118995878844,19.043758146943
0.00854226015060798,19.0462356261038
0.00724928917732847,19.0485726245491
0.00617786750806295,19.0507912592266
0.00527885217888788,19.0529153503967
0.00451301203540237,19.054972764398
0.003847780319889,19.0570004825373
0.00325311364419014,19.0590578206287
0.00269180598951284,19.06127452788
0.00217408711286321,19.0636287147494
0.00184020816415381,19.0653499347599
0.00153950068768427,19.0670711547704
0.00129600544247287,19.0686087418441
0.00108622303179369,19.0700567213176
0.00089271234168834,19.0715115942121
0.000703337300803204,19.0730654825548
0.000503324812670422,19.0748722712663
0.000250717727285614,19.0774518482621
-3.14783138973928e-05,19.080841170788
-0.000239394705300022,19.0837963685742
-0.000413710594274387,19.08667382245
-0.000587251040501165,19.0900172556291
-0.000782553967906279,19.0945652906104
-0.000973671602931116,19.100259338216
-0.00110170053791387,19.105501967647
-0.00117321919357383,19.1102223633891
-0.0011911226515837,19.1144546673569
-0.00115485686848647,19.1182388492565
-0.00106207078021666,19.1216330529712
-0.000909158962188121,19.1246944093478
-0.000690899015062131,19.127485740263
-0.000399245387726586,19.1300739032914
-1.9407584291416e-05,19.1325417269516
0.000479242183529512,19.135006316233
0.00117304828191219,19.1376894917206
0.00210245212692614,19.1406090941132
0.00303610034864255,19.1431639988772
0.00391075702126434,19.1453869188184
0.00499468762630055,19.1480011886675
0.00589641020206387,19.150054747278
0.00686847197694657,19.1521083058884
0.00783402558117882,19.1539522931125
0.00886753413412191,19.1557024515951
0.00999456815890674,19.1573687764348
0.011263309360876,19.1589889638937
0.0127011359450964,19.1605629451617
0.0143339197418133,19.1620889206565
0.0161818494825276,19.1635610598465
0.0182741159286362,19.1649819483435
0.0206323900520065,19.1663483831303
0.0232808377426407,19.1676595932422
0.0262559813982508,19.1689201512226
0.0295946815610614,19.1701324950357
0.0333399531806578,19.1712995678881
0.0375401327174401,19.1724240791498
0.0422563163775296,19.1735100398924
0.047558305250896,19.1745609327225
0.0535285405805712,19.1755802810833
0.0602651972170438,19.1765716998784
0.0678858730123892,19.1775389086284
0.0765340369876417,19.1784859395277
0.0863857772594315,19.1794171225481
0.0976610504280313,19.1803372961375
0.11063990255509,19.1812520514911
0.125687304998204,19.1821681016975
0.143294178871147,19.183093932761
0.16414910320436,19.1840409496768
0.188583840432723,19.1850004498522
0.216899068854637,19.1859663677148
0.249857612685885,19.1869498104404
0.288520321646055,19.1879679809751
0.334657546760286,19.1890548773806
0.370494052049078,19.1898388863548
0.407538875521422,19.1906228953289
0.440430381190893,19.1913213699876
0.469222946405546,19.1919606009169
0.494369830760994,19.192572087379
0.515808934006931,19.1931795795497
0.533020770383604,19.1938066583371
0.544837365084445,19.1944855646472
0.548583562151168,19.195265055103
0.541079092571822,19.196060052948
0.521168004749348,19.1968900005387
0.487127680766028,19.1977708692505
0.43680204970743,19.1987135661221
0.373213066443493,19.1996552196696
0.328650017384374,19.2002295726525
0.280633181828204,19.2008039256354
0.23800991491096,19.2012926951223
0.20121879537537,19.2017098179713
0.168745128649181,19.2020823074449
0.139586050437243,19.2024269596015
0.113111559168634,19.2027546564644
0.0888686912443233,19.2030737740637
0.0664636619185637,19.2033924216958
0.045436894966357,19.2037213826347
0.0249055125125295,19.2040834501742
0.00857871140427479,19.2044138663577
-0.000394711121972982,19.2046181949401
-0.00854512992470115,19.2048225235225
-0.015099339169252,19.2050032773768
-0.0211365991930483,19.2051861768892
-0.0272100340392966,19.2053903307921
-0.0330704622784192,19.2056122287957
-0.038558972436441,19.2058497481565
-0.0435872973399622,19.2061021440536
-0.0481095205569025,19.2063695889824
-0.0521052847364405,19.2066529158715
-0.0555699107275339,19.2069534957671
-0.0586863314104849,19.2072969501459
-0.0610281844221714,19.2076370094301
-0.0628622937907748,19.2080011465667
-0.0642059404649427,19.2083933383348
-0.0650731589680824,19.2088181159242
-0.065475678321494,19.2092811400093
-0.0654212074267801,19.2097895995347
-0.0649111711759401,19.2103528640318
-0.0639347808840922,19.2109849349001
-0.0624651866546759,19.2117041549094
-0.0604474518507716,19.2125385476468
-0.0577659083133703,19.2135372691342
-0.0541155278281234,19.2148156316411
-0.0500035232273689,19.2162174271874
-0.0460220526838741,19.2175743843063
-0.0422209010423649,19.2188911092422
-0.0386246807581854,19.2201697620972
-0.0352461974708349,19.2214110876003
-0.0320913138541911,19.2226151177861
-0.0291611319001989,19.2237815460379
-0.0264531739121233,19.2249099241395
-0.0239621630768545,19.2259997638204
-0.0216806320288399,19.2270505844876
-0.01959944615493,19.2280619288577
-0.0177082716125734,19.2290333581783
-0.0159959958088969,19.2299644334881
-0.0144105085198773,19.2308788118911
-0.0128834138065366,19.231816517804
-0.0114194353157854,19.2327789712218
-0.0100225375125486,19.233768225346
-0.00869649968493357,19.234786684803
-0.00744486175167774,19.2358371948705
-0.00627087257019618,19.236923155007
-0.00517743591302446,19.2380486712054
-0.00416705408095538,19.2392187650631
-0.00324176870403706,19.2404396683578
-0.00240309762561136,19.2417192512758
-0.00165196561804698,19.2430676687986
-0.000988624541646577,19.2444983824955
-0.000412554207587391,19.2460298725836
6.85083778116601e-05,19.2476533485929
0.000446968367494582,19.2493209477899
0.000739551319525588,19.2510509640457
0.000960999902332277,19.2528638623053
0.00112511814364465,19.2547868164421
0.00124516839791427,19.2568579970968
0.00133445778008011,19.2591354118594
0.00140742020409099,19.2617179554284
0.00148250010063837,19.264810744493
0.00158060313336032,19.2685437568763
0.00170535573195547,19.2724760140278
0.00186698823645983,19.2767666954865
0.00204577544407,19.2810058751939
0.00224350663449054,19.285420264107
0.0024773488125501,19.2905050573026
0.00270573307848288,19.2954199009979
0.00293832221898352,19.3004059475315
0.00314093174735354,19.304710817911
0.00332773157995089,19.3086321248136
0.00351010961279806,19.3123975412296
0.00369378562983401,19.3161102862908
0.00388260767303138,19.319831260705
0.00407976239861107,19.3236040287552
0.0042882407487787,19.3274636660284
0.0045110990147273,19.3314411018052
0.00475166197914951,19.3355659319731
0.00501368455917037,19.3398679382903
0.00530154710985983,19.3443783331689
0.00562055228365936,19.3491309990665
0.00597743140953026,19.3541639082765
0.00637075074649996,19.3593849470648
0.00678042827797681,19.3644774403158
0.00721575420789552,19.3695245144693
0.00767761058375775,19.374490180976
0.00817138389717184,19.3793846878734
0.00870254190995759,19.3842102384135
0.0092776079117995,19.3889714167833
0.00990370316458689,19.3936701561704
0.0105890621260568,19.3983092354156
0.0113594828128528,19.4029858611433
0.0122291233211545,19.4076890892796
0.0132203683379027,19.4124362683851
0.0143643410623788,19.4172598690826
0.0157122822781542,19.4222379323253
0.017371863415486,19.4275799516125
0.0197357322769853,19.4341635812485
0.02136790421549,19.4382707681274
0.0230688828407756,19.4423779550062
0.0245424342629356,19.4459617937636
0.0257811577517697,19.4491692761863
0.026814759774279,19.4522086538965
0.0276173276122387,19.4551415860658
0.0281543861120713,19.4579603492373
0.0284223765189626,19.4607864383844
0.0283868578502251,19.4637820742635
0.0279226211220429,19.4673177550946
0.0271257238763645,19.4705713998103
0.0260329610285856,19.4738250445261
0.0249473768860163,19.4765334249493
0.0238778606851003,19.4789541928526
0.0228098907123346,19.4812365130462
0.0217422806634684,19.4834439523564
0.0206778377873822,19.4856103522954
0.0196201551435023,19.4877573276501
0.0185728218136572,19.4899002894835
0.0175392131605822,19.4920510829845
0.0165224345346381,19.4942193594947
0.0155253158424532,19.4964133668454
0.014550415851901,19.4986404576392
0.0136000355941547,19.500907425106
0.0126762290145199,19.5032207519432
0.0117808109507525,19.5055868093146
0.0109153697993733,19.5080120100423
0.0100812752546341,19.5105029549676
0.00927968627957273,19.5130665722049
0.00850530226934673,19.5157326432364
0.00774316123256201,19.5185760589463
0.0069970332992031,19.5216170434827
0.00627067396192995,19.5248798364668
0.00556805510823311,19.5283924537646
0.00489333087400716,19.532187397317
0.0042507717546674,19.536302594277
0.00364465546793795,19.5407827422583
0.00307909084271469,19.5456815400916
0.00255777038411918,19.5510656809157
0.0020836945861652,19.5570219452306
0.00165907274812896,19.5636673456538
0.00129849554960375,19.5708651081998
0.000999107374655347,19.5786579362862
0.000762929581431638,19.5871758324472
0.000594890857403721,19.5960766585352
0.000477411600498795,19.6049785519318
0.000386427652086001,19.61493196333
0.000326718308431847,19.62493196333
0.000290347664675151,19.63493196333
0.00027132349995448,19.64493196333
0.000265390080383418,19.65493196333
0.000269701459431912,19.66493196333
0.000282565182053274,19.67493196333
0.000303218407984072,19.68493196333
0.000331677005931313,19.69493196333
0.000368687770879693,19.70493196333
0.000415800739840204,19.71493196333
0.00047322589245218,19.7245719729052
0.000539704808757363,19.7334572326502
0.000615996522750186,19.741634323686
0.000703242044743714,19.7491620579022
0.000802837021818083,19.7560948093913
0.000916409219631598,19.7624824308395
0.00104582579163901,19.7683707314896
0.00119321445228654,19.7738018866774
0.00136099377888882,19.7788147729219
0.00155190921626835,19.7834452670144
0.00176907842531415,19.7877265220348
0.00201604498103635,19.791689222867
0.0022968460934528,19.7953618157506
0.00261609468820196,19.7987707313587
0.00297908637361222,19.8019406139245
0.00339193813117328,19.8048945572259
0.00386177299415986,19.8076543567696
0.00439697745144239,19.8102408062945
0.00500757080591393,19.8126740678684
0.00570449841995194,19.8149703809094
0.00647546118494286,19.8170833225809
0.00733025569438844,19.8190490144451
0.00828398995672632,19.8209042336096
0.00936043585955368,19.8226885060404
0.0106023758772086,19.8244538869839
0.0121294947726072,19.8263219826326
0.0144277697598661,19.8287246258875
0.0159760837356733,19.830171741952
0.0176090055300605,19.8316188580165
0.0190967892662441,19.8329162106316
0.0204236870521323,19.8341017570389
0.0216117859306831,19.83523663673
0.0226586712638821,19.8363629056831
0.0235449163643565,19.8375201453631
0.0242320020872965,19.8387614650941
0.0246415316400421,19.8401907586657
0.0245116375500757,19.8422020953927
0.0238790137508292,19.8437857970213
0.0228732649564721,19.8453694986498
0.0217245182986737,19.8468027004803
0.0204380847059589,19.8482204460658
0.0190214483780855,19.8496800547686
0.0174839026722751,19.8512196229401
0.0164627042823554,19.8522406734979
0.0154631187685146,19.8532617240558
0.0144150753489431,19.8543850765261
0.0120700007720679,19.8571512046154
0.010130505497572,19.8597897176859
0.00855202338267828,19.8622676104484
0.00725760604898154,19.8646049987346
0.00618498327504895,19.8668240053142
0.00528496273856179,19.8689484571789
0.00451827052438783,19.8710062301813
0.00385230269630889,19.873034319573
0.00325697918939479,19.8750920703144
0.00269504113596782,19.8773093243319
0.00217698860839558,19.87966297078
0.00184275477656206,19.8813845075307
0.00154173477908835,19.8831060442815
0.00129799861089849,19.8846438718193
0.00108801005787933,19.8860920973704
0.000894310790682586,19.887547237046
0.000704752719914928,19.8891014354701
0.000504547366484456,19.8909086341876
0.000251685844293669,19.8934890274933
-3.07172516959113e-05,19.8968786649055
-0.00023878263140138,19.8998342002739
-0.000413227831317288,19.9027121750298
-0.000586894839468827,19.9060563423583
-0.000782335963202192,19.9106055991657
-0.000973508050980159,19.9162991465965
-0.00110156534683482,19.9215412558141
-0.0011730932799111,19.9262611515928
-0.00119099255802928,19.930493023869
-0.00115471157818457,19.9342768976516
-0.00106190075923517,19.9376708549289
-0.000908952806298799,19.9407320856557
-0.000690644893575507,19.943523369311
-0.000398924006711714,19.9461116039738
-1.89831947749921e-05,19.9485796641957
0.000479849380459584,19.9510447761772
0.00117386607127755,19.9537284565731
0.0021036062456208,19.9566489699706
0.00303695164699189,19.9592031681414
0.00391173759116322,19.9614266431733
0.00499672262369924,19.9640436044063
0.00589854002771502,19.9660972604127
0.00687081783213089,19.9681509164192
0.0078363106758737,19.9699942790712
0.00887006349249481,19.9717442589045
0.00999751438305863,19.9734105474302
0.0112667051447543,19.9750306187555
0.0127051061530428,19.9766045311933
0.0143384951876938,19.9781303851647
0.0161871191644779,19.9796024160529
0.0182801372471499,19.9810231828589
0.0206392206879529,19.9823894881303
0.0232885634172629,19.9837005770355
0.0262646916149906,19.9849610185831
0.0296044830078215,19.9861732533664
0.0333509731701968,19.9873402261875
0.0375525247603832,19.9884646480071
0.0422702616998605,19.9895505297251
0.0475740194244985,19.9906013541847
0.0535462824298088,19.9916206453107
0.0602852799188255,19.9926120186456
0.0679086801820636,19.9935791947385
0.0765600440175658,19.9945262071238
0.0864155833009117,19.9954573877881
0.0976954258882669,19.9963775781142
0.110679862655064,19.9972923736279
0.125734230328026,19.9982084940567
0.142734201082317,19.9991042470283
0.162296154760532,20
