ecg,time
6.00180920752494e-05,15.0076655777276
5.99080191223685e-05,15.0176655777276
6.06746566359473e-05,15.0276655777276
6.21135403750041e-05,15.0376655777276
6.40878449236658e-05,15.0476655777276
6.65088022926277e-05,15.0576655777276
6.93220626122286e-05,15.0676655777276
7.24981789896444e-05,15.0776655777276
7.60260713950827e-05,15.0876655777276
7.99086558253434e-05,15.0976655777276
8.41600381189356e-05,15.1076655777276
8.8803841380261e-05,15.1176655777276
9.38723737327767e-05,15.1276655777276
9.94064492119173e-05,15.1376655777276
0.000105455753409965,15.1476655777276
0.000112079705065747,15.1576655777276
0.000119348813518298,15.1676655777276
0.000127346576886479,15.1776655777276
0.000136172012985692,15.1876655777276
0.00014594297026857,15.1976655777276
0.000156800436551424,15.2076655777276
0.000168914158595782,15.2176655777276
0.000182490019872687,15.2276655777276
0.000197779818671037,15.2376655777276
0.000215094378315189,15.2476655777276
0.000234821361173869,15.2576655777276
0.0002574498408855,15.2676655777276
0.000283604770856212,15.2776655777276
0.000314096249030494,15.2876655777276
0.000349991420562162,15.2976655777276
0.00039272191704802,15.3076655777276
0.000444248713300639,15.3176655777276
0.000503800928315551,15.327150541319
0.000571052339157775,15.3359220761175
0.000646875838781636,15.3440252555282
0.000732351695518867,15.3515109488326
0.000828721557009979,15.3584267427296
0.000937394101781429,15.3648168648084
0.00105996388079492,15.3707224672226
0.00119823521561361,15.3761818684393
0.00135425263000482,15.3812306755854
0.00153032836298746,15.3859019490734
0.00172908398663114,15.3902264102772
0.00195349137523695,15.3942326728237
0.00220692914364112,15.3979473714633
0.00249323710612989,15.401395281689
0.00281679492769976,15.404599508007
0.0031826211608079,15.4075816827373
0.00359648641844766,15.4103620882738
0.00406507302386801,15.4129598423991
0.00459619139493692,15.4153931417756
0.00519906828901225,15.4176794805935
0.00588477564109643,15.4198359792999
0.00664663083878644,15.4218314124452
0.00748523994906076,15.4236742244501
0.00841138571956346,15.4253951715247
0.0094408349527481,15.427024498301
0.0105981381921117,15.428594946339
0.0119301043951441,15.4301532219977
0.0136029228385254,15.4318419019191
0.0158904857057086,15.433828526143
0.0176672729673753,15.4352077281613
0.0195582141175522,15.4365869301797
0.0212628548505241,15.4378003928946
0.0227816878868126,15.4388994213513
0.0241497349007554,15.439947605008
0.0253692404302415,15.4409859770323
0.0264228076179197,15.4420518147702
0.0272734760283907,15.443194035627
0.0278463526565006,15.4445061906149
0.0279628471457184,15.4459214931699
0.0275880893119764,15.4473477325807
0.0267475549026587,15.4488445178863
0.0256645457157223,15.450219572437
0.0244031453938208,15.4515645912382
0.0229798584257967,15.4529421756976
0.021406414576073,15.4543929057218
0.0196901548375623,15.455955410214
0.0184963903808076,15.457054699673
0.0173528404008995,15.4581539891321
0.0151890862236742,15.4604123631998
0.0129081599580669,15.4631288800116
0.0108766081042811,15.4659669561171
0.00928577762179983,15.46859599708
0.00801753633928284,15.4710694777044
0.00693329237860332,15.4735751316364
0.00600660736612722,15.4761445942533
0.00522187253952035,15.4788011732767
0.00456910838180546,15.4815678779327
0.00404337371780932,15.4844691667009
0.00364540285558923,15.4875323413963
0.00338370640692379,15.4907890560334
0.00327927237694213,15.4942606638138
0.00334136757447285,15.4973653872585
0.00353507207989413,15.5001729415373
0.00384149167720016,15.5027308445998
0.00425260394928775,15.5050881712405
0.00476922727653328,15.5072928110373
0.00540347510481496,15.5094009525174
0.00618254512347118,15.5114774664805
0.00716347436886193,15.5136152086332
0.00847230759228983,15.5159736882736
0.0102692644859765,15.5186676634406
0.0119624794010464,15.5208391600236
0.0139021877560392,15.5230106566067
0.0157656283288669,15.5248343002968
0.0176320267136414,15.5264381456295
0.0196003906364693,15.5279208747343
0.0217307003987529,15.5293211018397
0.0240710579953772,15.530657014827
0.02667162580736,15.531940921003
0.0295691701949515,15.5331744345414
0.0328142438969426,15.5343633233857
0.0364494998405244,15.5355081828143
0.0405330612721962,15.5366131562443
0.045123313199914,15.537680260404
0.0502905789817997,15.5387125225079
0.0561158083649067,15.5397129260167
0.0626927353612633,15.5406844169514
0.07013400691809,15.5416303469898
0.0785732220653226,15.5425540972308
0.0881723608266654,15.5434593380388
0.0991293339507616,15.5443500264816
0.111689022778503,15.5452305108533
0.126159695616865,15.5461057312528
0.142935813053566,15.5469814227427
0.162534400600487,15.5478645374806
0.185658372932176,15.5487640911426
0.212864545781058,15.5496787203214
0.24434670993611,15.5505970703895
0.280910982381003,15.5515289654411
0.323711517181176,15.5524913878529
0.374847782799047,15.5535225914381
0.410758110335734,15.5542015618067
0.447378409684063,15.5548805321753
0.480022021928983,15.5554968051302
0.508775910991039,15.5560736362412
0.533912656985148,15.5566375731923
0.555200412879538,15.5572117192245
0.571864854040679,15.5578242434566
0.58208724994986,15.5585258502732
0.581862956509595,15.5592761533072
0.569479561344673,15.5600582176994
0.543398017616327,15.5608932337827
0.504190216497634,15.5617454531367
0.45058902023349,15.5626373897104
0.383629964555576,15.5635483732506
0.336312530715821,15.5641171953494
0.285699663719337,15.5646860174481
0.241207466437518,15.5651681429532
0.203096214062876,15.5655782651159
0.169613729236177,15.5659440991798
0.139636067256763,15.5662826387133
0.112468653479257,15.5666048188612
0.0876154507010305,15.566919102793
0.0646425073000384,15.5672338674016
0.0430269962052732,15.5675607686841
0.021676346867039,15.5679266857869
0.00514026045719354,15.5682537461278
-0.00310495130006628,15.5684370027845
-0.0106488853469238,15.5686202594412
-0.017159872273183,15.5687933980885
-0.0233375786060295,15.5689737542491
-0.0295351552049569,15.5691746429094
-0.0355051445474786,15.569392710254
-0.0410927717424986,15.5696260312827
-0.0462119984901493,15.569873969518
-0.0508182236431282,15.57013675522
-0.0548920357249039,15.5704152526061
-0.0584295710251924,15.5707108508069
-0.0614365619041129,15.5710254312965
-0.0639189014518607,15.5713613912471
-0.0659179065315229,15.5717297378798
-0.0673546319645019,15.5721151229485
-0.0683122271088824,15.5725326643435
-0.0688039887446659,15.5729881554239
-0.068838620364907,15.5734888155623
-0.0684185284746738,15.574044051117
-0.0675340759128845,15.5746679376389
-0.0661589204940601,15.5753791607971
-0.0642377478964682,15.576206434895
-0.0616515495370301,15.5772008492946
-0.0580754931026372,15.5784862785679
-0.0540289241776065,15.5798962561464
-0.0500943759545372,15.5812626099038
-0.0463244001966025,15.5825898219254
-0.042745752609875,15.5838798307876
-0.0393730112313636,15.5851332226047
-0.0362136981234064,15.5863499076257
-0.0332705176569877,15.587529481002
-0.0305425268007427,15.5886714133589
-0.028025887262095,15.5897751493634
-0.0257144467154275,15.5908401544258
-0.0236002414551241,15.5918659303987
-0.0216739530261416,15.5928520114828
-0.0199253256727184,15.5937979465591
-0.0183429182562805,15.5947036400145
-0.0168139689524599,15.5956322834991
-0.0153435334887869,15.596584981597
-0.0139355275954731,15.5975636711301
-0.0125937015803605,15.5985706113138
-0.0113215809348028,15.5996084666744
-0.0101224118413627,15.6006804090316
-0.0089991030692173,15.601790253351
-0.00795416385444283,15.602942642522
-0.00698963671515298,15.6041433049887
-0.00610702312421086,15.6053994246153
-0.0053071981343197,15.6067201905762
-0.00459030661057094,15.6081176504633
-0.00395562674696128,15.6096081060012
-0.00340137093452246,15.6112145579802
-0.00295035716929989,15.6128630602704
-0.00258636464974712,15.6145673913524
-0.00229392728194431,15.6163462787777
-0.00205845318671822,15.6182240208344
-0.00186574425257973,15.6202339444973
-0.001701305198676,15.622425073465
-0.00154908034540855,15.6248769700404
-0.00138834850012755,15.6277406547784
-0.00119720118562501,15.6311420598589
-0.00098404385066539,15.63468759067
-0.000742741760592687,15.6383953884682
-0.000473784274460575,15.6422850268316
-0.000181257597848801,15.6463769277679
0.000129711638771725,15.6506926919976
0.00045477652788453,15.6552559052262
0.000771376843287491,15.6598004972874
0.00106728056874634,15.6641567848109
0.00135855008305599,15.6685497272845
0.00166799256560169,15.6733188433557
0.00198746033295324,15.6783252396119
0.00230076188509189,15.6832824131534
0.00260785097559569,15.6881541499274
0.00287370984850772,15.6923526280252
0.00312515446384125,15.6962919012265
0.0033731534308409,15.7001309589941
0.0036238675975316,15.7039508667698
0.00388184722002005,15.7078044097544
0.00415110720493826,15.7117319533105
0.00443558774574902,15.7157675174141
0.00473945876841742,15.7199421470201
0.00506739329979694,15.7242862639643
0.00542483743189243,15.7288310399236
0.00581839487204812,15.7336096778285
0.00625642396306556,15.7386585504878
0.00671754195896753,15.7436730110922
0.00720359402525326,15.7486369645582
0.00771739442882825,15.7535379209163
0.00826312316863523,15.7583700938737
0.00884629482792851,15.7631328126343
0.00947362349478575,15.7678281581734
0.0101527785073107,15.7724581812771
0.0109038367779501,15.7770918964911
0.0117449124004966,15.7817544090047
0.012695114107247,15.7864538881054
0.0137812012747037,15.791214477285
0.0150436686124725,15.7960890658595
0.0165569707778785,15.8012081478491
0.018517445366727,15.8069852332659
0.0204107415659402,15.811946483254
0.0219989329938361,15.8158320521991
0.0236244733719263,15.8197176211443
0.0250210913468566,15.8231442190711
0.0261972407209953,15.8262797839914
0.0271676208727306,15.8292994347956
0.0278836519294803,15.8321843221962
0.028333420693085,15.8349956089826
0.028505055657655,15.8378632253944
0.028344630094499,15.8409881412143
0.0276258594988676,15.8450019553553
0.0267796541992736,15.8479329278874
0.0257141951662304,15.8508639004196
0.0246370511933437,15.8534421026635
0.023563729191396,15.8558107542856
0.0224897265069293,15.8580692373901
0.0214163585800845,15.8602668718562
0.020346990179121,15.8624323027505
0.0192853486075983,15.8645846723586
0.0182350452389805,15.8667380338954
0.0171994470120336,15.8689034251996
0.0161816437519584,15.871089998788
0.0151844474205149,15.8733056978947
0.0142104043861647,15.8755576860355
0.0132618014405896,15.8778526607961
0.0123406810714859,15.8801970670715
0.0114488495125768,15.8825972770693
0.0105878824320114,15.885059748277
0.00975913837658172,15.887591144235
0.00896376206005207,15.8901984773734
0.00819210149669494,15.8929282176838
0.00743417161723009,15.8958418614757
0.00669376968860252,15.8989606728898
0.00597472583696121,15.9023098692923
0.0052810675937502,15.9059185714487
0.00461697058632539,15.909820555761
0.00398669821964377,15.9140552566532
0.00339452961374521,15.9186693049315
0.00284436217342439,15.9237191399379
0.00233952157609247,15.9292758773324
0.00188256109236971,15.9354330154615
0.00147626757982726,15.9422972616326
0.00113512277111549,15.9496912394141
0.000852331610610466,15.9577218159558
0.000621381196706968,15.9665331888595
0.000440973466162097,15.976315416369
0.000318623001551798,15.986315416369
0.000234973963932849,15.996315416369
0.000176648570831884,16.006315416369
0.000136005046162478,16.016315416369
0.000108060375593352,16.026315416369
8.91970638416803e-05,16.036315416369
7.67299645486402e-05,16.046315416369
6.87210730164024e-05,16.056315416369
6.38202240324988e-05,16.066315416369
6.11073621356408e-05,16.076315416369
5.99591380631681e-05,16.086315416369
5.99516901132833e-05,16.096315416369
6.07958968728816e-05,16.106315416369
6.22954754311505e-05,16.116315416369
6.43193687135587e-05,16.126315416369
6.6782913012006e-05,16.136315416369
6.96347080799672e-05,16.146315416369
7.28474613885157e-05,16.156315416369
7.64117096363724e-05,16.166315416369
8.03316330741401e-05,16.176315416369
8.46223829175115e-05,16.186315416369
8.9308506800075e-05,16.196315416369
9.44231911421704e-05,16.206315416369
0.000100008142301017,16.216315416369
0.000106114004913749,16.226315416369
0.000112801274021554,16.236315416369
0.000120141705623825,16.246315416369
0.000128220275214709,16.256315416369
0.000137137781554164,16.266315416369
0.000147014249411623,16.276315416369
0.000157993357560268,16.286315416369
0.00017024821688719,16.296315416369
0.000183988962847704,16.306315416369
0.00019947282927488,16.316315416369
0.000217017672671368,16.326315416369
0.00023702037604762,16.336315416369
0.000259982276800609,16.346315416369
0.000286544901377139,16.356315416369
0.000317541145077327,16.366315416369
0.000354070142330958,16.376315416369
0.000397609431265765,16.386315416369
0.000450187568467809,16.396315416369
0.00051052634005277,16.4057245474097
0.000578638327781447,16.4144230443638
0.000655427771791022,16.4224586541705
0.000741992842458012,16.4298819694774
0.000839592464379797,16.4367402104785
0.000949654044449993,16.4430772666609
0.00107379308560209,16.4489339806238
0.00121383773305492,16.4543483800195
0.00137185954738454,16.4593557941628
0.00155020111007204,16.4639890257562
0.00175151906870801,16.4682785630073
0.00197882561728061,16.472252806977
0.0022355449196301,16.4759381889016
0.00252557029775215,16.4793592975778
0.00285334336921656,16.4825390744913
0.00322395650048473,16.485499003071
0.00364326838931603,16.4882592324843
0.00411806871761651,16.4908387723049
0.00465630243553646,16.4932557336864
0.00526736801920262,16.4955275530853
0.00596256516538695,16.4976713372308
0.00673223434648771,16.4996490891426
0.0075795898219703,16.5014774562167
0.00851588978474114,16.5031871885885
0.0095575878244837,16.504808585845
0.0107305919840662,16.5063749955934
0.0120912741521197,16.5079418598469
0.0138156327051139,16.5096545603808
0.0161399882542526,16.5116435380687
0.0178860884356494,16.5129853935682
0.0197343214079924,16.5143272490678
0.0214158152215846,16.5155240413683
0.0229191999788129,16.5166158804098
0.0242732708823817,16.5176615172035
0.0254778847176272,16.5187008486888
0.0265139716183922,16.5197715482182
0.0273421763260961,16.5209247746413
0.0278813538685343,16.5222625409607
0.0279469211749355,16.5236760449078
0.0275249446894447,16.5251074896233
0.026660652747466,16.5265828827218
0.0255620970014148,16.5279504227307
0.0242863253120519,16.529296143876
0.0228496808341454,16.5306785533063
0.0212637140231108,16.532137336152
0.0195352518628609,16.5337115555652
0.0188889782472653,16.5343053796145
0.0182535178602894,16.5348992036639
0.0169403250131848,16.53618089303
0.0147673007527642,16.5385007978007
0.0124778761454736,16.5413070971798
0.0105392157221486,16.5441049192082
0.00902011567692032,16.546697167894
0.00779062469157844,16.5491744270382
0.00673893418179003,16.5516907170781
0.00584122292090916,16.5542755117794
0.00508309467577953,16.5569519025217
0.00445556558075406,16.5597430704979
0.00395472328633436,16.5626739233423
0.00358260895198752,16.5657724916695
0.00334969812749567,16.5690714899775
0.00327952273891968,16.572470392728
0.00336782057897333,16.5755174587904
0.00358333678188783,16.5782757635996
0.00390930881162954,16.580792885324
0.00433957055022371,16.5831187922911
0.00487659556364331,16.5853013375912
0.0055349068010357,16.5873983836417
0.0063457199401241,16.5894782359517
0.00737455229806911,16.5916418613972
0.00876852286871054,16.5940682571491
0.0106368344152624,16.596779436257
0.012290032547702,16.5988423034626
0.0141727412421604,16.6009051706682
0.0160238979129695,16.6026835595243
0.0178991541987593,16.6042659342251
0.0198873152737866,16.6057357512807
0.0220440006971817,16.6071260242707
0.0244172490645045,16.6084538307059
0.0270570613535884,16.6097306477646
0.0299988740828567,16.6109571938458
0.0332949105099807,16.6121396678961
0.0369890651311525,16.6132788103886
0.0411388748586816,16.6143782562397
0.0458057180671576,16.6154405199414
0.0510591803723618,16.6164681336474
0.0569828626323464,16.6174643169296
0.0636727788713184,16.6184320496154
0.0712441797257697,16.6193746801533
0.0798344082242611,16.620295647425
0.0896095336585639,16.6211986166563
0.100773437691486,16.6220876130157
0.113578780703933,16.6229670589172
0.128344072264839,16.6238419785118
0.145478315245087,16.6247182508806
0.165519730614271,16.6256030508505
0.189204881556974,16.6265057932072
0.216964205095735,16.627420487272
0.249098441325035,16.6283400306736
0.286447992018646,16.6292748958327
0.330243867341097,16.6302437525966
0.371034185725282,16.6310634958679
0.414361078199468,16.6318832391393
0.451615369647935,16.6325740310673
0.483793974769299,16.633184637778
0.512095636787328,16.6337585869787
0.536776324247206,16.6343225245705
0.557545084840261,16.6348996886705
0.57354116478098,16.6355197078697
0.582719005434728,16.6362389658421
0.580944255721411,16.6369922130546
0.566849157377285,16.6377801343182
0.538793932036727,16.6386236220035
0.497832459667492,16.6394777780296
0.442098912642407,16.6403770951954
0.37431397198575,16.6412787559381
0.328000511095276,16.6418274877542
0.278792429836698,16.6423762195703
0.235426424672151,16.6428449065667
0.198077169198907,16.6432472123602
0.165149717386208,16.643608309452
0.135608297674964,16.6439439380346
0.108798071847205,16.6442645036974
0.0842392181816749,16.644578316555
0.0614964664785438,16.6448939526216
0.0400124038240413,16.6452240706971
0.0184870120698392,16.6456008852288
0.00915838065746776,16.6457844530922
0.000569056042951126,16.6459680209556
-0.00846808994300397,16.6461801877465
-0.0153239204402721,16.6463576250364
-0.0214255455488884,16.646530680317
-0.0276458733812025,16.6467256176501
-0.0337063706985006,16.6469386868738
-0.0394231309199695,16.6471674397576
-0.0446925074674939,16.6474108978674
-0.049459314723655,16.6476690574732
-0.0536976631149915,16.6479426042221
-0.0573996749772472,16.6482327722186
-0.0605686210132738,16.6485412916033
-0.063212829307955,16.6488703961971
-0.0654694470368127,16.6492498439269
-0.0670325202294149,16.6496279340588
-0.0681116095596683,16.6500367029798
-0.0687218989673616,16.6504818359382
-0.068873321515586,16.6509701076007
-0.068570162045499,16.6515102831053
-0.0678065143001204,16.6521150515234
-0.0665609739160297,16.6528016614452
-0.0647876154514168,16.6535955553107
-0.062389795885617,16.6545399445676
-0.0591269927962402,16.6557288577232
-0.0550625108233943,16.6571526157224
-0.0510924255113668,16.658529625257
-0.0472768414416631,16.6598666346747
-0.0436472026138981,16.6611661120623
-0.0402205322523046,16.6624289084398
-0.0370058820022624,16.6636550631893
-0.0340070558144749,16.664844228787
-0.0312239657105645,16.6659958954091
-0.0286534577733476,16.6671095081481
-0.0262899243086387,16.6681845244685
-0.0241258222115944,16.6692204365063
-0.0221521399720271,16.6702167713096
-0.0203588251938096,16.6711730762378
-0.0187351724936931,16.6720888935322
-0.0171924010127632,16.6730116341218
-0.0157069030723144,16.6739581245786
-0.0142828662727914,16.6749300923862
-0.0129240873221315,16.6759297092026
-0.0116341531097896,16.6769595293196
-0.0104163852246842,16.6780225860042
-0.00927378277787147,16.6791225176848
-0.00820896135960148,16.6802637386301
-0.00722408726916556,16.6814516753563
-0.00632080525781037,16.6826931033807
-0.00550015644122517,16.683996643197
-0.00476248013078852,16.6853735209095
-0.00410728752736568,16.686838794702
-0.00353308261534136,16.6884134629857
-0.00305692328826051,16.6900509268883
-0.00267217029140512,16.691739331016
-0.0023628270217792,16.6934970839733
-0.0021141244811189,16.6953467835354
-0.00191181728470774,16.6973189870659
-0.00174157344549708,16.6994577553665
-0.00158791827330224,16.7018325517395
-0.00143185061555344,16.7045689447722
-0.0012440113139551,16.707938775721
-0.00103694472279387,16.7114486848399
-0.000802468782720069,16.715116326594
-0.000539784159432375,16.7189611091669
-0.000252380226834639,16.72300322813
5.46666399450228e-05,16.7272639560901
0.000376703399100858,16.7317663044674
0.0007003138542462,16.7363851592071
0.000999806573637948,16.7407684180043
0.00129051791252309,16.7451293114813
0.00159283919153029,16.749766426735
0.00191657927361283,16.7548240347787
0.00222987721507169,16.7597728765042
0.00255140618690947,16.7648755974282
0.00282255757271014,16.7691617680026
0.00307574177328245,16.7731356065719
0.00332385725534319,16.7769867139777
0.0035736439560859,16.7808056549433
0.0038298569235657,16.784649065315
0.00409656504612704,16.7885590350213
0.00437770390523828,16.7925706290176
0.00467737239304047,16.7967152181845
0.00500012450715519,16.8010232346569
0.00535122657972141,16.8055255911082
0.00573701446767701,16.8102550031795
0.0061654363802974,16.8152471370548
0.00662359521628229,16.8202902490139
0.00710388614729296,16.8252594009457
0.00761199108496145,16.8301752596964
0.00815086796237934,16.8350209707472
0.00872602538954908,16.8397974863047
0.00934391828755896,16.8445062040949
0.0100120184039734,16.8491491751919
0.0107466337129745,16.8537754743272
0.0115684485209861,16.8584326251906
0.0124949140680275,16.8631231833749
0.0135511464093359,16.867868640079
0.0147739188600687,16.8727136220565
0.0162277779354428,16.8777657767605
0.0180671546835831,16.8833411435798
0.020489781414873,16.8897592073019
0.0220520165661509,16.8935743566844
0.0236481729949779,16.897389506067
0.0250393729237817,16.9008056594887
0.0262124062618292,16.9039382267484
0.027179721126055,16.9069572028356
0.027891796505222,16.9098401884795
0.0283376041222584,16.9126512993212
0.0285048797071409,16.9155209384543
0.0283387017872188,16.9186521961582
0.027606259582487,16.9226937907504
0.0267578084769213,16.9256120681609
0.0256931164935904,16.9285303455714
0.0246163543023157,16.9311025870852
0.0235430674060064,16.933468434375
0.0224690668627503,16.9357254126142
0.0213957532788828,16.9379222237776
0.0203265090244507,16.9400872610025
0.0192650617461291,16.9422395408516
0.0182150187109276,16.9443930449648
0.01717974250094,16.9465587654845
0.0161623162557605,16.9487458296946
0.0151655482490827,16.9509621594964
0.0141919782802206,16.9532149105576
0.0132438891463325,16.9555107722338
0.0123233202516411,16.9578561826946
0.0114320707474005,16.960257521068
0.010571712674028,16.9627212463909
0.00974360177529256,16.9652540237583
0.00894887800124394,16.9678628756648
0.00817745348383193,16.970595936292
0.00741983250316864,16.9735132672635
0.00667980980370714,16.9766362131994
0.00596122085396673,16.9799900533126
0.00526809439188664,16.9836039987258
0.0046046090012474,16.9875119190955
0.00397503028237294,16.9917533684117
0.00338363247818593,16.996375135363
0.00283430475019591,17.0014338810052
0.00233035937805035,17.0070010668098
0.00187433390571726,17.0131707096029
0.00146932569715479,17.0200439509471
0.00112933314289387,17.0274487038326
0.000847567015528024,17.0354924246213
0.000617525580554169,17.0443200145755
0.000438078523901663,17.05412257125
0.000316660417968761,17.06412257125
0.000233621536534631,17.07412257125
0.00017571165643328,17.08412257125
0.000135359547894198,17.09412257125
0.000107621056166777,17.10412257125
8.89029714994328e-05,17.11412257125
7.65375051007596e-05,17.12412257125
6.85996279671721e-05,17.13412257125
6.37486643987949e-05,17.14412257125
6.10712411411615e-05,17.15412257125
5.99485948209018e-05,17.16412257125
5.9959991244647e-05,17.17412257125
6.08184595497624e-05,17.18412257125
6.23292154249531e-05,17.19412257125
6.4362258372252e-05,17.20412257125
6.6833676529698e-05,17.21412257125
6.96926102365142e-05,17.22412257125
7.29121621799657e-05,17.23412257125
7.6483166088536e-05,17.24412257125
8.04100349588369e-05,17.25412257125
8.4708112947929e-05,17.26412257125
8.94021188162225e-05,17.27412257125
9.4525402021652e-05,17.28412257125
0.000100119834987986,17.29412257125
0.000106236241207661,17.30412257125
0.000112935316762886,17.31412257125
0.000120289050791479,17.32412257125
0.000128382695324767,17.33412257125
0.000137317382732154,17.34412257125
0.000147213545724399,17.35412257125
0.000158215367800677,17.36412257125
0.000170496591235144,17.37412257125
0.000184268150031933,17.38412257125
0.000199788299571976,17.39412257125
0.000217376219172663,17.40412257125
0.000237430527533559,17.41412257125
0.000260454872708811,17.42412257125
0.000287093906935017,17.43412257125
0.00031818483018568,17.44412257125
0.000354832825012334,17.45412257125
0.000398524121653417,17.46412257125
0.00045130009422952,17.47412257125
0.000511786255785193,17.4835176671198
0.00058005948122791,17.4922026466744
0.000657029920787479,17.5002257515905
0.000743799087899359,17.5076375232247
0.000841629141168917,17.5144851139243
0.000951950998553884,17.5208123506542
0.00107638408990485,17.5266600187362
0.0012167610291764,17.5320660918255
0.00137515843319007,17.5370658477787
0.00155392458168368,17.5416920416036
0.00175572268428928,17.5459751184648
0.00198357251562506,17.5499434399753
0.00224090676630193,17.5536233996853
0.00253162880009556,17.5570395519017
0.00286019189083993,17.560214808037
0.00323170224666224,17.5631706239342
0.00365203515688983,17.5659271242005
0.00412800053646724,17.5685032986253
0.00466756868376895,17.5709172426823
0.0052801705524949,17.5731863824948
0.00597714899470719,17.5753278228118
0.006748284628954,17.5773023208727
0.00759728403521447,17.5791280342806
0.00853549625932833,17.5808357135739
0.00957950788490794,17.5824556731261
0.0107554923260619,17.5840213830592
0.0121216708050533,17.5855899487501
0.0138561055073198,17.5873074539696
0.0161874545656481,17.5892969468641
0.0179310854776781,17.5906343530354
0.0197749073359524,17.5919717592066
0.0214515799302279,17.5931651398585
0.0229513955601882,17.5942553831301
0.0243021768040197,17.5953004719952
0.0255032607048274,17.5963400776034
0.0265351829013921,17.5974119859027
0.0273580013752153,17.5985679235927
0.027888980537838,17.5999120853232
0.0279424101997736,17.6013252457896
0.0275090979454926,17.6027580813776
0.0266390411060524,17.604228771072
0.0255366211468575,17.6055946872893
0.0242573029553447,17.6069406608046
0.0228173688477677,17.6083243078766
0.0212283144098019,17.6097851244465
0.0194968339829076,17.6113622959439
0.0188368618192718,17.6119690983566
0.0181889461377283,17.6125759007693
0.016044125613935,17.6147198633856
0.0137730637556192,17.6172811945866
0.0115446531866514,17.6202106045582
0.00980561552723793,17.6229187384549
0.00843735475349295,17.6254356174487
0.00729239601177443,17.6279264553524
0.00631286358776723,17.6304709507402
0.00548002699922711,17.6330945560159
0.00478207063890031,17.6358201689399
0.00421228338547872,17.6386715827153
0.00376927141110493,17.6416749471895
0.00345847060533772,17.6448602094142
0.00329570422570548,17.6482628315467
0.00330195264857484,17.6514943635706
0.00345026605061249,17.6544055338013
0.00371681238431387,17.6570492431152
0.00408990004259439,17.6594744967039
0.00456708537755884,17.6617289695984
0.0051561901575598,17.6638661898936
0.00587767992531588,17.665945590267
0.00677510183974372,17.6680473131766
0.00794157853126793,17.6702992198727
0.00959266527685891,17.6729395022808
0.0116425015627515,17.675680798979
0.0132483510990671,17.6775422170163
0.0150620768610873,17.6794036350536
0.016905613262044,17.681068531997
0.0188237293288263,17.682589391259
0.0208848315129901,17.6840181999794
0.0231391548379866,17.6853777691739
0.0256329071201151,17.6866804773075
0.0284108558059792,17.6879331496197
0.0315143969522942,17.689138366281
0.0349923153551919,17.6902998182309
0.0388972318922813,17.691420378308
0.0432831763917485,17.6925016416313
0.0482187083999917,17.6935471161191
0.0537787334201813,17.6945594289878
0.0600525545765291,17.6955417130029
0.0671450838872884,17.6964971609199
0.0751806700902107,17.6974290607671
0.0843098993422877,17.6983410176452
0.0947154167872654,17.6992368413039
0.106622442149642,17.700120721729
0.120312516583265,17.7009973519258
0.136143199368046,17.7018721132178
0.154578659369834,17.7027514259423
0.176239607283051,17.7036433605533
0.201982483088491,17.7045584889663
0.231745020497523,17.7054744832902
0.266252532587538,17.706399722373
0.306492783263821,17.7073476378118
0.354068225990053,17.7083452280299
0.391772686263998,17.7090755410063
0.430944312867134,17.7098058539827
0.465701937739014,17.7104533607347
0.496163994117047,17.7110444959492
0.52294414547946,17.711611397168
0.546039837418217,17.7121779492373
0.564945950590466,17.7127687545205
0.57843973101728,17.7134206075521
0.583404619642647,17.7141638325127
0.57667087073683,17.7149287622625
0.557029671049239,17.715737343396
0.523222088109513,17.7165943433676
0.476454494075103,17.717462364881
0.414429660342949,17.7183787399654
0.363604923873865,17.7190246734766
0.307859333830494,17.7196706069879
0.25939003133166,17.720202150505
0.218706865425761,17.7206398982377
0.183417170253114,17.7210220806577
0.152046951802859,17.7213706854424
0.123749150425019,17.7216987251565
0.0979626892587709,17.7220154011445
0.0742417689668095,17.722328836603
0.052127421164562,17.7226486654812
0.0308900477384576,17.722992267631
0.00790619209072757,17.7234255067411
-0.00145306035251247,17.7236288674149
-0.00994168455593469,17.7238322280886
-0.0165801665136489,17.724007211107
-0.0227394109222237,17.7241853772228
-0.028947021133826,17.7243844493795
-0.0349469665672088,17.7246009755471
-0.0405758842397126,17.7248328760432
-0.0457425277403419,17.7250794121618
-0.0503991610297466,17.725340743562
-0.0545244504364932,17.7256176798671
-0.058113339151087,17.7259115620112
-0.0611708329655633,17.7262242241346
-0.0637036305515466,17.7265580116383
-0.0657797207215321,17.7269295164979
-0.0672562836950196,17.7273125547006
-0.0682522428308265,17.727727279548
-0.0687814561952766,17.7281794417169
-0.0688530314612405,17.7286761155657
-0.068469991837051,17.7292264975843
-0.0676239338224333,17.7298442090008
-0.0662901433455171,17.7305474545405
-0.0644164695532218,17.731363845157
-0.0618916365311388,17.7323417447227
-0.0584216377644341,17.7335941120795
-0.0543687178752415,17.7350084278493
-0.0504220880862672,17.7363782643527
-0.0466368908755927,17.7377086943046
-0.0430413339208159,17.7390018216184
-0.039650765228347,17.7402583151142
-0.0364731952470896,17.741478125182
-0.0335116826631014,17.7426608646059
-0.0307655608289661,17.7438060098161
-0.0282312130203903,17.7449130053295
-0.0259026627655085,17.7459813138556
-0.0237720816008039,17.7470104340955
-0.0218302491775352,17.7479998980348
-0.0200669740211469,17.7489492542643
-0.0184714743600193,17.7498580409366
-0.0169379500886145,17.750784735525
-0.0154625376779012,17.7517353803492
-0.0140492376468038,17.7527118454546
-0.0127018159453952,17.7537163607353
-0.0114238186205615,17.7547515538074
-0.0102185170396499,17.75582055005
-0.00908885009055192,17.7569271051825
-0.00803736242313199,17.7580757852552
-0.0070661377437128,17.7592722170523
-0.00617672519169019,17.7605234466457
-0.00537005509210456,17.7618384707959
-0.00464633711550583,17.7632290581955
-0.00400492732057531,17.7647110865201
-0.00344413600561058,17.7663068697092
-0.00298494182091695,17.7679516115776
-0.00261420278665909,17.7696505502082
-0.0023162859289839,17.7714222862456
-0.00207654390284403,17.7732905343106
-0.00188076757685043,17.7752876638703
-0.00171452356792603,17.7774609683424
-0.00156196602604943,17.7798864423226
-0.00140299963643237,17.7827059021729
-0.00121306892526395,17.7860965918193
-0.00100199755251804,17.78963004036
-0.000762984744027651,17.7933242291886
-0.000496107013531894,17.7971986750398
-0.000205266750953512,17.8012737219553
0.000104414412498678,17.8055708562218
0.000428480018549338,17.8101134606553
0.000747350963073636,17.8146817230499
0.00104436955199888,17.8190457230045
0.00133532714008455,17.8234259746575
0.0016420847026541,17.8281460875738
0.00196286447208605,17.8331678586715
0.00227603884052545,17.8381203512751
0.00258870196937974,17.8430814028844
0.00285627335844973,17.8473083566385
0.00310826621368616,17.8512587630422
0.0033562781714423,17.8551015816959
0.00360665523304053,17.8589209237021
0.00386401275986727,17.8627708169638
0.00413238250655805,17.8666921956667
0.00441570174718615,17.8707194217172
0.00471811486159819,17.874883640107
0.00504425301042897,17.8792152699633
0.00539949917433135,17.8837453884466
0.00579036293879977,17.888507026562
0.00622505842126523,17.8935363122263
0.00668515517629009,17.8985606792169
0.00716921712011276,17.9035265108043
0.0076810419569967,17.908432604628
0.00822439205066654,17.9132694314517
0.00880478041225282,17.9180368796859
0.00942883319450309,17.9227368094659
0.0101041518246795,17.9273712734815
0.0108494995036286,17.9320024246915
0.0116838801016119,17.9366630459067
0.012625822641549,17.9413593703735
0.013701496015309,17.9461145580838
0.0149500467895952,17.9509784917075
0.0164422683625095,17.9560732134668
0.0183583313224786,17.961774618773
0.0207819696228261,17.9681015179068
0.0223192637758756,17.971830062708
0.0238780737708148,17.9755586075091
0.0252328092496865,17.9789153164354
0.0263742203955752,17.9820207190813
0.0273091495511303,17.9850344950206
0.0279794167742064,17.9878989654214
0.0283830020032171,17.9907098985247
0.0285032390591223,17.9936035724676
0.0282733751168278,17.9968091325065
0.0273708041404146,18.0012094643389
0.0264967355860874,18.0039955291946
0.0254377238063505,18.0067815940503
0.02436410274732,18.0092882655721
0.0232908919110022,18.0116219625428
0.0222168258227241,18.0138614133344
0.0211441483066445,18.0160486259865
0.0200764090932886,18.0182091602382
0.0190173310005979,18.0203605781916
0.0179704695203481,18.0225160220812
0.016939123336729,18.0246859655811
0.0159263102069291,18.0268792042438
0.0149347744734336,18.0291034469039
0.0139669952060423,18.0313657147384
0.0130251963442457,18.0336726220699
0.0121113608486858,18.0360305765904
0.01122723396,18.0384459628997
0.0103743350365374,18.0409252800596
0.00955396963280871,18.0434752620237
0.00876722925815042,18.0461030311429
0.00799868156888503,18.048877558541
0.00724484429702071,18.0518409598958
0.00650948351441719,18.0550155836205
0.0057964845241442,18.0584275651334
0.00510991566075043,18.0621071372047
0.00445397976656716,18.0660893957779
0.00383296558727331,18.0704154256745
0.00325108061353416,18.0751340500937
0.00271210669635144,18.080304795219
0.00221918413394414,18.0860036354428
0.00177465742671472,18.0923312983509
0.00138532260500999,18.0993183500947
0.00105937944418222,18.1068595139964
0.000790107285707629,18.1150698652026
0.000571138800128836,18.124103425283
0.000404197217430167,18.134103425283
0.00030984674858862,18.1424639107244
0.00022881888238014,18.1524639107244
0.000172293436028773,18.1624639107244
0.00013296994490414,18.1724639107244
0.000105993687442722,18.1824639107244
8.78219080023628e-05,18.1924639107244
7.583705261966e-05,18.2024639107244
6.81617918431871e-05,18.2124639107244
6.34935197547132e-05,18.2224639107244
6.09455394967194e-05,18.2324639107244
5.991659067981e-05,18.2424639107244
5.99973564911641e-05,18.2524639107244
6.09085575055763e-05,18.2624639107244
6.24607883360937e-05,18.2724639107244
6.45278934233306e-05,18.2824639107244
6.70287288071126e-05,18.2924639107244
6.99144350969158e-05,18.3024639107244
7.31595779423792e-05,18.3124639107244
7.67560901759757e-05,18.3224639107244
8.07092474809752e-05,18.3324639107244
8.50351122313736e-05,18.3424639107244
8.97590438608257e-05,18.3524639107244
9.4915005696474e-05,18.3624639107244
0.000100545498402686,18.3724639107244
0.000106702024503048,18.3824639107244
0.000113446045272458,18.3924639107244
0.000120850438772106,18.4024639107244
0.000129001512730154,18.4124639107244
0.00013800167422983,18.4224639107244
0.000147972915799711,18.4324639107244
0.000159061351961372,18.4424639107244
0.000171443141911971,18.4524639107244
0.00018533227810315,18.4624639107244
0.000200990930618082,18.4724639107244
0.000218743350962312,18.4824639107244
0.000238994817412335,18.4924639107244
0.000262257849914689,18.5024639107245
0.000289189111729574,18.5124639107245
0.000320642358237759,18.5224639107245
0.000357746055431415,18.5324639107245
0.00040201993285265,18.5424639107245
0.000455554826159892,18.5524639107245
0.000516604667369872,18.5618058438441
0.00058549447591653,18.5704396228226
0.000663157106636612,18.5784153631546
0.000750706828024484,18.585783411741
0.000849418161801426,18.5925906639894
0.000960735462752115,18.598880710282
0.00108629318722809,18.6046941190952
0.00122794106070769,18.6100686590885
0.00138777501288679,18.6150394131507
0.00156816516865829,18.6196389557058
0.00177179981075941,18.6238975692507
0.00200172778965607,18.6278434656914
0.00226141440600576,18.6315028958209
0.00255480148146791,18.6349002835475
0.00288638702497764,18.6380584266061
0.00326133024914997,18.6409986764335
0.0036855701806074,18.6437410649743
0.00416599448158934,18.6463045076696
0.00471067087298835,18.6487070411951
0.00532915544343077,18.650966053646
0.00603295761133993,18.653098643991
0.0068097101663245,18.6550608683484
0.00766501392625509,18.6568765867259
0.00861057097139725,18.6585765560002
0.00966349002590789,18.6601911607686
0.0108509941551318,18.661754367695
0.0122385599028279,18.6633297332485
0.0140128995103553,18.6650666092229
0.0163713034423387,18.6670582984294
0.0181044806481003,18.6683782134099
0.0199303522857535,18.6696981283904
0.0215888173398091,18.6708788592272
0.0230749845913823,18.6719632195419
0.0244130463208993,18.6730063768847
0.0256003981912243,18.6740472192913
0.0266160439873154,18.6751240367898
0.0274176846628216,18.6762909053488
0.0279159541042149,18.6776612242833
0.0279219049513353,18.6790734258501
0.0274439653841733,18.6805121816888
0.0265510413599675,18.6819658153756
0.0254329853423495,18.6833259819488
0.024139388407231,18.6846732687005
0.0226862280844342,18.6860620915284
0.0210847446667499,18.6875312943646
0.0193410752510303,18.6891206148663
0.0179043898426196,18.6904642958868
0.0165516541300479,18.6918079769072
0.0143779981810744,18.6941799367979
0.0120801336575186,18.6970758949392
0.0102249266052289,18.6998390637281
0.00877107307123129,18.7023986423626
0.00757775138708752,18.7048808060549
0.00655675451279327,18.7074082907872
0.00568652943995675,18.7100087511283
0.0049537923268533,18.7127051487444
0.00435051175381739,18.7155208851574
0.00387380156494144,18.7184813528187
0.00352705460388356,18.7216153437558
0.00332283337769543,18.7249566697919
0.0032850799717519,18.7282849425155
0.00339853878116616,18.7312752192519
0.0036352769728225,18.7339858202611
0.00398063285625812,18.7364643170526
0.00443014524632489,18.738760548327
0.00498803661549636,18.7409229065226
0.0056713806517825,18.7430110149001
0.0065159980049883,18.7450974332706
0.00759745295778683,18.7472928769989
0.00908788861048215,18.7497987371596
0.0110297385917985,18.7525250167662
0.0126536252029811,18.7544935248599
0.0144946025000749,18.7564620329536
0.0163381760139985,18.7581941948498
0.0182267100672564,18.7597528044217
0.0202392662226874,18.761206995954
0.0224302412323766,18.7625862869168
0.024845216926325,18.7639047945934
0.0275331210531829,18.7651727685106
0.0305309076569856,18.766391357223
0.033890505428783,18.7675662029284
0.0376590636616585,18.768698810648
0.041891555157232,18.7697916608998
0.0466526959195815,18.7708478781548
0.0520133983483508,18.7718699167405
0.0580596079110988,18.7728610436755
0.0648904121162249,18.7738243080093
0.0726240343269032,18.7747630108281
0.0814024696587849,18.7756806620586
0.091397395809619,18.7765809682168
0.102820085045071,18.7774680181287
0.115933078112042,18.7783463266536
0.131068060160119,18.7792210317688
0.148652721409102,18.7800981971626
0.16925282939391,18.7809852914149
0.193649572382303,18.7818922732729
0.222103847352805,18.7828072328753
0.255059149256828,18.7837285064277
0.2934025017562,18.7846674755827
0.338475288062918,18.7856452633673
0.377846614073734,18.7864258239241
0.419333607093805,18.7872063844808
0.455755371034896,18.7878821213186
0.487419510840262,18.7884863729094
0.515281382600437,18.7890578501676
0.539513004619972,18.7896221222174
0.559763386746704,18.7902026505735
0.575079914148938,18.790830739032
0.583155704122656,18.791569484726
0.579798758861119,18.7923260828223
0.5639458604008,18.7931202917834
0.533854230598111,18.7939726502113
0.491041001050613,18.7948300358966
0.433143348241483,18.7957363210799
0.380083285997742,18.7964382455009
0.320823372508223,18.797140169922
0.269737072343327,18.7977056767722
0.227450804206482,18.7981614838748
0.191087658262879,18.7985539824698
0.158912516351378,18.7989088949618
0.129969653563312,18.7992407337422
0.103651402881017,18.7995592846193
0.079496624019755,18.7998727185096
0.0570629259024906,18.800190014377
0.0357270869413532,18.8005256717231
0.0137492651596866,18.8009231289266
0.000746897563804838,18.8011949014284
-0.00689295755923029,18.8013724280538
-0.013888410123717,18.8015499546791
-0.0199888672903894,18.8017193144503
-0.0262096103264045,18.8019095420064
-0.0323273396630355,18.8021186937207
-0.0381353195691457,18.8023439423353
-0.0435146952207539,18.80258402168
-0.0484011422530993,18.8028387344289
-0.0527632038764273,18.8031086231398
-0.0565895608559358,18.8033948020869
-0.0598813587569822,18.8036988876938
-0.0626473745296387,18.8040229935717
-0.0650251424336042,18.8043948185592
-0.066705310412113,18.8047661603796
-0.0678979354676212,18.8051670989802
-0.0686188089930959,18.805603016433
-0.0688788746797221,18.8060803047518
-0.0686839869586938,18.806607187389
-0.0680312897316263,18.807195185024
-0.0669034838936155,18.8078604069289
-0.0652619665790297,18.808625749836
-0.0630263497176833,18.8095287112585
-0.0600087467390789,18.8106447028298
-0.0559327518289357,18.8120815903219
-0.0519357737214034,18.8134677308491
-0.0480834649724767,18.8148130246795
-0.0444119479130053,18.8161204445818
-0.0409405718495253,18.8173910973846
-0.0376797874839736,18.818625148595
-0.0346343796391328,18.8198223080855
-0.0318050138353432,18.8209820871965
-0.0291891380994185,18.822103933604
-0.0267816259098243,18.8231872988256
-0.0245753092696887,18.8242316666015
-0.022561454969811,18.8252365570679
-0.0207302003027392,18.8262015148935
-0.0190709496204983,18.8271260859318
-0.0175166534592697,18.8280438879668
-0.0160185596034855,18.8289851976166
-0.0145810966460014,18.8299515633355
-0.0132080980459223,18.8309450860723
-0.0119032001670957,18.8319682311797
-0.0106697857962158,18.8330239204572
-0.00951092773960902,18.8341156507877
-0.00842932865280105,18.8352476538771
-0.00742725638923074,18.8364251163202
-0.00650647333625672,18.8376544910829
-0.00566815681953461,18.8389439527671
-0.00491280510886083,18.8403040893292
-0.00424011859267862,18.8417490044884
-0.00364883507847136,18.843298184282
-0.00315072813169054,18.8449271800716
-0.00274780706595344,18.8466031295108
-0.00242356976485641,18.8483443214275
-0.00216307868448443,18.8501720701325
-0.00195201855167157,18.8521148850155
-0.00177614315876001,18.8542132398985
-0.00162035369402279,18.8565295546005
-0.00146675093840002,18.8591727284492
-0.00128872904721433,18.8623788521313
-0.00108715618834707,18.8658548169249
-0.000859290281331602,18.8694842813346
-0.000602914528652399,18.8732863373669
-0.000320787714546435,18.8772809752203
-1.78255468024652e-05,18.8814891806852
0.000301086889538341,18.8859334745845
0.000632253341275368,18.8906357728303
0.000935992579899186,18.8950564160619
0.00122712773424584,18.8994009939912
0.00152462491604661,18.9039430829724
0.00185352008236298,18.9090653020529
0.00216776602471059,18.914020244019
0.00248600575415812,18.9190686468776
0.00276386187255566,18.9234664524831
0.00301953390893486,18.9274875708173
0.00326807764954465,18.9313565168349
0.00351702806515432,18.9351769947216
0.00377142546216412,18.9390108751018
0.00403542943928135,18.9429026377142
0.00431297500427814,18.9468885632353
0.00460809677742729,18.9510005649336
0.00492522550589232,18.9552691507714
0.00526944071973363,18.9597250073992
0.00564679944846851,18.9644003471067
0.00606482475545896,18.9693300700265
0.00651974111751711,18.974404740594
0.00699368708796649,18.9793785439675
0.0074956268730461,18.9843109310884
0.00802710211504223,18.9891717485121
0.00859363801338304,18.9939639954307
0.00920133159716119,18.9986876869551
0.00985747688426756,19.0033452127247
0.0105743499439584,19.0079633810386
0.0113754376060454,19.0126150256703
0.0122764374599284,19.0172964791476
0.0133008753730146,19.0220269661823
0.014482011297004,19.0268434444123
0.0158756085478552,19.0318334062914
0.0176035444287026,19.0372372550565
0.0200223597567031,19.0438110329571
0.0216318481958709,19.0477939652416
0.0232958952371921,19.0517768975261
0.024745049328599,19.0552968243251
0.0259653947681838,19.0584770524723
0.026979686436154,19.0615093808125
0.0277529830916937,19.0644249244825
0.0282596241296211,19.0672419102692
0.028493052511036,19.0700847578799
0.0284119408090772,19.0731289505575
0.027860201537967,19.0768236003651
0.0270442682541496,19.0799448671377
0.0259636698974545,19.0830661339104
0.0248798256660246,19.0857272713204
0.0238058787922625,19.0881328828695
0.0227320344297196,19.0904108866415
0.0216582666966499,19.0926193055807
0.0205876786287764,19.0947901143082
0.0195239775249441,19.0969440864563
0.0184708184631092,19.0990961927027
0.0174316289452434,19.1012580292558
0.0164095606187438,19.1034391068758
0.0154074892262644,19.1056475938839
0.0144280179973173,19.1078908046368
0.0134734924889283,19.1101755177938
0.0125460105727132,19.112508215791
0.0116474285902747,19.1148952796266
0.0107793748074965,19.1173431321841
0.00994325639818483,19.119858378174
0.0091402652835297,19.1224479408126
0.00836601433913216,19.1251386033427
0.00760462938126999,19.128008856595
0.0068599338249581,19.131079033787
0.00613570912008766,19.1343735516534
0.00543593992854891,19.1379205919025
0.0047647746454628,19.1417527952426
0.00412645359388268,19.1459082020812
0.00352529193405549,19.1504316295226
0.00296528721085631,19.1553769792653
0.00244991661943302,19.1608114490147
0.00198191904359041,19.1668226313094
0.00156323411888988,19.1735281476958
0.00120781721055531,19.1807919557079
0.000912265539555878,19.1886654009259
0.000669993266292351,19.1972832258359
0.000477527506800016,19.2068233366411
0.000353275000594758,19.2159827809082
0.000258785450580863,19.2259827809082
0.00019308222045871,19.2359827809082
0.000147305396101351,19.2459827809082
0.000115755697684664,19.2559827809082
9.43619637235473e-05,19.2659827809082
8.01243355423117e-05,19.2759827809082
7.08770345708224e-05,19.2859827809082
6.51059092271252e-05,19.2959827809082
6.17755087388387e-05,19.3059827809082
6.0182776362021e-05,19.3159827809082
5.98491317579415e-05,19.3259827809082
6.04477166373105e-05,19.3359827809082
6.17559732593331e-05,19.3459827809082
6.3624371573448e-05,19.3559827809082
6.59551435854714e-05,19.3659827809082
6.86874944813997e-05,19.3759827809082
7.17872862968858e-05,19.3859827809082
7.52399353515529e-05,19.3959827809082
7.90456375869945e-05,19.4059827809082
8.32162718703121e-05,19.4159827809082
8.77735146465477e-05,19.4259827809082
9.27478465197798e-05,19.4359827809083
9.81782442652469e-05,19.4459827809083
0.000104112435351253,19.4559827809083
0.000110607654653045,19.4659827809083
0.000117731893315241,19.4759827809083
0.000125565674941838,19.4859827809083
0.000134204440516161,19.4959827809083
0.000143761676471126,19.5059827809083
0.000154372986854366,19.5159827809083
0.000166201399516733,19.5259827809083
0.000179444320652938,19.5359827809083
0.000194342731519046,19.5459827809083
0.000211193486665519,19.5559827809083
0.000230365974505725,19.5659827809083
0.000252325021240919,19.5759827809083
0.000277662898687517,19.5859827809083
0.000307144880721514,19.5959827809083
0.000341775422349765,19.6059827809083
0.000382896526043924,19.6159827809083
0.000432337778069636,19.6259827809083
0.000490313038706659,19.6356247580941
0.000555838533458567,19.6445475324006
0.000629725295199261,19.6527906394845
0.000713017382439386,19.6604055192939
0.000806921707113169,19.6674405173352
0.000912809474922916,19.6739405630224
0.00103223327904197,19.6799474502145
0.00116694982401481,19.685500095271
0.00131894922810411,19.6906346794386
0.0014904831918056,19.6953847968917
0.00168410278384523,19.6997816545208
0.00190269979395858,19.7038543045308
0.00214956115880427,19.7076298020945
0.00242842029579826,19.7111333107473
0.00274353366853012,19.7143882760841
0.00309977231654769,19.7174166378491
0.00350273272229924,19.7202389570055
0.00395888502630585,19.7228745823813
0.00447577388097427,19.7253418917653
0.00506228994698647,19.7276585084619
0.00572906129906765,19.7298415973823
0.00647531347005381,19.7318741549476
0.00729652377009516,19.7337474241796
0.00820256749353451,19.7354922150211
0.00920794372033555,19.7371387801362
0.0103347553336137,19.7387188736309
0.0116208841695732,19.740272230924
0.0132021847477201,19.7419205119157
0.015407672815986,19.7438938692855
0.0172571944112135,19.7453596408532
0.0192476556387055,19.7468254124209
0.0209978322770732,19.7480727665315
0.0225440438204811,19.7491855919244
0.0239359610769494,19.7502389682783
0.0251804954476471,19.7512764713317
0.0262631174456859,19.7523350044102
0.0271506347999901,19.7534602362444
0.0277772366030449,19.7547338026302
0.027978514683628,19.7561535096291
0.0276812867255461,19.7575730235265
0.0269043370722837,19.7590725803237
0.0258558711957756,19.7604584691119
0.0246228248712343,19.7618027590902
0.0232254082995123,19.7631718671452
0.0216760999416561,19.7646079680506
0.0199831944898293,19.7661490597334
0.018868459413139,19.7671708991519
0.0177865079316465,19.7681927385703
0.0156387978584078,19.7703833680228
0.0133652539156519,19.7730128393013
0.0112315245463809,19.7758972399619
0.00956302401294798,19.7785671961468
0.00824360236407082,19.7810596728365
0.00712669951510428,19.78355668252
0.00617143988165783,19.7861121644035
0.00536063282279313,19.7887504048111
0.00468331004231074,19.79149432303
0.00413355890607256,19.7943679936591
0.00371092679889068,19.7973980680178
0.00342219035253029,19.8006152420022
0.00328536286571716,19.8040560414484
0.00331750342749796,19.8072284158185
0.0034866701950231,19.8100917926624
0.00377142722996533,19.8126961285839
0.0041617267095815,19.8150898882042
0.0046565698587505,19.8173208392285
0.00526561420581585,19.8194435966829
0.00601234106925574,19.8215203310005
0.00694592067627753,19.82363629104
0.00817309807342829,19.825932545831
0.00989559814607673,19.8286070144519
0.0120049836267332,19.8313515705683
0.013605941884276,19.8331594825179
0.015411846516527,19.8349673944675
0.0172635797571288,19.8365990132945
0.0192065313292126,19.8381010306099
0.0213010747249971,19.8395152628073
0.0235973006648484,19.840862886086
0.0261431872564954,19.842156117671
0.028979782712244,19.8433992354869
0.0321531131160668,19.8445964408301
0.0357082809540253,19.8457496049988
0.0397009195436174,19.8468623755104
0.0441868917797891,19.8479364943401
0.0492361045006191,19.8489753480857
0.0549262268269335,19.8499816929837
0.0613486441690568,19.8509585546507
0.0686120610711086,19.8519092111486
0.0768452605466633,19.852836989928
0.0862044362101382,19.8537455370381
0.096879618118942,19.8546387318195
0.109105462258974,19.8555208349577
0.123176424126798,19.8563966609987
0.13946780344114,19.8572717609164
0.158469002855763,19.8581528053595
0.180839630208042,19.8590483058962
0.207296150983479,19.8599630653499
0.237896443222555,19.8608800619364
0.273403606008741,19.8618083346502
0.314880613911124,19.8627628978662
0.364145325661957,19.86377562676
0.400960139456346,19.8644796638742
0.438864672807363,19.8651837009884
0.472579711981775,19.8658150771679
0.502221730915511,19.8663986937327
0.528227747463083,19.8669636105098
0.550483981171294,19.8675331069117
0.568365402610583,19.8681331629144
0.58040382904475,19.8688060757805
0.58299657875543,19.8695519737186
0.573695497634179,19.8703242386959
0.551142576644254,19.8711445064306
0.514958408352656,19.8719969078464
0.465154392468989,19.8728753276678
0.400551493851518,19.8737934518367
0.351342653391672,19.8744024546841
0.298009474357038,19.8750114575315
0.251381326895885,19.8755197696943
0.211866318011311,19.8759447469721
0.177384544856706,19.8763194538371
0.146631351442941,19.8766634598647
0.118832367076107,19.8769887811587
0.0934577738600412,19.8773042476088
0.0700696434523378,19.877618033597
0.0481876053451561,19.8779404946177
0.0269598298294859,19.87829224665
0.00871200433961912,19.8786401020485
-0.000853151057458799,19.8788464752632
-0.00951914655491225,19.8790528484779
-0.0162197514769654,19.87922853657
-0.0223647542596641,19.8794052822821
-0.0285773156755127,19.8796031970639
-0.0345952683330186,19.8798187488407
-0.0402496240508038,19.8800497566193
-0.0454457450209719,19.880295415699
-0.0501338559710994,19.8805558405385
-0.0542913693211587,19.8808318058746
-0.0579124533833886,19.8811246223966
-0.061001638247335,19.8814360945625
-0.0635661037055514,19.8817685356393
-0.0656919275755894,19.8821421417229
-0.0671933130203717,19.8825237394922
-0.0682131527246447,19.8829367334485
-0.0687656675475283,19.883386851283
-0.0688602092202444,19.8838810792436
-0.0685001737134527,19.8844284866754
-0.067677899192077,19.8850424198486
-0.0663696518727962,19.8857407971255
-0.0645251540030754,19.8865505766222
-0.0620376131573936,19.8875185428316
-0.0586300637328087,19.8887516219146
-0.0545735310356622,19.8901686412936
-0.0506198046098127,19.8915405869321
-0.0468255391536199,19.8928729580306
-0.043219858362513,19.8941679624114
-0.0398185900033514,19.8954263208278
-0.0366300456795697,19.8966480089627
-0.0336575009969128,19.897832650806
-0.0309004582117283,19.8989797265843
-0.028355435658436,19.9000886808632
-0.0260165644883754,19.9011589747674
-0.0238760991704751,19.9021901050788
-0.0219248798069275,19.9031816023834
-0.0201527548700639,19.9041330149976
-0.0185489641497873,19.905043882397
-0.0170127045357282,19.9059694079852
-0.0155343107142799,19.9069188239731
-0.0141178379763825,19.9078939583283
-0.0127670614877174,19.9088970235752
-0.0114855394844772,19.9099306254526
-0.0102765582935261,19.9109978618369
-0.00914307471803842,19.912102453396
-0.00808765449402074,19.913248920774
-0.00711240586494589,19.9144428307684
-0.00621890637016664,19.9156911482868
-0.00540811925284976,19.9170027569977
-0.00468029273647058,19.9183892621212
-0.00403482910205592,19.9198662936699
-0.00347009654662876,19.9214557663614
-0.00300594219305448,19.9230983096381
-0.00263110887968778,19.9247940802924
-0.00232985976110782,19.9265616131868
-0.00208751280565127,19.9284242838956
-0.00188985007134077,19.9304139089436
-0.00172247140133692,19.9325767895241
-0.00156964787448297,19.9349868969476
-0.00141163035143848,19.937780931696
-0.00122237006457608,19.9411653450202
-0.00101251356815542,19.9446917136289
-0.000774856130365365,19.9483779227303
-0.000509220803364451,19.9522434560849
-0.000219393521287125,19.9563086125575
8.95125676886655e-05,19.9605948129331
0.000412979361545805,19.9651253251141
0.000733232155816815,19.9697081888511
0.00103095293264577,19.9740773990794
0.00132178651917343,19.9784510937944
0.00162710305298003,19.9831445773114
0.00194871775286649,19.9881763276321
0.00226187874166417,19.9931269846817
0.00247889215976577,19.9965634923408
0.00269587939198845,20
