ecg,time
-0.00237759998122536,15.0005259045545
-0.00156657135760282,15.0018176184937
-0.000843381290262339,15.0031804081944
-0.000208212121157487,15.0046285204033
0.000339501640210159,15.0061816657434
0.000787770891055227,15.0078121442075
0.00113688557899114,15.0094901726556
0.0014029376449061,15.0112340630961
0.00160033374636312,15.0130653278967
0.0017425764400051,15.0150127868771
0.00184266468696206,15.0171174497255
0.00191368759621689,15.019442771215
0.00196996227798361,15.0221000397123
0.00203029151077478,15.0253330425398
0.00211167058669148,15.0290731799036
0.00222312380449335,15.0330880973032
0.00236886213975533,15.0373972055231
0.0025547729214095,15.0422335753103
0.00275756448168475,15.0471229026467
0.00296921400421657,15.052031871103
0.00316411616287716,15.056453734
0.00334105738013722,15.060403149349
0.00351224271454484,15.0641598551551
0.00368364400502146,15.0678446178177
0.00385913169774949,15.0715244877868
0.00404183918826608,15.075245599081
0.00423464933506446,15.0790441227839
0.00444044932877992,15.0829512884534
0.00466232444974741,15.0869965239576
0.00490370329412692,15.0912090969755
0.0051685232316942,15.0956194243376
0.00546146208499862,15.1002602178481
0.00578833601898931,15.1051679090085
0.00615675633192918,15.1103838921941
0.00654529201328479,15.1155418766016
0.00695628693027974,15.1206385468842
0.00739190233666424,15.1256587011412
0.00785623811168501,15.1306034214565
0.00835439940199654,15.135477006178
0.00889234623851084,15.1402845999896
0.0094766891417165,15.1450295679457
0.010114667970905,15.14971304757
0.0108187556126552,15.1543628903014
0.0116116890501771,15.1590467571674
0.0125095390387163,15.1637609083388
0.0135364089108429,15.1685250817295
0.0147272333720542,15.1733802224309
0.0161431109344256,15.1784261199384
0.0179249186424103,15.1839497320234
0.0203450327463993,15.1904729174191
0.0219078170850353,15.1943320159553
0.0235124830168178,15.1981911144914
0.0249157923567725,15.2016400230658
0.026099881263921,15.2047864946974
0.0270800626982258,15.207806416169
0.0278123407451352,15.2106977906719
0.0282801119652482,15.2135058878526
0.02847370909574,15.2163574536007
0.0283450830677536,15.2194407204901
0.0277038743693426,15.2232938323794
0.0268727243772219,15.2263011908833
0.0258048489471838,15.2293085493872
0.0247296332984988,15.2319180636015
0.0236614835711488,15.2342976241372
0.0225935451477414,15.2365586746162
0.0215264289887302,15.2387543462882
0.0204632834243744,15.2409147413512
0.0194077384726951,15.2430596986908
0.0183633434035321,15.2452036470637
0.0173334141355646,15.2473578401644
0.0163209919247361,15.2495315602088
0.0153288430861257,15.2517328242222
0.0143594665154298,15.2539688435803
0.013415104306639,15.2562463414458
0.012497755423644,15.2585717801383
0.0116091822041823,15.2609515551856
0.0107509206427372,15.2633921514703
0.00992429441407009,15.2659002717473
0.0091304158099439,15.268482998107
0.00835898018087762,15.2711888406245
0.00760072410157195,15.2740764773605
0.00685941048452312,15.2771670816867
0.00613886352142514,15.2804857328616
0.00544311906123788,15.2840614593281
0.00477638874351886,15.2879279845553
0.00414298751888579,15.292124744197
0.00354721297050826,15.2966983983703
0.00299315555201975,15.3017054053154
0.00248444135028997,15.3072166960121
0.00202399255691348,15.3133256111084
0.00161518968833717,15.3201366407216
0.00127342033668019,15.3274656931109
0.00105533601067308,15.3334230344501
0.000889441044276511,15.3393803757892
0.000714786081662488,15.3480840097289
0.000592884515441787,15.3569131487843
0.000502830147801,15.3667035609235
0.000447889847581329,15.3767035609235
0.000421627604450852,15.3867035609235
0.000418083630325326,15.3967035609235
0.000433570411282627,15.4067035609235
0.000466443011741475,15.4167035609235
0.000517041765057605,15.4267035609235
0.000581621367182146,15.4359243392248
0.000659360078701755,15.4443900526434
0.000750612394936662,15.4521657790738
0.000856398275586397,15.4593121950472
0.000978205505508394,15.4658845583037
0.00111790905301422,15.4719333293915
0.00127774863392393,15.4775047269588
0.0014603371118263,15.4826411812631
0.00166868904566282,15.487381720774
0.00190626502169885,15.4917623214199
0.00217703428868619,15.4958162300823
0.00248555673466393,15.4995742651878
0.00283709066730254,15.5030651099002
0.00323773821669732,15.5063156199935
0.00369464319026243,15.5093511631144
0.00421627180999205,15.5121960134758
0.00481282635154132,15.5148738592686
0.00549688692943954,15.5174085191868
0.00625924670438628,15.5197542459393
0.00711055761974995,15.5219487226556
0.00807055341020999,15.5240392869957
0.00917372298822207,15.526083901581
0.0104943260767554,15.5281792742804
0.0123102400787487,15.5306452898573
0.0136969106961402,15.5323207592427
0.0151783397983917,15.5339962286282
0.0165466639768768,15.5354996125344
0.0177526125850135,15.536841546399
0.0188267959392979,15.5381041814886
0.0197730045843604,15.5393384164053
0.0205778831391961,15.5405853988375
0.0212128589962559,15.5418926038021
0.0216238684793562,15.5433376537941
0.0216789654417774,15.5451219919431
0.021197740801574,15.5470437332238
0.0202381387082558,15.5489654745046
0.0191742256178796,15.5505461819865
0.0180089836894246,15.5520421893503
0.0167380255743785,15.5535480602301
0.0153695775950904,15.55510731459
0.0144917657044162,15.556098020434
0.0136265544588108,15.557088726278
0.01283715753904,15.5580317926497
0.0107400681078927,15.5607731612135
0.00893158215633146,15.5634992727881
0.00746702047113827,15.5660522112756
0.00621338100967675,15.5685776470407
0.00511788403184256,15.5711365113755
0.00422658733231113,15.5735470290474
0.00349345514455737,15.5758251007229
0.00288153024187187,15.5779934177061
0.00236237356950139,15.5800771814383
0.00191342862888047,15.5821070244445
0.00151554941662536,15.5841257315953
0.00114932730416896,15.5862087048859
0.000783842024482582,15.5885519756558
0.000509755830055115,15.5905199146834
0.000261555290564509,15.592487853711
6.97534012418024e-05,15.594148515461
-8.93088941341385e-05,15.5956301172735
-0.000233952886732217,15.5970680940178
-0.000374127588418812,15.5985513899742
-0.000519209605407906,15.6001872553365
-0.000686340993863204,15.6022087045018
-0.00097444124209973,15.6060677448905
-0.00123439669928528,15.6099927987556
-0.00145364166074748,15.6136495415025
-0.00167681075989796,15.6177038904735
-0.00197417411370307,15.6236241960068
-0.0022207213195475,15.6291103140868
-0.00241113599580322,15.6340805794417
-0.002538279961668,15.6385756233686
-0.00259214498513893,15.6426364340167
-0.00256411027697106,15.646267446504
-0.0024499851376209,15.6495259805943
-0.00224711888126361,15.6524771912259
-0.00195222711940122,15.6551866030296
-0.00155664241073254,15.6577340422875
-0.00103829166669753,15.6602238998123
-0.000336517037196827,15.6628422279278
0.000589223130320585,15.6656338182632
0.00142563245553354,15.6678243971138
0.00232922693747009,15.6700149759644
0.00325094954404116,15.6721586828472
0.00438038354422569,15.6747226385061
0.00530161456739487,15.6767596764295
0.00626274743871654,15.678796714353
0.00722159189200205,15.6806936559393
0.00822355591036283,15.6825009868493
0.00929247738520754,15.6842242861041
0.0104830112041355,15.6859137191484
0.0118121876651182,15.6875545695034
0.0133176583895027,15.6891591439329
0.0150024846304488,15.6907025859747
0.0169027057116222,15.6921959583458
0.0190386435474707,15.6936347599399
0.0214329986857936,15.6950174213106
0.0241053050671913,15.6963413492544
0.0270942681943019,15.6976130134882
0.0304374137448004,15.698835472512
0.0341783170968253,15.7000120537673
0.0383671174141606,15.7011460551093
0.0430641113218771,15.7022412699388
0.0483394775752216,15.703301318114
0.054276075223821,15.7043298395133
0.0609725868798233,15.7053305567745
0.0685476278570204,15.7063073396766
0.0771459158511669,15.7072643551318
0.0869459673701736,15.7082061415599
0.0981721020620765,15.7091378324745
0.111112252353859,15.7100654500111
0.12614646092317,15.7109963965598
0.143794482705323,15.7119402653517
0.164804194569485,15.7129104310895
0.189211427628064,15.7138856929182
0.217541116275228,15.7148708373767
0.250604937996276,15.7158788435691
0.289567171235283,15.7169303664107
0.336006382409635,15.7180570160658
0.379134505145017,15.7190321825845
0.414431152214674,15.7198136177996
0.444781375794913,15.7205007962296
0.4713227727252,15.7211421470247
0.494259112171166,15.7217652329817
0.513317340450752,15.7223925306516
0.527747622185503,15.7230490934605
0.535970432450648,15.7237728499389
0.534812318753701,15.7245683200005
0.522178514193622,15.7253847428426
0.496725141368274,15.7262393752792
0.456639464740161,15.7271451356874
0.399862656060618,15.7281105732318
0.35355040941982,15.7287682789317
0.301976068795327,15.7294259846315
0.256306880886659,15.7299709658894
0.217501439548459,15.7304215561778
0.183602557778231,15.7308152132336
0.153338704419763,15.7311739337375
0.125962489179672,15.7315108554181
0.100974657820608,15.7318352011196
0.0779813069313693,15.7321548811793
0.0565914766542586,15.7324787320736
0.0362406288397083,15.7328210837766
0.0153552068515925,15.7332242041144
0.00224478339837695,15.7335170853724
-0.00518139084411993,15.733702220044
-0.0119709627533199,15.7338873547156
-0.0178808125237709,15.7340639261111
-0.0239283614046839,15.7342633698617
-0.0298380292054326,15.7344818409445
-0.0354197721583995,15.7347165736618
-0.0405667214262255,15.7349664146438
-0.045221934187068,15.7352312689465
-0.0493583435333102,15.7355117749792
-0.0529657764968759,15.7358091423796
-0.0562525673927479,15.7361506743944
-0.0587320852401065,15.736486473324
-0.0607021081209044,15.7368454541138
-0.0621800550797463,15.7372313971774
-0.0631801932706742,15.7376485448058
-0.0637150039049986,15.73810217163
-0.063793580127334,15.7385989321402
-0.0634196422697931,15.7391473895437
-0.0625869591279721,15.7397599716004
-0.0612748812578138,15.7404532416423
-0.0594403443825744,15.7412513029681
-0.0569952455375084,15.7421940813349
-0.0537312808520094,15.7433639703892
-0.0496371634466995,15.7447792257835
-0.0456559704088165,15.7461453943045
-0.0418452337502385,15.7474697237894
-0.0382342121837145,15.7487551419019
-0.0348380090128669,15.7500027984244
-0.0316638005777513,15.7512129441827
-0.0287135404918139,15.7523853914015
-0.0259853534197831,15.7535197561508
-0.0234744088095569,15.7546155845059
-0.0211735733833932,15.75567241418
-0.0190739574884326,15.7566897983734
-0.0171653973329348,15.7576673060943
-0.0154368859527222,15.7586045067771
-0.0138523190558147,15.759515541976
-0.0123254762478688,15.7604497412287
-0.0108612659546749,15.7614084001719
-0.00946368683882172,15.7623935264896
-0.00813656244886105,15.7634074672631
-0.00688348666462197,15.7644529956309
-0.00570777305937213,15.7655334196126
-0.00461240209817608,15.7666527276922
-0.00359996629020503,15.7678157878699
-0.00267261306779385,15.7690286269213
-0.00183198131555412,15.7702988343042
-0.00107899324164206,15.7716361680911
-0.000414038762498375,15.7730535055428
0.000163176486375274,15.7745684204237
0.000648768581267248,15.7761868512197
0.00102918558122463,15.7778467232435
0.00132144997575758,15.7795663952417
0.00154034128547415,15.7813655631107
0.00169962769386938,15.7832702087459
0.00181242377752738,15.7853164737043
0.00189170130811623,15.7875585525515
0.00195117032574226,15.7900869648987
0.00200744240286593,15.7930824890469
0.00208336407463656,15.7968182674743
0.00218311951399221,15.8006940840783
0.00231864543895791,15.8049288855114
0.00248954391525695,15.80952678781
0.00269006233827618,15.8144613444213
0.00289816777578596,15.8193362436109
0.00310497328804525,15.82405996501
0.00328593116218846,15.8281191519365
0.00345813084495948,15.8319199327959
0.00362898141581321,15.8356188307562
0.0038028020047431,15.839294569444
0.0039828863409217,15.8429982096247
0.00417216575289637,15.8467684413421
0.00437350227957747,15.8506376496273
0.00458990135863653,15.8546356170555
0.00482466557749087,15.858791505091
0.00508154956741345,15.8631352364984
0.00536496206547253,15.8676986551394
0.00568029926508841,15.8725168369927
0.0060345084713614,15.8776294935415
0.00641899559475424,15.882843173806
0.00682176793192591,15.8879504182915
0.00724938159662928,15.8929986537274
0.00770392994447066,15.897966376565
0.00819065773984576,15.9028624031964
0.00871515628119677,15.9076906384326
0.00928386891624496,15.9124554676454
0.00990382217030359,15.9171586559652
0.0105827241713668,15.9218000863496
0.0113458210841341,15.9264759729286
0.0122075319668739,15.9311784805326
0.0131897339654783,15.9359236578142
0.0143228333700274,15.9407425543464
0.0156567072410392,15.9457095033148
0.0172941545529336,15.9510218788641
0.0195908609382287,15.9574706040198
0.0212487322044918,15.9616662210515
0.0229842191011215,15.9658618380832
0.0244786987811171,15.9694866232665
0.0257324864422827,15.9727118350785
0.0267801302636093,15.9757575501251
0.0276009708866216,15.9787024005808
0.0281556899268628,15.9815251769427
0.0284422104352036,15.9843465596254
0.0284290264378371,15.9873238047864
0.0280023176845063,15.990798866654
0.0272136685295225,15.9941190472418
0.0261127848529276,15.9974392278297
0.0250240908468259,16.0001714226225
0.0239542084988324,16.0026011538735
0.0228862971049282,16.0048879599184
0.0218186834238651,16.007097914899
0.0207540891141669,16.0092656801433
0.0196960965484842,16.0114132477042
0.0186483015199858,16.0135562377744
0.017614090298525,16.015706625151
0.0165965803534067,16.0178741468328
0.0155986134047816,16.0200671113726
0.0146227596577778,16.0222929166884
0.0136713311981201,16.0245583919341
0.0127463923631857,16.0268700512356
0.0118497683960687,16.029234294309
0.0109830584621739,16.0316575612772
0.0101476417779955,16.0341464861516
0.0093446884529263,16.0367080306628
0.00857026152325495,16.0393671315065
0.0078079762612194,16.0422028439478
0.00706162269730097,16.0452352222097
0.00633496001453,16.0484883824356
0.00563196928484681,16.0519901956977
0.00495681996629796,16.0557730022833
0.00431380775574547,16.0598745447347
0.00370725008687226,16.0643393029408
0.00314131756507761,16.0692206900331
0.00261979461878503,16.0745849882899
0.00214581072784753,16.0805183908774
0.00172174643179441,16.0871372339555
0.00136205718417636,16.0943124752083
0.00106464905745886,16.1020778608246
0.000831361074525525,16.1107842979112
0.000698879898820803,16.1179839619769
0.000573683521505815,16.1275635784198
0.000492550437287415,16.1371223050534
0.000442391362173917,16.1471223050534
0.000419803035109477,16.1571223050534
0.000419245150654305,16.1671223050534
0.000437358452344084,16.1771223050534
0.000472790250570008,16.1871223050534
0.000525538042390566,16.1970181680349
0.00059202940424275,16.206126259966
0.000671678574957581,16.2144885797536
0.000764955104135985,16.2221700012175
0.00087295446469165,16.2292303919783
0.000997223275913271,16.2357242811233
0.00113968966389742,16.2417014872774
0.00130264620571456,16.2472076581844
0.00148876174844143,16.252284711769
0.00170111213695137,16.2569712164815
0.00194322732339496,16.2613027361753
0.00221915622985134,16.2653121503218
0.00253355248537319,16.269029951967
0.0028917863416156,16.2724845419918
0.00330009676918824,16.2757025405819
0.00376579918381306,16.2787091323995
0.00429758120654983,16.2815284733596
0.00490594228071652,16.2841842210728
0.00560203434026899,16.2866942281379
0.00637637519849293,16.2890154615592
0.00724195013492679,16.2911919721451
0.00822000005745403,16.2932719665233
0.00934844800776312,16.2953164312708
0.0107126319797684,16.2974335872536
0.0126864055584539,16.3000500601861
0.0140609779765796,16.3016772948377
0.015515222614502,16.3033045294893
0.0168395424628052,16.3047586318295
0.0180130146662535,16.3060761969354
0.019057767825612,16.3073283850022
0.0199727314903042,16.3085619725268
0.020741217180001,16.3098182077303
0.0213302520217196,16.3111486378376
0.0216757164408476,16.312645374424
0.0215984043216797,16.314590891209
0.0210160898306343,16.3164173729427
0.0200245479004661,16.3182438546764
0.0189411811108888,16.3197936771785
0.0177537874520667,16.3212869220502
0.0164620307745188,16.3228008156907
0.0150746367933934,16.3243755096697
0.0142612722195579,16.3252939864746
0.0134655878889706,16.3262124632795
0.0119228753738948,16.3281156303475
0.00993716219663523,16.3308693616867
0.00828524855935333,16.3335160534659
0.00692899533192835,16.33602632154
0.00574101520628091,16.3385692780087
0.00473484195166332,16.341065706292
0.00391277193682762,16.343419889602
0.00323267210354598,16.3456506212792
0.00266138576104485,16.3477813794757
0.00217316517388161,16.3498390294877
0.00174712455755956,16.3518580432974
0.00136463219884639,16.3538903488218
0.00100411612584265,16.3560398686975
0.000615721035433728,16.3586699863621
0.00038835471476968,16.3603932064625
0.000179554414887913,16.3621164265628
4.86336184152407e-06,16.3636753536384
-0.000147057287510675,16.3651277610858
-0.000288922614640763,16.3665730710937
-0.000429731378085731,16.3680999215946
-0.000580365642147424,16.3698432837104
-0.000768456053074565,16.3721925585703
-0.00104290966277448,16.3759930555753
-0.00126369784403653,16.3793965904025
-0.00145119678324788,16.382540522035
-0.00164961477729743,16.3861251365617
-0.00190727252099072,16.3911745220119
-0.00216496458589513,16.3967404722337
-0.0023698094302003,16.4018318855295
-0.00251362320796382,16.4064401197879
-0.00258669819139102,16.4106101320626
-0.0025794350039607,16.4143423329176
-0.00248681148157033,16.4176884723633
-0.00230609553990679,16.4207092605628
-0.00203434368773432,16.4234721898955
-0.00166463951675293,16.426052956064
-0.00117972862179263,16.4285451972425
-0.000531077289142546,16.4311121768519
0.000330623176695825,16.4338410558037
0.0011683074589983,16.4361090438926
0.00208746953406242,16.4383770319815
0.00299187611199744,16.4404983306495
0.00402955843751464,16.442870033056
0.00505709133938914,16.4451637253555
0.00612791519464399,16.447457417655
0.00708546407569669,16.4493741627991
0.00808095306067075,16.4511960854504
0.00913162577589415,16.4529191247447
0.0103041179498815,16.45461504963
0.0116121157979306,16.4562629888533
0.0130919855828417,16.4578739727441
0.0147514032204218,16.4594271747328
0.0166228832623845,16.4609300323749
0.0187261967258295,16.4623777105552
0.0210767733564072,16.4637647026016
0.0237078588307946,16.4650966795425
0.0266510651842023,16.4663760064396
0.029942822542884,16.467605570835
0.0336243538098726,16.4687882606186
0.0377465861715688,16.4699280328948
0.0423680851758825,16.4710285304273
0.0475573424985708,16.4720933462023
0.0533951937934845,16.4731261035152
0.059977696752062,16.4741304890385
0.0674207055960706,16.4751104035316
0.0758647193242732,16.4760699460264
0.0854828443202728,16.4770135880503
0.0964919238716718,16.4779463555819
0.109169613921458,16.4788741322188
0.123880661702521,16.4798040862633
0.141121003481632,16.4807454275908
0.161598243231291,16.4817108466995
0.185498183412774,16.4826855005706
0.213222759386657,16.4836685366135
0.245549353844581,16.4846722556883
0.283573752139478,16.4857157300917
0.329157060501453,16.4868367121682
0.364159146760053,16.4876378932413
0.400257199575298,16.4884390743143
0.432349985959563,16.4891552192739
0.460449469925637,16.4898119554343
0.484931760571582,16.4904399803927
0.505704065272997,16.4910627286951
0.522238413636512,16.4917032598383
0.533387579322479,16.4923921275808
0.536607360234785,16.4931846376296
0.528748786572479,16.4939903142318
0.508676777991982,16.4948276617394
0.474752419398709,16.4957114979177
0.424979263691827,16.4966518834574
0.376396674675421,16.4973937514611
0.320533706380831,16.4981356194648
0.271355338175405,16.4987335817918
0.230312417907481,16.4992129554251
0.1948877518961,16.4996232630008
0.1634674844306,16.4999922958124
0.135155889656642,16.5003355950703
0.109388232689616,16.5006633783791
0.0857458980196762,16.5009837764674
0.063849648915897,16.5013049951313
0.0432293148850987,16.5016385473297
0.0228928812931118,16.5020107848767
0.00789584143569194,16.502325798165
-0.000342093190982664,16.5025194111371
-0.00786447159619611,16.5027130241091
-0.0143097508046042,16.5028949800615
-0.0203191631937761,16.503081453908
-0.0263414231160729,16.503289047653
-0.0321360995572096,16.5035143054079
-0.0375519308270555,16.5037552014463
-0.0425053680427388,16.5040110630682
-0.0469533512262474,16.5042821192155
-0.0508772387031564,16.5045692516254
-0.0542674466261661,16.5048738780342
-0.0571581572436955,16.5052027633892
-0.0594607805719038,16.5055459945274
-0.0612610546211057,16.5059137615062
-0.0625742410802884,16.5063098412139
-0.0634141586633958,16.5067387963471
-0.0637923255556893,16.5072063268919
-0.0637162511776463,16.5077196673443
-0.0631870948876243,16.5082883237104
-0.0621939027146181,16.5089263252032
-0.060709847854823,16.5096521169667
-0.058680225434604,16.5104938755498
-0.0559899782959789,16.5115010389108
-0.0523353964557627,16.5127897197178
-0.0482727000236527,16.5141862744103
-0.0443446712851443,16.5155377956382
-0.0405992036956466,16.516848752924
-0.0370597076270718,16.5181213269138
-0.0337381623494277,16.5193562929409
-0.0306397677642246,16.5205537166315
-0.0277650624939477,16.5217133245679
-0.0251110886810365,16.5228346993582
-0.0226721704568085,16.5239173798715
-0.0204405228370318,16.5249609079416
-0.0184067737507598,16.5259648430934
-0.0165604283076501,16.5269287569094
-0.0148902832352083,16.5278522134357
-0.0133248341412042,16.5287710125954
-0.0118188870620551,16.5297133424178
-0.0103769520840167,16.5306807824413
-0.00900297427317996,16.531675447567
-0.00770070446073585,16.5326998196685
-0.00647364680054133,16.5337568404044
-0.00532500737098947,16.5348500311226
-0.00425764068319954,16.5359836543972
-0.00327399410389968,16.5371629367357
-0.00237604982524259,16.5383943841056
-0.00156521808215643,16.5396862436571
-0.000842225662868755,16.5410492062917
-0.000207253871060549,16.5424975284454
0.000340264590209271,16.5440509360201
0.000788290676724473,16.5456815000266
0.0011372012572617,16.547359655331
0.00140308253207938,16.5491037146931
0.00160033873846455,16.5509352034404
0.00174247075065334,16.5528829619433
0.00184247687580462,16.5549880356456
0.00191344722754076,16.5573139487951
0.00196970361732036,16.5599721511833
0.00203006667514781,16.5632069556929
0.00211148464938337,16.5669472454395
0.00222301663858054,16.5709632293347
0.00236875627928363,16.575271246103
0.00255453463613883,16.580103869037
0.002757310209242,16.5849935421469
0.00296889780217039,16.5899018165655
0.00316392231811213,16.5943271567173
0.00334090048945356,16.5982779372238
0.0035120892309679,16.6020351927346
0.0036834773545066,16.6057201071062
0.00385894069858272,16.60939987691
0.00404161443936554,16.6131207005839
0.00423438178650943,16.6169187819996
0.00444012940967007,16.620825364994
0.00466194154545926,16.6248698815883
0.00490324530556927,16.6290815968777
0.00516797600390131,16.6334909195712
0.00546080839649592,16.6381305476097
0.00578755363959272,16.643036891417
0.00615581481269813,16.6482513196826
0.00654433895903257,16.6534099277885
0.00695527166396907,16.6585066251507
0.00739083359798654,16.6635270346894
0.00785509859588906,16.6684719448295
0.00835317456698863,16.6733457121209
0.0088910178101377,16.6781534647079
0.00947523797328929,16.6828985799851
0.0101130736027193,16.6875822027498
0.0108169561147854,16.6922319465711
0.0116096508777256,16.6969157468677
0.0125072099537069,16.7016297952591
0.0135337188861101,16.7063938025933
0.0147240728146598,16.7112486254831
0.0161392728510623,16.7162938208814
0.0179198156246528,16.7218154646944
0.0203398830013089,16.7283403992982
0.0219030658125391,16.7322010556955
0.0235083572682991,16.7360617120927
0.024912335539453,16.7395118068386
0.0260969862043628,16.7426588373622
0.0270777290598655,16.7456789119765
0.0278107387508063,16.7485706720865
0.0282792381241913,16.7513788354887
0.0284736282093778,16.754230075037
0.0283460231596312,16.7573122898607
0.0277069775439597,16.7611612416294
0.0268762099049344,16.764171041237
0.0258081391862554,16.7671808408446
0.0247328352517032,16.7697914282295
0.0236646753882736,16.7721714696997
0.0225967372918094,16.7744327749083
0.0215296145441053,16.7766285877503
0.0204664520268688,16.7787890536852
0.0194108794883998,16.7809340327707
0.0183664467580067,16.7830779656747
0.0173364705358451,16.7852321133349
0.0163239928990668,16.7874057625569
0.0153317809768858,16.7896069332845
0.0143623344334701,16.7918428387358
0.0134178961100243,16.794120203092
0.0125004656903763,16.796445489066
0.0116118061864432,16.7988250921123
0.0107534542581692,16.8012654965409
0.00992673420818015,16.803773404137
0.00913275893235087,16.8063558955794
0.00836129053038808,16.8090612280327
0.00760299054472039,16.8119482979478
0.00686162218805632,16.8150382664615
0.00614100899274078,16.8183562022249
0.00544518625290316,16.8219311210196
0.00477836521518223,16.825796731134
0.0041448607126531,16.8299924495766
0.00354897067766468,16.8345649122347
0.00299478658490465,16.8395705433934
0.00248593643893788,16.8450802216174
0.00202534483124607,16.8511872075681
0.00161634209944693,16.857996875926
0.00127439386881668,16.8653242993013
0.00105656694331849,16.8712686219078
0.000890684302487352,16.8772129445142
0.000716480271277797,16.8858698974292
0.000594129121345126,16.8946951095129
0.000503715513590572,16.9044787341866
0.000448448692932176,16.9144787341866
0.000421944493541185,16.9244787341866
0.000418216005088982,16.9344787341866
0.000433554779879507,16.9444787341866
0.000466298150881734,16.9544787341866
0.00051677033031642,16.9644787341866
0.000581261339328626,16.9737045834828
0.000658919737118441,16.9821751015467
0.000750092205040266,16.989955198041
0.000855794369470949,16.9971055851251
0.000977511020437663,17.0036815587531
0.00111711473851332,17.0097336132386
0.00127684309646845,17.015307997165
0.00145930685017938,17.0204471675863
0.00166751836518222,17.0251901770218
0.00190493582991349,17.029573022999
0.00217552580709849,17.03362897179
0.00248384508047198,17.0373888592314
0.00283514831371561,17.0408813839959
0.00323553324333459,17.0441334154654
0.00369213824592975,17.0471703329516
0.00421342265027599,17.0500164201963
0.00480957963670416,17.0526953723131
0.0054931767627072,17.0552310113938
0.00625513581211241,17.0575779285996
0.00710598401029182,17.0597733845577
0.00806541564625786,17.0618647070486
0.00916783677123033,17.0639098073731
0.0104872532575361,17.0660051648181
0.0122994582645019,17.0684684278212
0.0136858117417694,17.0701449397384
0.0151672214056036,17.0718214516557
0.0165363944162521,17.073326360815
0.0177429190536566,17.0746691498924
0.0188176002701213,17.0759322575141
0.0197643563185413,17.0771667076156
0.020569915781883,17.0784136590663
0.021205811518181,17.0797205036906
0.0216182064977426,17.0811645590705
0.021676082689304,17.0829457298907
0.0211976404840838,17.0848692624768
0.0202395022576892,17.0867927950629
0.0191762897616848,17.0883744546049
0.018011779502314,17.0898706891127
0.0167415464969146,17.0913764662918
0.0153738071482373,17.0929354031565
0.0144905599548704,17.0939324361763
0.0136200475358624,17.094929469196
0.0128293192129766,17.095874542405
0.0107337291101018,17.098615297137
0.00892657779583258,17.101340692268
0.00746295075815617,17.1038931544701
0.00620980260342298,17.1064187232493
0.00511507171712573,17.1089768915711
0.00422434788463514,17.1113867832595
0.00349163482753277,17.11366432888
0.00288001346333412,17.1158322265423
0.00236107100081078,17.1179156927272
0.00191226653292411,17.1199453954742
0.00151445801118371,17.1219642033177
0.00114821786217434,17.124047755456
0.000782491766614565,17.1263932256605
0.000508909269915978,17.1283580048778
0.000261119777924034,17.1303227840951
6.94289559349885e-05,17.1319823664803
-8.96203918399527e-05,17.1334636749676
-0.000234284933941543,17.1349016614326
-0.000374504827158491,17.1363852245484
-0.000519667058444731,17.138021768626
-0.000686970648396841,17.1400450783677
-0.000975027563416101,17.1439030379075
-0.00123453732700228,17.1478201942714
-0.00145308952646844,17.1514632665612
-0.00167530451692687,17.155496591017
-0.00197308236886958,17.1614188617071
-0.00222005214751502,17.1669080091452
-0.00241088883873002,17.171881074838
-0.00253848249245582,17.1763786915997
-0.00259283221379261,17.1804424251498
-0.00256527794964152,17.1840759428561
-0.00245162580527786,17.1873365373891
-0.00224922696346206,17.1902894688727
-0.00195482058379994,17.1930001716234
-0.00155980938032637,17.1955482905404
-0.00104227676621763,17.1980379075278
-0.000342012428948903,17.2006541446359
0.000582065583867211,17.203443961174
0.00141842391628846,17.2056361415381
0.00232228497273794,17.2078283219022
0.00324334858599164,17.2099710045127
0.00436998261072725,17.2125292488933
0.00529297482123654,17.2145709721199
0.00625577104975585,17.2166126953465
0.00721401520084395,17.2185098444988
0.00821583188071014,17.2203185531151
0.0092838531690101,17.2220421713404
0.0104731654612269,17.2237317905738
0.0118011209069102,17.2253731215957
0.0133051596514144,17.2269781686287
0.0149883584458471,17.2285220651124
0.0168868776995362,17.2300159888932
0.0190209415085153,17.2314553420685
0.0214132042465919,17.2328385268679
0.0240830981611528,17.2341629062638
0.0270693623543682,17.2354349957881
0.0304094782371469,17.2366578522433
0.034146967164339,17.2378348017448
0.0383318830971507,17.238969135938
0.0430244782802055,17.2400646576709
0.0482948282293218,17.2411249835635
0.0542256775397295,17.2421537530102
0.0609155584819372,17.2431546866962
0.0684829178276428,17.2441316548827
0.0770722319759736,17.2450888212054
0.0868617039447344,17.2460307203517
0.0980752260575923,17.2469624802669
0.11100012458563,17.2478901143924
0.126015563840148,17.2488210125205
0.143639918435575,17.2497647461412
0.164618728215256,17.2507346510524
0.188996507514709,17.2517098873012
0.217291071764149,17.252694921532
0.250312105771576,17.2537026939463
0.289219827871152,17.2547537658688
0.335618742026064,17.2558803180077
0.378826511888459,17.2568576840611
0.414170771610239,17.2576401968835
0.444552659147928,17.258327893633
0.471121566113447,17.2589694969735
0.494085883320707,17.2595926513212
0.51317586457115,17.2602198404856
0.527646146662823,17.2608760670653
0.53592673056172,17.2615990862062
0.534852140466141,17.2623944794261
0.522310297628903,17.2632106800426
0.496961299697072,17.2640649699786
0.456995494529279,17.2649703035522
0.400354946190684,17.2659352499998
0.353997285959807,17.2665944688988
0.302343116857283,17.2672536877978
0.256608771388887,17.2677996392944
0.217760930818716,17.2682507702899
0.183832427218106,17.2686447474351
0.153545790678333,17.2690036683473
0.126151010763971,17.2693407135103
0.101147671358509,17.2696651231968
0.0781414859210737,17.2699848097891
0.0567419217763686,17.2703085922168
0.0363870152148049,17.2706507257309
0.0155208699577148,17.2710529981371
0.00220387458239023,17.2713503332535
-0.00521659486387547,17.27153541296
-0.0120009974825004,17.2717204926665
-0.0179070274787157,17.2718970310891
-0.0239543689066153,17.2720965660817
-0.0298628763451673,17.2723151160712
-0.035442833334824,17.2725499197093
-0.0405876534627203,17.2727998292646
-0.0452405637908237,17.2730647536213
-0.0493746001833315,17.2733453340051
-0.0529796181443252,17.2736427824053
-0.0562639752971035,17.2739844327822
-0.0587411224907034,17.2743203351938
-0.0607088432167779,17.2746794334663
-0.0621845574423175,17.2750655115286
-0.063182527579,17.2754828158238
-0.0637152230676093,17.2759366264046
-0.0637917173144024,17.2764336050983
-0.0634157005283797,17.2769823254597
-0.0625808810529349,17.2775952380515
-0.0612665338265543,17.2782889274797
-0.0594294572880509,17.2790875451211
-0.056981245937574,17.2800311236887
-0.0537126321118723,17.2812023982116
-0.0496189017598404,17.2826173959207
-0.0456383755166974,17.2839833745537
-0.0418284755640542,17.2853075316407
-0.0382183779844015,17.2865927845942
-0.0348231430576519,17.287840278081
-0.0316499204354355,17.2890502604
-0.028700644824612,17.2902225426095
-0.025973426468265,17.2913567403248
-0.0234634235296448,17.2924523995259
-0.0211634939804698,17.2935090579896
-0.0190647416266598,17.294526269016
-0.0171569981150388,17.2955036016701
-0.0154292536891118,17.2964406253452
-0.0138449379553604,17.2973517608974
-0.0123183697551852,17.2982860650958
-0.0108544522326141,17.2992448372629
-0.00945718339271504,17.3002300864344
-0.00813038587765226,17.3012441613893
-0.00687765244094939,17.3022898373845
-0.00570229530031103,17.3033704251144
-0.00460729332728445,17.3044899164905
-0.00359523719069375,17.3056531839805
-0.00266827222512928,17.3068662603079
-0.00182803257033344,17.3081367430529
-0.00107543751588654,17.3094744017368
-0.000410876983471725,17.3108921304132
0.000165946831058762,17.3124075287765
0.000651036437549831,17.314026105993
0.00103103078383806,17.3156862029289
0.00132293924684353,17.3174061756645
0.00154153628575377,17.3192057421927
0.00170058632265172,17.3211109184
0.00181320199898379,17.3231579033369
0.00189235586743837,17.325400998634
0.00195176413385349,17.3279309556389
0.00200806046068791,17.3309292071717
0.00208402625066987,17.3346648071952
0.00218390821607149,17.3385422010688
0.00231954744514966,17.3427777907226
0.00249061143573263,17.3473783296809
0.00269113484122716,17.3523120444982
0.00289926518240173,17.3571871729955
0.00310587959246999,17.3619063202734
0.00328677429687051,17.3659639848556
0.00345895429043947,17.3697641662771
0.00362980643960855,17.3734628565953
0.00380364328861522,17.37713861821
0.00398375623925442,17.3808424466466
0.00417307584909078,17.384612998765
0.0043744643495804,17.3884826436436
0.00459092813248232,17.3924811590551
0.00482577131145628,17.3966377071079
0.00508275073995406,17.4009822159827
0.00536627838205636,17.405546539304
0.00568175539999041,17.4103657686202
0.00603613688804169,17.4154796354027
0.00642067835952564,17.4206926243372
0.00682355601653997,17.4257997305032
0.00725127255882912,17.4308476024956
0.00770594620135009,17.4358150231634
0.00819282020375136,17.4407107534752
0.0087174906390154,17.4455387151744
0.00928640313153044,17.450303281296
0.00990658702761936,17.4550062090095
0.0105857535948632,17.4596473750467
0.0113492353668515,17.4643234253218
0.0122113974386363,17.4690260637083
0.0131941571505714,17.4737714663646
0.0143279704495149,17.4785907815606
0.0156628413021487,17.4835586226246
0.0173019517868915,17.488873271342
0.0196036520171962,17.4953319074985
0.0212595607969722,17.4995206055464
0.0229924201427603,17.5037093035943
0.0244853833136252,17.5073309620028
0.0257381104271589,17.5105548326564
0.0267847628232659,17.5136000573721
0.0276042934907395,17.5165440166768
0.0281577438079395,17.5193664812635
0.0284429326817743,17.5221881834327
0.0284281481167661,17.5251667217406
0.0279987916026593,17.528645994419
0.0272095504886746,17.5319612779001
0.026109287179873,17.5352765613813
0.0250208314236805,17.5380070409683
0.0239509811805603,17.5404361422639
0.0228830700047483,17.5427226378277
0.0218154606220256,17.544932421454
0.0207508809447602,17.5471000967952
0.0196929141582648,17.5492476297603
0.0186451556038328,17.5513906263287
0.017610990794758,17.5535410527522
0.0165935363489733,17.5557086406896
0.0155956331485381,17.5579016952631
0.0146198505947857,17.5601276122147
0.0136684999866806,17.5623932194541
0.0127436449479547,17.5647050304404
0.0118471100116988,17.5670694448272
0.0109804936208379,17.5694929032649
0.0101451744063028,17.5719820404276
0.00934232180605518,17.5745438194649
0.00856792760480209,17.5772034352369
0.00780568663793485,17.5800397195439
0.00705938865140775,17.5830727388588
0.00633279359048266,17.586326619822
0.00562988315363188,17.589829246276
0.00495482733309908,17.5936129735993
0.00431192211503333,17.5977155628294
0.00370548483432663,17.6021815174208
0.00313968535135917,17.6070642832232
0.00261830652509894,17.6124301918739
0.00214447566049228,17.6183655129724
0.00172057136482968,17.6249866948602
0.00136109082964499,17.6321636251701
0.00106387286987161,17.6399310366493
0.000830446777722959,17.6486573366193
0.000698318437686141,17.65585219336
0.000573223282951153,17.6654438224214
0.000492301937773077,17.6750044375199
0.000442332864826821,17.6850044375199
0.00041990062978103,17.6950044375199
0.000419480577733119,17.7050044375199
0.000437727232337255,17.7150044375199
0.000473301761265258,17.7250044375199
0.000526170390368765,17.7348929550818
0.000592779376189658,17.7439940423821
0.000672552075684401,17.7523499534279
0.000765963624390965,17.7600255187786
0.000874113490208444,17.7670805580609
0.000998551679462114,17.7735695581079
0.0011412096125525,17.7795423002586
0.00130438332010156,17.7850443990182
0.00149074543578198,17.7901177424389
0.00170337604388979,17.7948008721474
0.0019458099654834,17.799129328017
0.00222210177408249,17.8031359682378
0.00253691179481202,17.8068512671848
0.00289561833297173,17.8103036098386
0.00330447025809419,17.8135196035978
0.00377079547559393,17.8165244239871
0.00430329783096588,17.8193422224623
0.00491249870500586,17.8219966587407
0.00560932563781935,17.8245047705026
0.00638451123074123,17.8268245490962
0.0072511064096089,17.8290000747158
0.00823046803022592,17.8310796276986
0.00936079642194562,17.8331244574841
0.0107283595675137,17.8352437822447
0.0127158413704155,17.8378740973169
0.0140885214980219,17.839496925517
0.0155395876818903,17.841119753717
0.0168604100454136,17.8425704113072
0.0180312252520986,17.8438863533396
0.0190735065513059,17.8451379382984
0.0199858298777933,17.8463716767799
0.0207512448293249,17.8476288606516
0.0213364074858177,17.8489614157428
0.0216762925602884,17.8504628061365
0.0215867981870867,17.8524240297889
0.0210004984928706,17.8542338114184
0.0200140379864746,17.8560435930479
0.0189314080745861,17.8575907485344
0.0177436080561979,17.8590838439817
0.0164513832167102,17.8605980408481
0.0150635854187207,17.8621732506542
0.0142503325055651,17.8630917523789
0.0134550350832769,17.8640102541036
0.0116999883552465,17.86619139543
0.00973814959446752,17.868954144093
0.00812340881965927,17.8715829786298
0.0067876930472551,17.8740953423652
0.00561659335185895,17.8766443246921
0.00463372998176975,17.8791236731426
0.00382971254177426,17.8814625452608
0.00316342331894843,17.8836805858134
0.00260268887675249,17.8858015439853
0.00212244693344161,17.8878528508368
0.001702207472694,17.8898703069111
0.00132333849203971,17.8919092925236
0.000963209567540799,17.8940853345842
0.00056124263957636,17.8968540941995
0.000343744531259141,17.8985339296064
0.000143448480937099,17.9002137650133
-2.53970623733736e-05,17.9017413229329
-0.000174622598228201,17.9031855720603
-0.000315658787036401,17.9046394188441
-0.0004574003595078,17.9061948582189
-0.000612033975099867,17.9080082136222
-0.000817691570294656,17.9106235555252
-0.00105338805123437,17.9139301154003
-0.00123830197180333,17.9167712266294
-0.0014068132568461,17.9195567851783
-0.00158904655932119,17.9227836425805
-0.00181323078183405,17.9270596350526
-0.0020866205361984,17.9327554153601
-0.00230977482497473,17.9380124763967
-0.00247443615641523,17.9427739958511
-0.00257162985203416,17.9470813752829
-0.00259123208948546,17.9509517443626
-0.0025267630380604,17.9544169657008
-0.00237496049505687,17.9575365870829
-0.00213323530778256,17.9603763512345
-0.00179681314560907,17.9630058768893
-0.00135287243851162,17.9655124032404
-0.000769052874671075,17.9680202959446
1.74361503714688e-05,17.9706902854042
0.00106922858575053,17.973634176634
0.00205958584045045,17.9760912124492
0.00296649781274581,17.9782205162366
0.00399474873811029,17.9805718467992
0.00499364318699119,17.9828064005559
0.00603169895760003,17.9850409543127
0.00700212435041346,17.9869986474189
0.00798774577092942,17.9888189508039
0.00903509613564837,17.99055466463
0.0101900755653732,17.9922447779996
0.0114888045056885,17.9939019122899
0.0129456918136164,17.9955091198005
0.0145914860070829,17.9970710966013
0.0164466206909586,17.9985815533073
0.018522269600214,18.000030164761
0.0208502109033719,18.0014231468746
0.0234566808728264,18.002761056435
0.0263722340049582,18.004045862754
0.0296295567632194,18.0052792767858
0.0332737534824749,18.0064660178485
0.0373540662354061,18.0076095978087
0.0419279747449731,18.0087135704789
0.0470625756071206,18.0097814490221
0.0528377858735041,18.0108169343867
0.0593484375609648,18.0118237513575
0.0667082081207668,18.0128057408226
0.0750550655872497,18.0137669745224
0.0845586074386494,18.014711867984
0.095431364227597,18.0156454116734
0.107944569968698,18.0165733927773
0.122453619030966,18.0175028366039
0.13944000896245,18.0184427221683
0.15958727738235,18.0194053362723
0.183169975019096,18.0203797278787
0.210516912778735,18.0213615858064
0.242385015924268,18.0223628149054
0.279830710704047,18.0234015957537
0.324605511453969,18.0245129298222
0.360004818425154,18.0253280920436
0.396664696056667,18.026143254265
0.429226578497257,18.0268681824222
0.457710796327106,18.0275294840315
0.482561099877867,18.0281593444654
0.503730462881459,18.0287816449605
0.520739011520269,18.0294191708675
0.532522888236458,18.030101183107
0.536758575636365,18.0308797487932
0.53017635696936,18.031683052349
0.511532794503624,18.0325160813336
0.479241468934718,18.0333941753995
0.43133238023585,18.0343279061154
0.382240679593906,18.0350935815153
0.325256099561861,18.0358592569153
0.285653098546768,18.0363465626358
0.244307994046549,18.0368338683563
0.207287050669631,18.0372627225185
0.174549972890024,18.0376444259659
0.145181284924353,18.037995750594
0.11853809268204,18.0383282037265
0.0941634450258445,18.0386504040658
0.071675257438304,18.0389702684791
0.0506590271621787,18.0392975132298
0.0304194481536176,18.0396502173591
0.00829647364966802,18.0401001517269
-0.000297110716565239,18.0403016604619
-0.0081154812792597,18.0405031691969
-0.0145400652797452,18.0406851686983
-0.0205565450713433,18.0408725817779
-0.0265738906702607,18.0410809340427
-0.0323559285032506,18.041306836468
-0.0377547850538247,18.0415483290078
-0.0426889298773535,18.0418047814422
-0.0471165090170018,18.0420764519219
-0.0510196167575544,18.0423642448229
-0.0543886413329366,18.0426695978011
-0.0572423406351127,18.042997245181
-0.0595277676092616,18.0433412255591
-0.0613115224283626,18.0437098770654
-0.0626086762352615,18.0441069786696
-0.0634329944620851,18.044537125956
-0.0637958905850561,18.0450060627952
-0.0637047060897412,18.0455210839429
-0.0631602843259477,18.0460918281808
-0.0621512290184744,18.0467324306751
-0.0606500369361403,18.0474615719363
-0.0586007033282187,18.0483078847285
-0.0558849966525839,18.0493219285759
-0.0521866071541739,18.0506242696372
-0.0481276345341673,18.0520190122892
-0.0442055948911302,18.0533690026098
-0.0404672562846784,18.0546785458023
-0.0369354804376036,18.055949752714
-0.0336219440497732,18.0571833634163
-0.030531650175975,18.0583794262283
-0.0276649941417443,18.0595376598798
-0.0250189077170921,18.0606576440669
-0.0225876288615627,18.0617389171942
-0.0203633065222129,18.0627810216283
-0.0183365202666327,18.0637835175274
-0.0164967426658069,18.0647459766144
-0.0148327519803847,18.0656679621557
-0.0132693475119004,18.0665875900496
-0.0117656307596418,18.0675307890175
-0.010326070580732,18.0684991687343
-0.008954606058631,18.0694948558668
-0.00765498002432887,18.0705203470918
-0.00643068682503259,18.0715786026145
-0.00528492084266445,18.0726731673215
-0.00422052293240609,18.0738083341221
-0.0032399247653319,18.0749893693495
-0.00234509069659108,18.0762228324425
-0.001537404918768,18.0775170443476
-0.000817576017353738,18.0788828013582
-0.000185761395893056,18.0803345171115
0.000358635839715171,18.0818921656833
0.000802779774002631,18.083524122419
0.00114843700209797,18.0852043369987
0.00141160275779209,18.0869511365265
0.00160664323184272,18.0887862569701
0.00174703346179488,18.0907388732246
0.00184576305971676,18.0928506136848
0.00191594137238718,18.0951861382433
0.00197197209873762,18.0978595471956
0.00203298172029183,18.101123865184
0.00211514826959957,18.1048668525958
0.00222810298829777,18.1089003336297
0.00237510002865067,18.1132198386357
0.0025629615665405,18.1180891124114
0.00276608277737865,18.1229757016412
0.00297821643289392,18.1278908564314
0.00317196468241621,18.1322832860489
0.00334849233580842,18.1362210267061
0.0035195899511361,18.1399730062482
0.00369108950486117,18.1436564611791
0.00386681478755758,18.1473371964459
0.00404988224441754,18.1510607946888
0.00424317062194529,18.1548631462054
0.0044495719431248,18.1587753586757
0.00467218283308203,18.1628268249785
0.0049144494804353,18.1670468360026
0.00518033467415105,18.1714658797547
0.00547455404381174,18.1761167889064
0.00580298287817075,18.1810361774571
0.00617332603924236,18.186265661479
0.00656241966082788,18.1914161618667
0.00697453438807925,18.1965112068242
0.00741125977269459,18.2015276347104
0.00787695104201673,18.2064693097166
0.00837669425257118,18.2113399363653
0.00891649644412907,18.216144791687
0.00950299055432792,18.2208871037828
0.0101434458079425,18.2255679308269
0.010851081426423,18.2302193929169
0.0116481301279235,18.234904301223
0.0125509968031339,18.239620141046
0.0135841008381777,18.2443871353996
0.0147830772389529,18.2492477936169
0.0162108376682477,18.2543060301893
0.0180149897514337,18.2598646533956
0.0204358546262292,18.2663575332479
0.0219915280745643,18.2701893666602
0.0235851292147443,18.2740212000724
0.0249768284637333,18.277449766858
0.0261511142248691,18.2805866921036
0.0271214567495349,18.2836040998301
0.0278409281636245,18.2864888774793
0.0282959268160059,18.2892959647886
0.0284755724896237,18.2921534537643
0.0283288711405454,18.2952556654295
0.0276483253516699,18.2991855047275
0.0268103621741217,18.3021504667635
0.0257456867884879,18.3051154287996
0.0246719460082025,18.3077059791874
0.0236039582689579,18.3100769231615
0.0225360144293448,18.3123333837984
0.0214690245219144,18.314526507602
0.0204061965749068,18.3166856242254
0.0193511648129631,18.3188301920034
0.0183074681463288,18.3209744247641
0.0172784082472846,18.323129445088
0.0162670114513515,18.3253044518288
0.0152760293279988,18.3275074086839
0.0143079468338158,18.3297454931406
0.0133649925509019,18.3320254091868
0.0124491524281489,18.334353611155
0.0115621765987636,18.3367364949222
0.0107055890596352,18.339180554436
0.00988070210230762,18.3416925086464
0.00908861712217273,18.3442794633726
0.00831779547920109,18.3469946216958
0.00756035890390742,18.3498926114668
0.00682006488895795,18.3529948312355
0.00610075002716188,18.3563265549547
0.00540646074091209,18.3599170437025
0.00474141639006475,18.3638003003208
0.00410993469050949,18.3680161048509
0.00351630760292673,18.3726115670162
0.00296460805217864,18.3776437772936
0.0024584287350044,18.3831846465492
0.00200065093157908,18.3893290126099
0.00159557670091943,18.3961649952489
0.00125717348959876,18.4035239077862
0.00103442155144471,18.4097253826512
0.000868410849465182,18.4159268575162
0.000698434970112264,18.4247552968032
0.00057809783868678,18.4339054619227
0.000493145606006481,18.4437666621027
0.000442731708532447,18.4537666621027
0.000419995017366257,18.4637666621027
0.000419333009108919,18.4737666621027
0.000437358457233799,18.4837666621027
0.000472708003640726,18.4937666621027
0.000525392445034587,18.5036656253771
0.000591831110950646,18.5127766542749
0.000671432239477409,18.5211416441851
0.000764661287538818,18.5288254915388
0.000872611022443148,18.5358880879174
0.000996826201098685,18.542383983351
0.00113923349829164,18.5483630148544
0.0013021242032962,18.5538708464973
0.00148816589577827,18.558949410831
0.00170043309995489,18.5636372894365
0.00194245432115639,18.5679700579558
0.0022182768588432,18.5719806064384
0.00253255246426943,18.5756994374098
0.0028906491745688,18.5791549601595
0.00329880328361617,18.5823738021931
0.00376432688114027,18.5853811543619
0.00429590333853334,18.5882011774847
0.00490402644947533,18.5908575324585
0.00559991275495889,18.5933683075291
0.00637402207489414,18.5956901815068
0.00723932533497559,18.5978672070392
0.00821703932630259,18.599947586101
0.00934503058644248,18.6019922651149
0.010708451731084,18.6041092896405
0.0126793728132214,18.6067233733213
0.0140541397792923,18.6083516096356
0.0155088159795632,18.60997984595
0.0168336518827351,18.6114347566548
0.0180074895534698,18.6127527598346
0.0190525816577999,18.6140051781535
0.0199679259924648,18.6152388438344
0.0207368858423252,18.6164949992232
0.0213265626294749,18.6178251201481
0.0216730171429018,18.6193210580736
0.0215979982203163,18.6212636505733
0.021016367395201,18.6230937693731
0.0200236646712643,18.6249238881729
0.018940136308482,18.6264743422915
0.0177528576094815,18.6279676951806
0.0164612573461461,18.6294816062589
0.0150740330520398,18.6310562749154
0.0142607763507545,18.6319747110638
0.0134651684380882,18.6328931472122
0.0119381057377732,18.6347761642938
0.00995087825639757,18.6375291659714
0.0082964031403975,18.6401771023389
0.00693873026804604,18.6426872587994
0.00574958163697063,18.6452298316811
0.00474189494385776,18.6477271707498
0.00391863267927439,18.6500821863391
0.00323760063798108,18.6523136273703
0.00266558231939,18.6544449613431
0.00217678646234652,18.6565030315684
0.00175029909420413,18.6585222556403
0.00136747763142624,18.6605544253739
0.00100678065908199,18.6627030110177
0.000618714541975257,18.6653281148715
0.000390772625273503,18.6670538052512
0.000181475877246974,18.6687794956309
6.48546818624177e-06,18.6703398119057
-0.000145595573248924,18.6717926567408
-0.000287546588388303,18.6732377935634
-0.000428377425682414,18.67476378638
-0.000578935030836517,18.6765049607703
-0.000766575668870196,18.6788465622865
-0.00104125328153751,18.6826466349039
-0.00126240814522631,18.6860531517268
-0.00144999604348006,18.6891964793807
-0.00164827207282612,18.6927762092467
-0.00190531895925716,18.6978098999579
-0.0021633805690443,18.7033785229858
-0.00236864647893046,18.7084733275884
-0.00251293001688935,18.7130847048981
-0.0025865364993184,18.7172575481402
-0.0025798501784002,18.7209927177455
-0.00248782090668804,18.7243413323394
-0.00230770608682889,18.7273642346912
-0.00203658080946178,18.7301287627469
-0.00166757054859189,18.7327105841004
-0.00118352442704268,18.7352031519206
-0.00053628908232647,18.7377688325181
0.000323765297141892,18.7404963759238
0.00116169363359493,18.7427672503433
0.00208153394663979,18.7450381247629
0.00298570331738466,18.7471594570227
0.00402163437286493,18.7495276275824
0.00505098112188456,18.7518259165481
0.0061236068690899,18.7541242055138
0.00708094792752085,18.7560412942354
0.00807643807495438,18.7578641115304
0.00912677460708001,18.7595875455206
0.0102985819390758,18.7612835104473
0.0116059568499417,18.7629317421791
0.0130850080376554,18.7645429261912
0.0147436244885173,18.7660964497568
0.0166141990867074,18.7675996210194
0.0187164940840989,18.7690475973565
0.0210658373073058,18.7704348145633
0.0236956428365916,18.7717670555575
0.0266374220412677,18.7730466322076
0.0299275771407041,18.7742764291815
0.0336072424950186,18.7754593153629
0.0377274036185685,18.7765992795231
0.0423465541786091,18.7776999533893
0.0475331361064586,18.7787649296466
0.0533679114190698,18.7797978290965
0.0599468878620245,18.7808023424582
0.0673858163998815,18.7817823680289
0.0758250749026078,18.7827420037153
0.0854376106028179,18.7836857193702
0.0964400460479911,18.7846185379755
0.109109746764211,18.785546340122
0.123811021400549,18.7864762878181
0.141039141718122,18.7874175812916
0.161500608664911,18.788382893773
0.185385201942763,18.7893575544097
0.213091561106955,18.7903405574465
0.245396132061592,18.7913441868123
0.283392886542308,18.7923874750441
0.328937777493863,18.7935080470828
0.363956857036289,18.7943098817159
0.400079246776779,18.795111716349
0.432192452681395,18.7958282812896
0.460308818197753,18.7964852468764
0.484807379356264,18.7971133747818
0.505597407290363,18.7977361179167
0.522153200434302,18.7983765205381
0.533331599763601,18.799065070192
0.536597637528503,18.7998575863273
0.528789450196664,18.8006631780852
0.508774255041093,18.801500360873
0.474915303668866,18.8023839709443
0.425217333808034,18.8033240878372
0.376616365355511,18.8040668649598
0.320711988258179,18.8048096420824
0.271498654321387,18.8054081754775
0.230433838331797,18.8058878559116
0.194994674536564,18.8062983393052
0.163563620784664,18.8066674815391
0.135243383189212,18.8070108501866
0.109468550140624,18.8073386738358
0.0858202408341415,18.8076590863961
0.0639192796045935,18.8079802893651
0.0432961957357715,18.8083137746907
0.0229627658804997,18.8086857904177
0.00804254504932419,18.8089988892061
-0.0002428968150494,18.8091933686909
-0.00780603140419791,18.8093878481758
-0.0142605228561599,18.8095699309043
-0.0202684289167857,18.8097562126064
-0.0262915981965268,18.8099636490181
-0.0320888349028002,18.8101887740388
-0.0375081583796998,18.8104295479867
-0.0424655893610919,18.8106852890821
-0.0469178107495531,18.8109562200435
-0.0508460240423282,18.8112432178124
-0.0542406405181176,18.8115476959308
-0.057138863578138,18.811876811849
-0.059445116477265,18.8122198876309
-0.0612488835654469,18.8125874711055
-0.0625654635653241,18.812983338303
-0.0634086859673402,18.8134120449278
-0.0637900907742176,18.8138792816374
-0.0637172227688631,18.8143922701142
-0.0631913079597773,18.8149604881916
-0.0622014865543598,18.8155979425671
-0.0607210754853004,18.8163230284415
-0.0586956456080482,18.8171638258284
-0.0560108091837204,18.8181695367281
-0.0523654738892669,18.8194553500039
-0.0483020499308,18.8208522858884
-0.0443728178308183,18.8222041246292
-0.040625905302257,18.8235153734915
-0.0370848391974216,18.8247882282764
-0.0337616625343874,18.826023471997
-0.0306616163433685,18.8272211740849
-0.0277852689943513,18.828381062884
-0.0251296854488298,18.8295027216926
-0.0226892076127582,18.8305856895328
-0.0204560641187541,18.8316295081656
-0.0184208928687684,18.8326337370081
-0.0165732056942076,18.8335979476269
-0.0149018031593231,18.8345217042331
-0.0133359366931156,18.8354403344965
-0.0118295342422221,18.8363824872021
-0.0103871143354,18.8373497357395
-0.00901262325344722,18.8383441926197
-0.00770981345362492,18.8393683367086
-0.00648219108371426,18.8404251058968
-0.00533296460011693,18.8415180167518
-0.00426499129084336,18.8426513256878
-0.0032807217143578,18.8438302511293
-0.00238214168972345,18.8450612881964
-0.00157066707513959,18.8463526690785
-0.000847028205866502,18.8477150633279
-0.000211411161913743,18.8491626955707
0.000336745338287625,18.8507152415599
0.000785566468280841,18.8523455240178
0.00113514343478161,18.8540232621027
0.00140158121179542,18.855766766114
0.00159929186668287,18.8575975188162
0.00174178163548598,18.859544293111
0.00184205072899992,18.8616480170958
0.00191318556704417,18.8639719870981
0.00196949181200878,18.8666271236723
0.00202972997039462,18.869856018828
0.00211100144003539,18.8735958123306
0.00222225076155743,18.8776082974348
0.00236777589457961,18.8819149780867
0.00255327463936549,18.8867434838938
0.0027559991632391,18.8916335555871
0.00296752705497699,18.8965410804184
0.00316270758664515,18.9009702891499
0.00333974359972634,18.9049225906275
0.00351094654453444,18.9086804634121
0.00368232343695906,18.9123655549074
0.00385775622115283,18.9160452236893
0.00404038235442223,18.9197657394532
0.00423308566195177,18.9235633424124
0.00443875223527088,18.9274692923267
0.00466046482536505,18.9315130258851
0.00490164818246266,18.9357238054664
0.00516623417370803,18.9401320309647
0.00545889243700523,18.9447703852834
0.00578542619536963,18.9496752559946
0.00615342607681811,18.9548879840752
0.00654186306491885,18.9600476082516
0.00695263366190347,18.9651445575959
0.0073880326688026,18.9701654925936
0.00785210049282872,18.9751108384994
0.00834994723843088,18.9799850299282
0.00888752270087445,18.9847931780949
0.00947143315763934,18.9895386787319
0.0101089128093003,18.9942226873172
0.0108122856352387,18.9988721993616
0.0116043897042115,19.0035558529068
0.0125012290494851,19.0082696622549
0.0135268443663435,19.0130332705733
0.0147160318006956,19.0178873138801
0.0161295369991759,19.0229307712692
0.0179069297556226,19.0284475321325
0.0203268805158967,19.0349768435925
0.0218910540843901,19.0388413842501
0.0234979038060276,19.0427059249078
0.0249035554342258,19.0461589895311
0.0260896106970292,19.0493074203716
0.02707175660397,19.0523278810114
0.0278065952767774,19.0552206089253
0.0282769141823267,19.0580289426003
0.0284732844594612,19.0608793741796
0.0283482256909402,19.0639589765974
0.0277145471174708,19.0677976388371
0.0268847325410973,19.0708135466301
0.0258161691343129,19.0738294544231
0.024740643462537,19.0764427190818
0.0236724582399246,19.078823958127
0.022604521076879,19.0810858978423
0.0215373820295743,19.0832820631588
0.0204741773508366,19.0854427072251
0.0194185360944468,19.087587742771
0.0183740094611761,19.0897316401074
0.0173439160719302,19.0918856782279
0.0163313000246699,19.0940591554108
0.0153389304480879,19.0962600989454
0.0143693088939683,19.0984957267369
0.0134246800365849,19.1007727656362
0.0125070453230949,19.1030976795072
0.0116181694195824,19.1054768638223
0.0107595906155457,19.1079168017201
0.009932634750648,19.1104241928814
0.00913841620225573,19.1130061148394
0.00836686518446297,19.1157101890551
0.00760845474694053,19.1185958607636
0.00686694883241216,19.1216842607287
0.00614616927899668,19.1250004313592
0.00545014993040391,19.1285733570768
0.00478310096334191,19.1324367085077
0.004149336792926,19.1366298563177
0.00355315604817099,19.1411993760433
0.00299865250992854,19.1462016071754
0.00248945861515375,19.1517072972501
0.00202850445118981,19.1578095064328
0.00161899386862849,19.1646158187008
0.00127658680863544,19.1719392262991
0.00105931259592101,19.1778535615644
0.000893422846309183,19.1837678968297
0.000720162591678686,19.1923205159494
0.000596737502501576,19.2011367559933
0.000505453910719335,19.2109041578052
0.000449373467334445,19.2209041578052
0.000422239045421267,19.2309041578052
0.000417996751192644,19.2409041578052
0.000432883622138174,19.2509041578052
0.00046518709316351,19.2609041578052
0.000515180813565649,19.2709041578052
0.000579305951644684,19.2801504926845
0.000656603704852199,19.2886405161152
0.000747394917732258,19.2964384368095
0.00085268025400021,19.3036050889465
0.000973933123388332,19.3101959041211
0.00111301599802788,19.3162614969769
0.00127215646715539,19.3218482230726
0.00145395473184727,19.3269986354465
0.00166141158897653,19.3317518728059
0.00189797214029061,19.3361440098959
0.00216758790904577,19.3402083818224
0.00247479799252471,19.343975885376
0.00282483596593293,19.3474752721152
0.00322377380704185,19.3507334555604
0.0036787176532742,19.3537758492809
0.00419808533854083,19.3566267591711
0.00479201450946868,19.3593098861288
0.00547299483729996,19.3618490338192
0.00623264807269343,19.3642006867015
0.00708076846786024,19.3663996387254
0.00803676431041392,19.3684930361458
0.00913442189797953,19.37053825185
0.0104458255018957,19.3726297741784
0.0122317964710501,19.3750684696832
0.0136168696096737,19.3767500769314
0.0150994226093036,19.3784316841797
0.0164777885349502,19.379947155912
0.0176910960907722,19.3812952983789
0.0187717402165027,19.3825607563223
0.0197247097732005,19.3837955493293
0.0205374065729049,19.3850409142924
0.0211821747290832,19.3863435777704
0.0216068896617397,19.3877784829915
0.0216874195987306,19.3895339340439
0.0212306011113484,19.3914722078718
0.0202819908833474,19.3934104816998
0.0192229538971008,19.3949985768451
0.0180628292366865,19.396495637924
0.0167966974549511,19.3980000034969
0.0154326691800803,19.3995560555827
0.0144978008105739,19.4006113468837
0.013577346353659,19.4016666381846
0.012763989336198,19.402641749711
0.010679525473744,19.4053786746448
0.00888354222265819,19.4080978950468
0.00742793273551787,19.4106460754667
0.00617911688958112,19.4131725500304
0.00509021051315143,19.4157268065981
0.00420400916209803,19.4181331486252
0.00347476736656499,19.4204076847494
0.00286581344188831,19.4225731572589
0.00234891217761478,19.4246548723822
0.00190163639514895,19.4266837064595
0.00150489156954224,19.428703005565
0.00113917503418069,19.4307897365289
0.000772719136984095,19.4331475966475
0.000502367356595029,19.4350951245068
0.000257268035197654,19.4370426523661
6.65481172539101e-05,19.4386962417271
-9.21293424424701e-05,19.440175910423
-0.000236633745035764,19.4416139660804
-0.000376836397817736,19.443099047001
-0.000522165179031127,19.4447394398782
-0.000690109866985658,19.4467733533963
-0.000977339859237793,19.4506254903691
-0.00123385701917699,19.4544995520729
-0.00144834047147766,19.4580716829444
-0.00166541796009106,19.4620020439297
-0.00196147776447177,19.4678694242647
-0.00221052942292111,19.4733772000139
-0.0024037945841624,19.4783707517478
-0.00253422147302217,19.4828872716017
-0.00259186269525136,19.4869708431515
-0.00256782633040514,19.4906211479933
-0.00245783416867379,19.493895871978
-0.00225920111663581,19.4968603621352
-0.00196874552990601,19.4995798233039
-0.00157831137544002,19.5021325035552
-0.00106702077365039,19.5046203783441
-0.000377703221237729,19.5072221965994
0.000534519948412215,19.5100000207428
0.00137066264819554,19.5122043560672
0.00227673520474548,19.5144086913917
0.00319386352312521,19.5165453973348
0.00430274695336833,19.5190665672192
0.00523944313745172,19.5211424536388
0.00621571360122252,19.5232183400583
0.00717120593958783,19.5251166248154
0.00817316170221144,19.5269335438544
0.00923668547983677,19.5286585367331
0.0104201439337427,19.5303493021312
0.0117418683800967,19.531992795678
0.0132385903127936,19.5336000112004
0.0149138244630647,19.5351463374374
0.0168037472231246,19.5366429546871
0.0189282998191519,19.5380849867083
0.0213094506897483,19.5394704432939
0.0239671904336153,19.5407970745559
0.0269399061722388,19.5420712957822
0.0302648310560111,19.5432961424867
0.0339852119027031,19.5444749331936
0.0381506447650232,19.5456109205593
0.0428211746426722,19.5467079620242
0.0480663621648834,19.5477696594515
0.0539683736853926,19.548799649513
0.0606249633002373,19.5498016400224
0.0681537541458788,19.5507795078648
0.0766979893067044,19.551737397622
0.0864342813835156,19.5526798242088
0.0975843515827846,19.5536118861947
0.110432438349523,19.5545395511233
0.125353223683382,19.5554701424303
0.142858018817543,19.5564131171714
0.16368037943685,19.5573816068877
0.187909599031555,19.5583566477454
0.216026830169087,19.5593410437751
0.24883154611722,19.5603475318401
0.287463290871381,19.5613961925895
0.333664108207375,19.5625222526723
0.368278382315471,19.563310266747
0.403828910192083,19.5640982808217
0.435457793530096,19.5648061503975
0.463168582740932,19.5654586302133
0.487273645066632,19.5660850823481
0.50763465556682,19.5667085727944
0.523672893688085,19.5673525167798
0.53414922691726,19.5680489492615
0.53633176866153,19.5688418604331
0.527348548942895,19.5696498430519
0.506014624906241,19.5704911223868
0.470646937466486,19.5713800707172
0.419229640312551,19.5723263245616
0.371142462670756,19.5730475428345
0.316290592944581,19.5737687611074
0.267948839417688,19.5743538330652
0.227432375474678,19.5748263129826
0.192359820394505,19.575232694948
0.161203180409782,19.575599312068
0.133103493374873,19.5759411093113
0.107512124685748,19.5762680560697
0.0840169240760122,19.5765882135796
0.0622374108115562,19.5769098931839
0.0416868889408004,19.5772451143132
0.0212803511890693,19.5776227913397
0.00408499946568645,19.5779932839923
-0.00359038738008047,19.578180865635
-0.0106059496750316,19.5783684472777
-0.0166870403900017,19.5785466457272
-0.0227357587486308,19.5787420225933
-0.0286912287335519,19.5789570233155
-0.0343482688242967,19.5791886779914
-0.0395868312710131,19.5794355707041
-0.0443420577664448,19.5796974300181
-0.0485821021853831,19.579974766291
-0.0522951768133092,19.5802686838557
-0.055679545861218,19.58060417055
-0.0582646822957552,19.5809354800214
-0.0603375233633249,19.581289373892
-0.0619152882198567,19.5816694659589
-0.0630124155358166,19.5820798168839
-0.0636418743175866,19.5825254649711
-0.0638135985201943,19.5830127458116
-0.0635326036058317,19.5835497745458
-0.0627952373953819,19.5841479940955
-0.0615841227198095,19.5848230673893
-0.0598619908083563,19.5855970755357
-0.0575531980080596,19.5865055547293
-0.0544871871546847,19.5876175558963
-0.0503790399073455,19.5890444133226
-0.0463716405962638,19.5904187279299
-0.0425269219665996,19.5917503771407
-0.0388779484919922,19.5930427599685
-0.0354417593729973,19.5942972636509
-0.0322267082328971,19.5955142574948
-0.029235571089862,19.5966936096026
-0.0264670949840612,19.5978349590266
-0.0239169349561372,19.5989378580193
-0.0215783345864456,19.6000018428043
-0.0194426870402429,19.6010264629246
-0.0175000274046792,19.602011285094
-0.0157394726145568,19.6029558802572
-0.0141446225372868,19.6038627226759
-0.0126065077503572,19.6047925401576
-0.0111302610118601,19.6057464738329
-0.00971990804271777,19.6067264757029
-0.00837930993831614,19.6077348229152
-0.00711210735668163,19.6087742014359
-0.00592167031084424,19.6098478093223
-0.00481104575097976,19.6109594943743
-0.00378290310693352,19.6121139415153
-0.00283947763062716,19.613316934329
-0.001982510918957,19.6145757310254
-0.0012130651653939,19.6158996243044
-0.000531624448356678,19.6173008116829
6.19612353449993e-05,19.6187958230238
0.000568661737491149,19.6204080296054
0.00096689798476922,19.6220587579602
0.00127414302533136,19.623766169431
0.00150539532243679,19.6255490778262
0.0016745856478294,19.6274321042209
0.00179491551817391,19.629449105056
0.00187933337468834,19.6316500640552
0.00194131393652087,19.6341165404119
0.00199663455206475,19.6370048013646
0.00207012904605352,19.6407296048141
0.00216439093675075,19.6445448032624
0.00229495457357307,19.6487538775998
0.00245932291169822,19.653262970144
0.00265901580208966,19.6582330335898
0.00286580989098346,19.6631033749639
0.00307986944583543,19.6680087759951
0.00326302508272609,19.6721249710204
0.00343585276474485,19.6759479050572
0.00360660539596116,19.6796547568367
0.0037798400586331,19.6833302524291
0.00395893367473808,19.6870278353453
0.00414684645124418,19.6907873937773
0.00434643785947446,19.6946419124548
0.00456068450758936,19.6986213577119
0.00479284203201568,19.7027548880432
0.00504659607710675,19.7070722576377
0.00532625498403672,19.7116049952196
0.00563705934459572,19.716387664729
0.00598571083458998,19.7214593106581
0.00636855638849783,19.7266948898647
0.00676805100070794,19.7318057025328
0.00719253226857461,19.7368652862337
0.00764325946446522,19.7418424027121
0.00812552739247537,19.7467476665657
0.0086447712600768,19.7515843687836
0.00920736470335711,19.7563572845392
0.00982024934446712,19.7610684396554
0.0104910405309185,19.7657179348671
0.0112423756630359,19.7703887707241
0.0120903184458967,19.7750873265611
0.0130555390030241,19.7798257705075
0.0141669898085988,19.7846323104559
0.0154709645131282,19.7895731890315
0.0170593908687471,19.7948202310719
0.0192188509347321,19.8010021958854
0.0209393396795587,19.8054189109018
0.0227581152521043,19.8098356259181
0.0242965246826868,19.8135534954275
0.0255794649289209,19.8168173367471
0.0266538742886421,19.8198776007296
0.0275101570581959,19.822847719005
0.0280990063288302,19.8256799738176
0.028421096065837,19.8284940356674
0.0284501635251379,19.8314389380339
0.028090935788862,19.8348108521051
0.027313489487084,19.8382833890494
0.0264371959025317,19.841058103299
0.0253796305078814,19.8438328175486
0.0243108594920475,19.8463271702201
0.0232432180535812,19.8486510842802
0.0221753075982858,19.8508819103436
0.0211093140679198,19.8530609138821
0.0200487033096747,19.8552132768805
0.0189971069700465,19.8573563415915
0.017957992186563,19.8595031018099
0.01693456828391,19.8616639319035
0.0159297690735814,19.8638475492512
0.0149462538297661,19.8660616124297
0.0139864199234666,19.8683131083785
0.0130524131992702,19.8706086327431
0.0121461372501406,19.8729546051872
0.0112692665707159,19.8753574334383
0.0104232521300564,19.8778236730724
0.00960933319946838,19.8803601601423
0.00882854404568905,19.8829741572201
0.00806176849216031,19.8857486535367
0.00730967468755441,19.8887126207842
0.00657598612523841,19.8918889034536
0.00586461272214462,19.895304040278
0.00517966654670872,19.8989887801129
0.00452540901005783,19.9029789379328
0.00390616663248356,19.907316539256
0.00332618269398499,19.9120516707236
0.00278940074790049,19.9172457024353
0.00229919195770037,19.9229771761216
0.00185818093097527,19.9293510246909
0.0014760518745596,19.9363499592867
0.00115836584939509,19.9439039781355
0.000906360029235254,19.9521290139147
0.000718885794168011,19.9612381713853
0.000602253201518028,19.9695413446992
0.000509074027821959,19.9793074435235
0.000451429791911188,19.9893074435235
0.000433238875262422,19.9946537217618
0.000422300817070429,20
