ecg,time
0.000606405142925814,15.0071406124761
0.000685888582744802,15.0148168366733
0.000776159329874602,15.0219088267336
0.000878651527126891,15.0284620902269
0.000995001001473899,15.034518860532
0.00112706584514151,15.0401183788068
0.00127695399485232,15.0452971235548
0.00144705488396774,15.0500890159013
0.00164007703413597,15.0545256169505
0.00185909248942313,15.0586363161858
0.00210759067265877,15.0624485025497
0.00238954193265286,15.0659877252953
0.00270947872778416,15.0692778622929
0.00307259642923713,15.0723412960475
0.00348488439685354,15.0751990934059
0.0039532997612099,15.0778712073067
0.00448600498044396,15.080376718024
0.00509270561011169,15.0827341317133
0.00578515008393401,15.0849617847408
0.00655281189358844,15.087017097272
0.00740148271361166,15.0889236096137
0.00834432848428715,15.0907150931751
0.00940137712047497,15.0924263690745
0.0106064194178439,15.094099411907
0.01204397268853,15.0958186137809
0.0139973336099504,15.0978259679407
0.0156875773538319,15.0993615943818
0.0175178643664719,15.1008972208229
0.019208052544109,15.1022578179113
0.0206900422805463,15.1034523692883
0.0220178614323263,15.1045686559771
0.0232040017272051,15.1056568263511
0.0242378832765396,15.1067551092504
0.0250916987565088,15.107906237432
0.0257117550922741,15.10917848934
0.0259709653535927,15.1107430901145
0.025608367115742,15.1125318408134
0.0246474167992522,15.1143205915122
0.0235282373321988,15.1157783691951
0.0222707511094115,15.1171652580698
0.0208697996475369,15.1185761576482
0.0193335616959062,15.1200548583462
0.0176689102457291,15.1216393395222
0.0159035070768563,15.1233775471978
0.0145432446416789,15.1248167670351
0.0120338761212185,15.1277828118088
0.0099711811464585,15.1306359926515
0.00835205154663254,15.1332553984802
0.00703172134743975,15.135741172821
0.00588162166458711,15.1382630245696
0.00489231392024604,15.1408005901486
0.00404291166639664,15.1433567909666
0.00327706711305576,15.1460794211875
0.00259091888067672,15.1489953016872
0.00216162510087901,15.1511383785448
0.00178660957790381,15.1532814554025
0.00149304704532202,15.155186626229
0.00124858712922896,15.1569664769157
0.00102972871912695,15.1587456673982
0.000821745599505084,15.1606385206355
0.000609028963847045,15.1628312328845
0.000351611210508105,15.1659446443512
8.27372669943622e-05,15.1699726920616
-9.66630235307546e-05,15.1733425751831
-0.000237871523401118,15.1766094360357
-0.000365564228741836,15.1803414832474
-0.00048264817950175,15.1850915854514
-0.000555642499322199,15.1903398704313
-0.000565551863896944,15.1949946988603
-0.000518745025518762,15.1992365016141
-0.000415115119787236,15.2030857501823
-0.00025238262998707,15.2065863855247
-2.65052151019174e-05,15.2097869588167
0.000268514657730669,15.2127389116166
0.000641380599733189,15.2154955420846
0.00110568520765225,15.2181164321671
0.00168349512267245,15.2206703557115
0.00241195014340583,15.2232418133823
0.00336698206451662,15.2259722357171
0.00466362998660533,15.2289989513397
0.00625734176199233,15.2320678650477
0.00780544781702465,15.2345794469052
0.0092635908505297,15.2366166263527
0.0107503960117454,15.2384221533422
0.0123267190917695,15.2400862557237
0.0140557377718817,15.2416685729702
0.0159449095038959,15.2431625475102
0.0180499100483104,15.2445979006366
0.0203931986880003,15.2459729578538
0.0230179410544411,15.2472970688696
0.0259570641800059,15.2485710139412
0.0292530746509475,15.2497984650146
0.032953257919243,15.2509826657064
0.0371079604877591,15.2521258543113
0.0417797302246756,15.2532316528066
0.0470413203065243,15.2543036018445
0.0529777607631948,15.2553451760898
0.0596906549700198,15.2563600617366
0.067302561511442,15.2573521873656
0.075966690332911,15.2583261986641
0.0858732267788438,15.2592871353102
0.0972653537479144,15.2602409088066
0.11046282938803,15.2611947683371
0.125900949992115,15.2621580537737
0.144206070401701,15.2631438662578
0.165722751378084,15.2641452326794
0.190693484107893,15.2651541948548
0.219829743223198,15.2661836451327
0.254128304392744,15.2672528569098
0.295200787831984,15.2683966411743
0.329899559984834,15.2692884316969
0.36611974015349,15.2701802222195
0.398385100624165,15.2709687543214
0.426626183275999,15.2716815806234
0.451281744372788,15.2723528873275
0.472355313334769,15.2730070905921
0.489476481374501,15.2736654945434
0.501826844608825,15.2743519008513
0.507795606052278,15.2751006673998
0.504429834857632,15.2759206714681
0.48983702303921,15.2767581329062
0.462718359816376,15.277627900151
0.421450077049315,15.278540728934
0.364254281445995,15.2795059949655
0.322453211413859,15.2801047730006
0.276702806452561,15.2807035510358
0.235663469952964,15.2812123897639
0.200054695896155,15.2816451532252
0.168514196391257,15.2820303729197
0.140120612001882,15.2823856907237
0.114295661859902,15.2827223825973
0.0906271926846783,15.2830489035086
0.0687659725201036,15.2833730468763
0.0483299453075951,15.283704333842
0.0286826516982394,15.2840601671166
0.00751728782523511,15.2845056550584
-0.00135572850215373,15.2847205877458
-0.00939675225272451,15.2849355204332
-0.0157868024785396,15.2851237760062
-0.021702373349281,15.2853155661003
-0.0276121012614235,15.2855286220333
-0.0332857661566077,15.2857595205621
-0.0385785988649754,15.2860062550612
-0.0434111278669025,15.2862681837244
-0.0477427506622934,15.2865455720903
-0.051548867549119,15.286839342343
-0.0548086637299537,15.2871498785366
-0.0575287945194339,15.2874782570664
-0.0597401913768207,15.2878286471714
-0.0614563333660782,15.2882041074797
-0.062691226391998,15.2886083761879
-0.063458046675653,15.2890460711863
-0.0637676330282849,15.2895229533661
-0.0636268112644176,15.290046321629
-0.0630358682151567,15.2906259156758
-0.0619831200163379,15.2912757534703
-0.0604413589957667,15.2920143637054
-0.0583559037947995,15.2928699846841
-0.055612726524742,15.2938920024167
-0.0519132246032976,15.2951956628592
-0.0478920472302526,15.2965813384146
-0.0440157671122837,15.2979213276731
-0.0403284299630087,15.2992199673368
-0.0368510366125388,15.3004795169115
-0.0335938801026446,15.3017008375129
-0.0305608019284796,15.3028840786311
-0.0277511878812276,15.3040290447774
-0.0251611005867139,15.3051353880953
-0.0227840528911846,15.3062027067946
-0.0206116163389859,15.3072305902581
-0.0186339399431435,15.3082186322075
-0.0168402064394279,15.3091664234816
-0.0152190345532665,15.3100735307366
-0.013657026605537,15.3110018110951
-0.0121562286654215,15.3119540785242
-0.0107206840207591,15.3129322515707
-0.00935424352466583,15.3139385832315
-0.00806053442092685,15.3149757284875
-0.00684290879878063,15.3160468457094
-0.00570438950115875,15.3171557314381
-0.00464761325780236,15.3183070035291
-0.00367477056181154,15.3195063562571
-0.00278754115671448,15.3207609261694
-0.00198702283137608,15.3220798353594
-0.00127364907480959,15.3234750330938
-0.000647086887171621,15.3249626702806
-0.000106096694610881,15.3265655015697
0.000327826062994903,15.3282130516887
0.000669848061473398,15.3299158341193
0.000935433087196669,15.3316925502111
0.0011389606688092,15.3335673032783
0.00129417248558332,15.3355730939635
0.00141473042404798,15.3377583483984
0.00151517023056985,15.3402013833679
0.00161312169383033,15.3430499650757
0.00173759232605417,15.3466824198273
0.00188503348310193,15.3504804965622
0.0020615710187968,15.3544157731573
0.00225488885567677,15.3582789748537
0.00246172330854696,15.3621376321411
0.0026794289954319,15.3660419096171
0.00290665749881497,15.3700311174363
0.00314347114914441,15.3741393628671
0.00339119447285138,15.378398701798
0.0036522032505475,15.3828410943273
0.00392975540418913,15.3874999462455
0.00422795001666219,15.3924115781211
0.00455189814953884,15.3976165148817
0.00490532760099397,15.4031160582174
0.00526172632462062,15.4084434565055
0.00563212846003213,15.4137304821207
0.00601553770072263,15.4189165140059
0.00641662116042564,15.4240208332405
0.00683921353763146,15.4290462364491
0.00728800277159172,15.4340019375974
0.00776784219575216,15.4388936497639
0.00828396842667704,15.4437253818822
0.00884203171099795,15.4484988801485
0.00944822788348855,15.4532141690046
0.0101094245493429,15.4578700091371
0.0108404407234509,15.4625076397755
0.0116623342257152,15.4671785971596
0.0125921540956517,15.4718832829418
0.0136551847922534,15.4766438545663
0.0148890979730625,15.4815075989408
0.016361553968357,15.4865902926116
0.0182406040465713,15.4922408982826
0.0206614738711459,15.4986131834341
0.0222080888476193,15.502381046355
0.0237820260598648,15.5061489092759
0.025151830057495,15.5095322782142
0.0263068564612063,15.5126500183387
0.0272564816795048,15.5156660192401
0.0279467450384725,15.5185405491441
0.0283708180158069,15.5213526787089
0.0285141762709499,15.5242355982088
0.0283161500656163,15.5274049300637
0.0275029900566022,15.5316176069731
0.0266417672572946,15.534470246873
0.0255804092930559,15.5373228867728
0.0245052660637211,15.5398645423435
0.0234317576418112,15.5422170572628
0.0223572654416581,15.5444682384039
0.0212836236238714,15.5466634725131
0.0202142878304649,15.5488298301341
0.0191529665014195,15.5509857143925
0.0181032234029566,15.5531448140934
0.0170683683983466,15.5553180132429
0.0160514323427741,15.5575144466962
0.0150551691303518,15.5597421420053
0.0140820674852319,15.5620084381957
0.0131343598803292,15.5643202913391
0.0122140358659543,15.5666844977941
0.0113228524944144,15.5691078803359
0.0104623392665457,15.5715974660244
0.00963381595663816,15.5741606184203
0.00883839374004801,15.5768052175068
0.00806918999524193,15.5795689902649
0.00731429331020072,15.5825208790677
0.0065775628016607,15.5856827095728
0.00586286005535867,15.5890805010787
0.00517423573466784,15.5927443631984
0.00451588363592517,15.596709264795
0.00389204895773251,15.6010161352965
0.00330688443242787,15.6057135508088
0.00276424371547614,15.6108605782885
0.00226737838345167,15.6165323502061
0.00181875251673187,15.6228283787867
0.00142489709075348,15.6297870740848
0.00116107286086536,15.6356406253815
0.000961379363107126,15.6414941766782
0.000752393010555278,15.6496750172084
0.000591647428108037,15.658300642402
0.000466280649644115,15.6676344704693
0.000373428588718822,15.6776344704693
0.000311963196519195,15.6876344704693
0.000273012952500379,15.6976344704693
0.000250133109861615,15.7076344704693
0.00023880400987874,15.7176344704693
0.000235990092461532,15.7276344704693
0.000239737906583662,15.7376344704693
0.000248860911266265,15.7476344704693
0.00026272643908757,15.7576344704693
0.000281129806049,15.7676344704693
0.000304233699648621,15.7776344704693
0.000332558397950681,15.7876344704693
0.000367019876233694,15.7976344704693
0.000409024921693177,15.8076344704693
0.000459767861057224,15.8174764662612
0.000517714835154855,15.8265997170978
0.000583529310417585,15.8350357550469
0.000658176689199367,15.8428355450514
0.000742816274379404,15.8500472389277
0.000838784391751732,15.8567156313256
0.00094760192326131,15.8628824213911
0.00107099386779265,15.8685864567465
0.00121091505196253,15.8738639364053
0.00136957989600215,15.8787485881555
0.00154949593754493,15.8832718428821
0.00175350440567226,15.8874630033223
0.00198482719773585,15.8913494009788
0.00224712315687263,15.894956540939
0.00254455755318562,15.8983082518046
0.00288188741251716,15.9014268426492
0.00326457123390434,15.9043332619179
0.0036989099328215,15.9070472682432
0.00419223575471028,15.9095876283248
0.00475317324746974,15.9119723518623
0.00539201108881101,15.9142189903669
0.00611475205709837,15.9163277326399
0.00691179779112573,15.918269181892
0.00779258899633241,15.9200752258161
0.00877126684145945,15.9217776139174
0.00986940620226654,15.923409509556
0.0111239718305619,15.9250121449816
0.0126541512810635,15.9266972506835
0.0147844222725034,15.9287103061243
0.0165444960432935,15.9301839596243
0.0184384959819391,15.9316576131242
0.0201451310631811,15.9329409286974
0.0216517755678884,15.9340830483158
0.0230055728205817,15.9351606118945
0.0242142047961972,15.9362188570581
0.025263923353735,15.9372951001624
0.0261228123733742,15.9384342278981
0.0267282806789524,15.9397138844396
0.0269158844299613,15.9413581047495
0.0264608371686809,15.9430352026477
0.0254645944926534,15.9447123005458
0.0243145651883621,15.9461211126795
0.0230142163212273,15.9474867315266
0.0215622552383668,15.9488884021113
0.0199670608828015,15.9503674893353
0.0182340428852901,15.9519634201942
0.0163902335839221,15.9537289133029
0.0147927206652246,15.9553837859001
0.0122000735155397,15.9584075826588
0.0101035513781077,15.9612790616017
0.00846786869247379,15.9639045610899
0.00714240726067234,15.9663835207837
0.00598956152491513,15.9688967182983
0.00498079719569712,15.9714753202248
0.00412542467173649,15.9740497631361
0.00340083297945153,15.9766205137611
0.00276039553180921,15.9793106302435
0.00215758169532319,15.9823540730093
0.00178414185106787,15.9845899926817
0.00146049399153523,15.9868259123541
0.00121314166129413,15.9887793300461
0.00101055482661918,15.9905820030939
0.00083106755731862,15.9923712902297
0.000662244019131605,15.9942612124828
0.000492196386691332,15.9964235542152
0.000294998680506812,15.9993673973023
6.00697447887813e-05,16.0037974992177
-8.63540366243489e-05,16.0074214956419
-0.000191144377725422,16.0107756779452
-0.000278161802229392,16.0145586805336
-0.000344609369027528,16.0193454283414
-0.000360550956354463,16.0244360940555
-0.000318816497221806,16.0289858585622
-0.000221826296209668,16.0331295598649
-6.85820417436549e-05,16.0368935935216
0.000143631043933602,16.0403189719757
0.000419104233866954,16.0434521921546
0.000763551901919205,16.0463382764099
0.00118502557351454,16.0490245367857
0.0016956236798236,16.0515620929329
0.00231405689331504,16.0540068414299
0.00306602645458519,16.0564105610977
0.00399668954938774,16.0588479680167
0.00515673135212767,16.0613623852329
0.00654483274833959,16.0638775521666
0.00807332757413397,16.0662206034433
0.00964396118315864,16.0682827631074
0.0112560316519804,16.0701119726535
0.0129570927141519,16.0717857477224
0.0147931441267535,16.0733517871844
0.0168165046728147,16.0748448886828
0.0190385054580975,16.0762605333469
0.0215115575236388,16.0776188872691
0.0242747624004634,16.0789254858801
0.0273611016876239,16.0801809043535
0.0308221520139028,16.0813916642418
0.0347052989535863,16.0825598802486
0.0390691670093941,16.0836891640174
0.0439815540010409,16.0847830526597
0.0495202091883038,16.0858448062123
0.0557765839243708,16.086877795709
0.0628645963367454,16.0878862771088
0.0709209541814484,16.0888744927522
0.0801153624064877,16.0898472164324
0.0906620568308443,16.0908099195145
0.102840862902603,16.0917693404385
0.11702819928887,16.0927340332044
0.133753031114839,16.0937155298915
0.153656621710901,16.0947236475003
0.176726309153298,16.0957354602675
0.203589485125461,16.0967625430672
0.235104449203463,16.097821612565
0.272569339491628,16.0989402353675
0.31505104779173,16.1000894036223
0.353756407859584,16.1010744747534
0.386591165674737,16.1018969971223
0.415187583409489,16.1026314829426
0.440189795988837,16.1033182715198
0.461659996349114,16.1039828704587
0.479292625870912,16.1046463859724
0.492380965634073,16.1053310355511
0.499563994814668,16.1060665177889
0.49812736271588,16.106891205942
0.485787697061684,16.1077284469892
0.461352034025172,16.1085933297985
0.423302963764494,16.1094970833904
0.369953758194699,16.1104490531936
0.328075884932566,16.1110750123766
0.28168125266706,16.1117009715596
0.240021462542027,16.1122287451212
0.204011098213698,16.1126732756739
0.172190927029195,16.113066329231
0.143580695772628,16.1134271518706
0.117578293992448,16.1137677266764
0.0937643165041929,16.1140967796711
0.0717939702419313,16.1144220454039
0.0513088729324709,16.1147524464071
0.0317638319734716,16.1151029333381
0.0115418853771017,16.1155196899752
-1.28642619162161e-05,16.1157943011335
-0.00729159062417443,16.1159863779586
-0.0139383789601612,16.1161784547838
-0.0197393334991991,16.116362407354
-0.0256471440843904,16.116569557949
-0.0313941283544011,16.1167958457913
-0.0368033947590324,16.1170385790317
-0.0417765131439094,16.1172966842502
-0.046261659539676,16.1175701411662
-0.0502295888426139,16.1178596602887
-0.0537526504371754,16.1181754310901
-0.0566186465699899,16.1184991474867
-0.0589727408820843,16.1188439779407
-0.0608289842438771,16.1192129176724
-0.0622011900406095,16.1196094697744
-0.0631028128586413,16.1200379495023
-0.0635454696179861,16.1205037167061
-0.0635373597008028,16.1210135192398
-0.0630813350200403,16.1215760206102
-0.0621698132352591,16.1222040444486
-0.0607815180943722,16.1229141303246
-0.0588730808444427,16.1237305450031
-0.0563568283613398,16.1246933843941
-0.0530270432353322,16.1258850658164
-0.0489869675124435,16.1272859624854
-0.0450737399104802,16.1286375816795
-0.0413402662644132,16.1299463097957
-0.0378121814961063,16.1312151732212
-0.0345022186484389,16.1324454341414
-0.0314157103858543,16.1336374547256
-0.028553061738731,16.13479115171
-0.0259110793875888,16.1359062353039
-0.0234838323032,16.1369823329227
-0.0212633033821233,16.1380190487664
-0.0192399329320818,16.1390159856913
-0.0174030923362473,16.1399727435302
-0.0157415006172535,16.1408889015903
-0.0141636112797588,16.1418122108381
-0.0126457581711448,16.1427592457125
-0.0111922261103937,16.1437317438795
-0.00980690222999726,16.1447318847613
-0.00849346093071017,16.14576223033
-0.00725531104801123,16.1468258217878
-0.00609554203443076,16.1479263061637
-0.00501686726335878,16.1490681075128
-0.00402156403879287,16.150256664035
-0.0031114092491714,16.1514987658705
-0.00228760850200088,16.152803052703
-0.00155071457759336,16.1541807770999
-0.000900527125224935,16.1556470358148
-0.000335957070521247,16.1572228873239
0.000125940840276676,16.1588611437552
0.000492274994580835,16.1605504686268
0.000779042982346947,16.1623093039704
0.001000878308054,16.1641603145157
0.00117170203999304,16.1661341589608
0.00130524595034341,16.1682750704329
0.00141591211866675,16.1706528477769
0.00152064035889966,16.1733938617531
0.00164506309321863,16.1767935407016
0.00179624315939763,16.1805533581081
0.0019804931300796,16.1845474402993
0.00218130875324371,16.1884402551296
0.00239579481170824,16.1923086694944
0.00262128916470546,16.1962086041899
0.00285629241977773,16.2001822031144
0.00310071426227778,16.2042649443581
0.00335576528935985,16.2084894207128
0.00362375342261499,16.2128875631718
0.00390790487663565,16.2174922658241
0.00421229739223535,16.2223388801986
0.00454198532341404,16.2274665184577
0.00490343516044579,16.2329194092588
0.00526908283097475,16.2382267890081
0.0056485555535487,16.2434947385083
0.00604112147458061,16.2486676682781
0.00645122291124945,16.2537601036253
0.0068827645703739,16.2587742564895
0.00734053860993424,16.2637187256093
0.00782955869133273,16.2685991407763
0.00835524003766184,16.2734194841407
0.00892342312338157,16.2781814953732
0.0095404979728734,16.2828851541715
0.010213533958485,16.2875291900708
0.0109608069991074,16.2921731703325
0.0118011159293509,16.2968483058047
0.0127530425064152,16.3015603218233
0.0138433778731325,16.3063338338765
0.0151131990475737,16.3112236808812
0.0166393306580883,16.316366710071
0.0186301415666936,16.3222055858001
0.0204914313518502,16.3270669067687
0.022071181782125,16.3309285169287
0.0236851505670128,16.3347901270887
0.0250714979749519,16.3382012540777
0.0262392914788049,16.3413299956609
0.0272016176955911,16.3443482111733
0.0279081562432192,16.3472299977349
0.0283486574619282,16.3500422697004
0.0285102652644222,16.3529160481706
0.0283367202978642,16.3560573366641
0.0275863975598068,16.3601384926407
0.0267350862201837,16.3630427416514
0.0256713814208995,16.3659469906621
0.0245950814212217,16.3685136474624
0.0235216933291504,16.3708781106198
0.0224474138128037,16.3731356217364
0.0213737433639355,16.3753341517559
0.0203040732658093,16.3775018429388
0.0192421149962866,16.3796576378452
0.0181914539274032,16.3818155274585
0.0171554257171315,16.3839865747017
0.0161370883986332,16.386180017849
0.0151392219657424,16.3884039400687
0.0141643397903378,16.3906657018046
0.0132146994157522,16.3929722489581
0.0122923123705113,16.3953303479589
0.0113989582881075,16.3977467641535
0.0105361884397509,16.4002284418046
0.00970534135683254,16.4027826405973
0.00890754695189057,16.4054171031381
0.00813725191374767,16.4081642887948
0.00738092263195592,16.4110976780245
0.00664242028381665,16.4142387174252
0.00592558693524945,16.4176130640634
0.00523446097855175,16.4212503717949
0.00457322653889127,16.4251850692301
0.00394612968278856,16.4294573992371
0.00335733963076326,16.4341150190337
0.00281074622829308,16.4392156937757
0.00230966510007907,16.4448325127551
0.00185663385488034,16.4510618723152
0.00145646495047915,16.4579746113205
0.00112084180929504,16.4654252935168
0.000908453938031416,16.4718504082142
0.000711974467915528,16.4799125612354
0.000556313955526999,16.4886577112438
0.000435528563533813,16.4981004723398
0.000346970241261628,16.5081004723398
0.000287918004591119,16.5181004723398
0.000250000111724304,16.5281004723398
0.00022712025265151,16.5381004723398
0.00021498126414111,16.5481004723398
0.000210673324222998,16.5581004723398
0.000212296282964558,16.5681004723398
0.000218659544701885,16.5781004723398
0.000229074906345796,16.5881004723398
0.000243228578136581,16.5981004723398
0.000261110784440409,16.6081004723398
0.000282986915221742,16.6181004723398
0.000309403214522118,16.6281004723398
0.000341228301586113,16.6381004723398
0.000379739925473293,16.6481004723398
0.000426777105033991,16.6581004723398
0.000481003080020814,16.6674684900253
0.000542669470265831,16.6761359958266
0.000612672804066665,16.6841510018945
0.000692112401047919,16.6915624755864
0.000782258636657022,16.6984161252688
0.000884557041424857,16.7047545167763
0.00100064617086977,16.7106173150663
0.00113238157597348,16.7160414932822
0.00128186438295895,16.721061510622
0.00145147243989818,16.7257094837597
0.00164389841803618,16.7300153530806
0.00186219264240815,16.7340070415398
0.00210981588887122,16.7377106004701
0.0023907015393612,16.7411503549899
0.00270933335743583,16.7443490556584
0.00307084331335798,16.7473280338301
0.00348113586433626,16.7501073629448
0.00394705304086482,16.7527060404036
0.00447659792378317,16.7551422002476
0.00507924762129198,16.7574333732911
0.00576641166936268,16.7595968346603
0.00652917286299158,16.7615951863815
0.00737078028273841,16.7634445001949
0.00830293326363149,16.7651762318156
0.00934296159567843,16.766821822974
0.0105186905385047,16.7684167465073
0.0118936486689612,16.7700238559112
0.0136651371709958,16.7718074595601
0.0157273574040096,16.7736131479996
0.0174475258638313,16.7749786627061
0.0192639832106912,16.7763441774125
0.0208915382484499,16.77754776644
0.0223460335838004,16.7786496246386
0.0236536233417115,16.7797078708766
0.0248119277175547,16.7807621073188
0.0258002051216519,16.781850701908
0.0265767763853821,16.783027010595
0.0270544902035964,16.7844006325953
0.0269046470143075,16.786450197281
0.0262266457555276,16.7879219093718
0.0251789854523378,16.7893936214627
0.0239670635873192,16.7907575473707
0.0225955923423669,16.7921272693555
0.0210731376079491,16.793553396667
0.0194079674970522,16.79507392283
0.0182609505326411,16.7961227378059
0.0171416787671975,16.7971715527818
0.015844162726759,16.7984524506223
0.0132250658792686,16.8013139482875
0.0108810854277549,16.8043033776989
0.00906586600497239,16.8070239437534
0.00762467854466242,16.8095454694231
0.00640093799569193,16.8120387705399
0.00533171506808019,16.814585427862
0.00441945354710961,16.8171359109888
0.00367399982784465,16.8195780933192
0.00305399583906578,16.8219461250342
0.00252553021818555,16.824292287377
0.00205776040767807,16.8267089390452
0.00160797474201253,16.8294435925946
0.00129517074743871,16.8316673299585
0.00102279244389553,16.8338910673224
0.000818667357809337,16.8357832830053
0.000653996405259114,16.8374867628272
0.000508838775817417,16.8391489681777
0.000372827857731022,16.8408722843954
0.000237184233291236,16.8427863029514
8.6995488102638e-05,16.8451914101317
-0.000143371261634719,16.8496915799463
-0.000305070014823366,16.8537669423423
-0.000414423438644086,16.8572607024534
-0.000506127218723895,16.861026477608
-0.000587644421497959,16.8658557759597
-0.000629839121593149,16.8711531377124
-0.000618078650124693,16.8758476188376
-0.000554594864701515,16.8801097874525
-0.000437668214949963,16.8839593227755
-0.000264074306272678,16.887443181579
-2.98096443353021e-05,16.8906053101193
0.000270738712172388,16.89349826671
0.000645251889200941,16.8961744895665
0.00110526604186404,16.8986900008248
0.00166964436608332,16.9011090096332
0.00236858563562451,16.9035028838036
0.00326102521425596,16.9059815962912
0.00445336330300433,16.9086917002231
0.00602915684917658,16.9116426941564
0.0073953414094585,16.913818832305
0.00896514641669798,16.9159949704536
0.0105407116170583,16.9178931088788
0.0121701139014593,16.9196038644633
0.013935672741841,16.9212168996273
0.0158251634683427,16.9227145006982
0.0179221102535319,16.9241530025438
0.0202557177701537,16.9255341972985
0.0228511945257494,16.926857150796
0.0257584821879443,16.9281320593951
0.029013002010124,16.929359149356
0.0326653308058327,16.930543059528
0.0367683335406861,16.9316866529257
0.0413797051576561,16.9327922088286
0.0465716478057862,16.9338634199163
0.0524282489116831,16.9349038373516
0.0590487433795376,16.9359170351357
0.066552990974947,16.9369068899116
0.0750860538441807,16.9378774821236
0.0848320894543285,16.9388338212431
0.0960228843022342,16.9397814652953
0.108960066629409,16.9407271165924
0.124049239795493,16.9416792730789
0.141859966977689,16.9426493847809
0.162970639167185,16.9436422837399
0.187437944226353,16.9446395749751
0.215923336132426,16.9456525415964
0.249328201457888,16.9466975090917
0.289027245429057,16.9478021366176
0.334269931933325,16.9489451308874
0.373220993146547,16.9498763893147
0.406000684137257,16.9506538722533
0.434516492160127,16.9513530965365
0.459406447798522,16.95201232165
0.480691251475139,16.9526563192448
0.497989828037986,16.9533067907753
0.51044477338413,16.9539886390448
0.516325340464734,16.9547394807731
0.512556672782327,16.9555531954583
0.497366658103427,16.9563872159601
0.469396118464815,16.9572567427343
0.426934631142911,16.958172662981
0.368116511311069,16.9591439787894
0.325541426257465,16.9597420372528
0.279020597288727,16.9603400957162
0.237389957426338,16.9608477412869
0.201346786605809,16.9612789657353
0.169470024238707,16.9616625326659
0.140803176599421,16.9620161996648
0.114748258066576,16.9623512908513
0.0908805023289869,16.9626762908048
0.0688406672701638,16.9629990354689
0.0482351241075249,16.9633291551708
0.0284019382470245,16.9636844708041
0.00686005590755449,16.9641339988134
-0.00178054226567009,16.964341682253
-0.00963006890996904,16.9645493656925
-0.0160163255809277,16.9647353046528
-0.0219660398595854,16.9649259003728
-0.027909137930363,16.9651376161584
-0.0336142471954301,16.9653670482516
-0.038936446031179,16.9656122222384
-0.043796115861875,16.9658725114348
-0.0481525615327484,16.9661481868579
-0.0519841423760031,16.9664401710559
-0.0553922834430159,16.9667620264845
-0.0581136166583364,16.967089518622
-0.060322955720503,16.9674388833978
-0.0620355558121627,16.9678133663311
-0.0632655859138427,16.9682167364715
-0.0640263013306636,16.9686536516358
-0.0643285328266297,16.9691299299413
-0.0641789774282713,16.9696529551488
-0.0635775698001244,16.97023262426
-0.0625119886261912,16.9708831453493
-0.0609538196408857,16.9716234340855
-0.0588458725858205,16.972482512429
-0.0560678190961055,16.9735117623617
-0.0522962774935835,16.9748345883291
-0.048257872643869,16.9762206959567
-0.044365315107275,16.9775617644809
-0.0406618751013864,16.978861946276
-0.0371684146277716,16.9801233541841
-0.0338952652145598,16.9813467594787
-0.0308463776732423,16.9825322536064
-0.0280212701732566,16.983679601466
-0.0254161363451782,16.9847884270043
-0.0230246055874391,16.9858583079053
-0.020838344709544,16.9868888186841
-0.0188475739803279,16.9878795427891
-0.0170415230086065,16.988830064854
-0.0154088342777297,16.9897399492026
-0.0138430341220463,16.9906665709937
-0.0123381074604142,16.9916171012718
-0.0108981726089001,16.9925934002125
-0.00952709281716617,16.9935976961227
-0.0082285121431667,16.9946326131384
-0.00700580355831037,16.9957012710488
-0.0058620150477873,16.996807417382
-0.00479981298825352,16.9979556066222
-0.00382142236385249,16.9991514493998
-0.00292856275949471,17.0004019691048
-0.00212237796471167,17.0017161300789
-0.0014033550003143,17.0031056532992
-0.000771224379256897,17.0045863431686
-0.000224824705764035,17.0061803942318
0.000215771199510801,17.0078248098678
0.000563244404990424,17.0095231188136
0.000833191355914509,17.0112939195789
0.00104003220237204,17.0131608372111
0.0011975109681067,17.0151560900885
0.00131923132326734,17.0173266948748
0.00141955489524772,17.0197480738711
0.00151563661456025,17.0225605774779
0.0016346875157568,17.0261124467442
0.00177736987523838,17.0298960056078
0.00196171006784203,17.0341013996583
0.00216471586008284,17.0382248505225
0.00237174239073914,17.0421468739105
0.00258234530757121,17.0459903220287
0.00279677537628445,17.0498285531965
0.00301606241589093,17.053711463037
0.0032419843646025,17.0576780835689
0.00347694907451485,17.0617622782125
0.00372388218526528,17.0659957452626
0.00398616846669163,17.0704100361743
0.00426767153140343,17.0750380780012
0.0045728888129768,17.0799156259412
0.00490730286448618,17.0850825341784
0.00527065826319531,17.0904756541665
0.00564119340464612,17.0957233791789
0.00602826143964019,17.1009262919249
0.00643164935302564,17.1060369008123
0.0068560124884127,17.111070164646
0.00730556228411009,17.1160291057315
0.00778536818420371,17.1209213426279
0.00830079681690651,17.1257514869565
0.00885768563707843,17.1305223788722
0.00946238090635732,17.1352347414134
0.0101218681288057,17.1398877734897
0.0108512891884531,17.1445244656437
0.01167142816474,17.1491942768032
0.0125994149410074,17.1538979878356
0.0136605000739905,17.1586575651652
0.0148922620123381,17.1635200080355
0.0163620709046623,17.1686003638427
0.0182367553951645,17.1742447436263
0.0206566778980142,17.1806204191753
0.0222040733940115,17.1843920344277
0.0237793974734263,17.1881636496802
0.0251505824394121,17.1915495300325
0.0263067168661041,17.1946683300496
0.0272573390361723,17.1976844233316
0.0279489849876867,17.2005593786458
0.0283745225557873,17.2033711555209
0.02851959324401,17.2062526914987
0.0283240051023703,17.2094184927021
0.0275177594421249,17.2136154300427
0.0266575582005566,17.2164730983925
0.0255959450983523,17.2193307667422
0.0245206993267071,17.2218746544368
0.0234472640413928,17.224227958884
0.0223728944484147,17.2264792593478
0.0212993885299024,17.2286742077647
0.0202301959366221,17.2308399756655
0.0191690275183741,17.2329950060936
0.0181194518535116,17.2351529986987
0.0170847847662971,17.2373248298195
0.0160680631207538,17.2395196137347
0.0150720471909008,17.241745344884
0.014099231763508,17.2440093178453
0.013151855256526,17.246318431258
0.0122319131117203,17.2486794087795
0.0113411671308948,17.2510989851314
0.0104811514665237,17.2535840775792
0.00965318947939348,17.2561419159036
0.00885839464226337,17.2587802171042
0.00808895223534225,17.261539937081
0.00733377071774774,17.2644872315423
0.00659669621865654,17.2676438803768
0.00588158989197532,17.2710357952109
0.00519250293921675,17.2746929528188
0.00453363115026774,17.2786501559699
0.00390922380404311,17.2829481223045
0.00332344081264674,17.2876351481273
0.00278014675854874,17.292769917927
0.00228261130522166,17.2984269801562
0.0018333211600984,17.3047049549661
0.00143828943859587,17.3116521463532
0.0011073863247403,17.3191441450446
0.000879227781838796,17.326253833215
0.000700325010093316,17.3339124036117
0.000546101671594082,17.342905613273
0.000430916750819021,17.3523422961818
0.000346894672053707,17.3623422961818
0.000291488425545202,17.3723422961818
0.000256672398131428,17.3823422961818
0.000236617777777266,17.3923422961818
0.000227238137330148,17.4023422961818
0.000225796943589237,17.4123422961818
0.000230548667786953,17.4223422961818
0.000240456228113336,17.4323422961818
0.000255000622454488,17.4423422961818
0.000274070886573859,17.4523422961818
0.00029791578056213,17.4623422961818
0.000327145380892287,17.4723422961818
0.000362781928815921,17.4823422961818
0.000406371800726783,17.4923422961818
0.000458649005096278,17.5020786177791
0.00051841265439798,17.5110937918931
0.00058641169967892,17.519424278316
0.000663683259869218,17.5271219023308
0.000751457188620872,17.5342353550823
0.000851145612104445,17.5408098275044
0.00096435421510718,17.5468873025326
0.00109290366414331,17.5525068200509
0.00123885698400925,17.5577046967094
0.0014045507943374,17.5625147223726
0.00159263169732351,17.5669683489295
0.0018060993577351,17.571094871084
0.00204835803574952,17.574921592661
0.00232327766344263,17.5784739831441
0.00263527088172124,17.5817758396931
0.00298938838452524,17.5848494558665
0.00339144227184396,17.5877157939987
0.00384816802472058,17.5903946757308
0.00436744420498555,17.5929050063626
0.00495860164936447,17.5952650485386
0.00563287504041657,17.5974927849137
0.00638508912726702,17.5995587956768
0.00721586471303259,17.6014701157989
0.00813693826726675,17.6032596137178
0.00916593917997654,17.6049605313447
0.0103314632131991,17.6066107242398
0.0116909237831007,17.6082683903466
0.0134571835974151,17.6101229849922
0.0153943778626184,17.6118985508689
0.0170627799904212,17.6132910624049
0.0188209220054126,17.6146835739409
0.020392115638277,17.615910424672
0.0217957167859265,17.6170357000089
0.0230553669454455,17.6181175072037
0.0241675817099162,17.6191957884014
0.0251111165320097,17.6203096079502
0.0258438597547008,17.6215136629128
0.0262774548083883,17.6229211966895
0.0260699496977073,17.6250383620147
0.025372133733486,17.6265260051298
0.0243221253244143,17.6280136482449
0.0231165664361523,17.6293955231307
0.0217593391171459,17.6307825218657
0.0202591994768058,17.6322244410946
0.018624640478321,17.6337588652825
0.0175778755879174,17.6347435295213
0.0165580924838654,17.6357281937602
0.014606515746626,17.6377483922701
0.0119958947213838,17.6408189203594
0.00992191195049563,17.6436841026599
0.00830290387874193,17.6463018886546
0.00698317080305526,17.6487855235722
0.00583348235088996,17.6513054373651
0.00485956159719058,17.653799054766
0.00405345853756246,17.6562058373301
0.00337292884068608,17.6585674947564
0.00278145201342476,17.6609521652811
0.00223931618276194,17.6635058955863
0.00167825183938148,17.6666649593479
0.00138904894851945,17.668573703379
0.00113187315988074,17.6704824474101
0.000921935508793542,17.672223832447
0.000741356352248418,17.6738832104606
0.000575468451703036,17.6755670327748
0.00041366634606876,17.6773875282686
0.000242114146787308,17.679554083299
1.07844461769471e-05,17.6829773366267
-0.000187765164121018,17.6865565480373
-0.000328302082137812,17.6896124234396
-0.000448833441955817,17.6927412353818
-0.000564217479206078,17.6964135635828
-0.000677722871114778,17.7012227360452
-0.000755663414319876,17.7065820577631
-0.000775761726499507,17.7113138684094
-0.00074279359587045,17.7156113642268
-0.000655391524223356,17.7194950552303
-0.000510567967349049,17.723010232994
-0.000304006418103641,17.7262068221466
-3.02028230734797e-05,17.7291341971354
0.000318743720794634,17.7318476411323
0.000755043282352127,17.7344078036882
0.00129812608322234,17.736881565615
0.00198872545094151,17.7393766830731
0.0029057284778454,17.7420442125543
0.00416536193637878,17.7450281259727
0.00574653644078494,17.7481290241175
0.00701121746320449,17.7502646592028
0.00844729266081689,17.7524002942882
0.00991700483302996,17.7543135847247
0.011421579395001,17.7560260668872
0.0130488014409421,17.7576407414503
0.0148199352770519,17.7591660278085
0.0167845739775093,17.7606290407838
0.0189689424557318,17.7620313826474
0.0214135948320434,17.7633818647399
0.0241501382518693,17.7646812027832
0.0272175441414313,17.7659325163074
0.0306597228314792,17.7671389797717
0.03452130264961,17.7683022274311
0.0388595424988186,17.7694259761886
0.0437394107960805,17.7705135317766
0.0492362818219969,17.7715681530069
0.0554391491475066,17.77259323744
0.0624548508633143,17.7735924618387
0.0704151727299624,17.7745700698194
0.0794808789675097,17.7755305032947
0.0898532944522151,17.7764787894147
0.101790032142526,17.7774208227099
0.115628949520719,17.7783637623573
0.131831916640597,17.779316965681
0.15105920239472,17.7802933195064
0.173592575202466,17.7812824541901
0.199739584070216,17.782279498394
0.230238734401591,17.783297001473
0.266123896072212,17.7843539076889
0.309090166247444,17.7854855377933
0.344089038696957,17.7863388324589
0.380460170890804,17.7871921271246
0.4128035340136,17.7879489262525
0.441095570036592,17.7886362674655
0.465775531507335,17.7892872740131
0.486820616001777,17.7899260458311
0.503805405821545,17.7905745267372
0.51579349277131,17.7912589167796
0.52085766618516,17.7920209001395
0.515850496387821,17.7928328092672
0.499214688988035,17.7936680580604
0.469519001424378,17.7945416522123
0.424983875779213,17.7954641695448
0.377336444400326,17.7962440980583
0.333368320369768,17.79686608189
0.284986465311839,17.7974880657218
0.242269270708995,17.7980066304793
0.205515272988587,17.7984433064618
0.17311504130323,17.7988298021076
0.144031398458151,17.7991850150888
0.117629940648594,17.7995207405006
0.0934680288005599,17.7998456482067
0.071178957187395,17.8001675686249
0.0503729667883792,17.8004958455119
0.0304252536940851,17.8008470607637
0.00921866387486877,17.8012796388819
-0.000390002931907092,17.8015051390018
-0.00905157568196087,17.8017306391218
-0.015536005014308,17.8019172485495
-0.0214935559439547,17.8021058354951
-0.0274609269472365,17.8023157023257
-0.0332014539245818,17.8025434057049
-0.0385648760255608,17.8027868828573
-0.0434683450564458,17.8030454462635
-0.0478692389270233,17.8033193228053
-0.0517468739938071,17.8036093991135
-0.0553051534466088,17.803939890745
-0.0580532196861035,17.8042660200728
-0.0602865562004514,17.8046137614471
-0.0620218204099146,17.804986479957
-0.0632732810083896,17.8053879222129
-0.0640543225216603,17.8058227166346
-0.0643759423270677,17.8062966445525
-0.0642450414557973,17.8068170422661
-0.0636618841001739,17.8073936864965
-0.0626145147589321,17.8080407219586
-0.0610749778574345,17.8087769046616
-0.0589868561903351,17.8096309617423
-0.0562315912374718,17.8106535777961
-0.0524928670130619,17.8119654538216
-0.0484437171881131,17.8133543937793
-0.0445375579396529,17.8146982622047
-0.0408189840477334,17.8160012932958
-0.0373095410223308,17.8172656303468
-0.034019994918224,17.8184920531019
-0.0309546204841022,17.8196806506978
-0.0281131964843531,17.8208311808331
-0.0254921302135307,17.8219432585503
-0.0230852235179056,17.823016452759
-0.0208842771437247,17.824050330487
-0.0188796087602091,17.8250444697896
-0.0170605114554175,17.8259984526244
-0.0154156603111872,17.8269118438974
-0.0138474032487927,17.827836451773
-0.012339641229789,17.8287848685505
-0.0108965900467615,17.8297588823483
-0.00952213134253576,17.8307606917506
-0.00821993331630557,17.8317928835703
-0.00699339856706017,17.8328585307831
-0.00584561064001271,17.8339613213617
-0.00477927794482672,17.8351057327566
-0.0037966746997826,17.836297273964
-0.00289957797374629,17.8375428310375
-0.00208919889106849,17.8388511772219
-0.00136610423580974,17.8402337576995
-0.000730121126768489,17.8417059598365
-0.000180209747489777,17.8432893075865
0.000265514889551331,17.8449299934485
0.00061658917237127,17.8466229269741
0.00088876598173265,17.8483866018754
0.00109650174255725,17.8502440726698
0.00125352729915615,17.8522266301898
0.00137335521573182,17.8543796323898
0.00147010942201293,17.8567751368543
0.00156033972193771,17.8595450640336
0.00166915449080705,17.86300522551
0.00180250024883541,17.8667736702255
0.00197483302769237,17.8709240999874
0.00216696668964765,17.8750043642341
0.00236545645889996,17.8789067748386
0.0025690198901108,17.8827430951839
0.00277732714858825,17.8865821060734
0.00299100674901988,17.8904716548044
0.00321155576480101,17.8944497964636
0.00344118413058311,17.8985499521542
0.00368267567868821,17.9028037276281
0.00393930448021123,17.9072428179863
0.00421483780229588,17.9119005151178
0.00451368216203982,17.9168131650583
0.00484123509640453,17.9220214385903
0.00519620398379076,17.9274453779045
0.00555811170572516,17.9327234178942
0.00593579932268016,17.9379519723396
0.00632923108366548,17.9430858009649
0.006742959525726,17.9481404412136
0.00718109714440747,17.9531196873028
0.00764854070718005,17.9580315782669
0.00815045069373874,17.9628810569616
0.00869242867228763,17.9676712521222
0.00928055862835128,17.9724031246457
0.00992153761357467,17.9770760420995
0.0106248704377755,17.9817012830875
0.0114151479253142,17.9863640299959
0.0123069941758623,17.9910558303582
0.0133234059588298,17.9957953685391
0.0144969969552097,18.0006187478453
0.0158826993012427,18.0056124691975
0.017600442264321,18.0110136066808
0.0200147134831904,18.0176028580688
0.0216249361077962,18.0215994735551
0.0232914612794672,18.0255960890415
0.0247423937832381,18.0291236357893
0.025964380973998,18.0323075697409
0.0269809299056668,18.0353412005039
0.0277584842732701,18.0382609104235
0.0282695831945684,18.0410799545847
0.028508016362047,18.0439223381095
0.0284333979137287,18.0469617353175
0.0278942861212152,18.0506355025318
0.0270806433178901,18.0537770118882
0.0259980354762572,18.0569185212447
0.0249132621398516,18.0595889147218
0.0238389419445487,18.0619997086891
0.0227647072292598,18.0642816501064
0.0216903902489513,18.0664935848325
0.0206190532287968,18.0686678342142
0.0195543829669461,18.0708253870268
0.0185000184645699,18.0729813862584
0.0174593709492313,18.0751475926279
0.0164355766188898,18.0773336868198
0.0154314933903333,18.0795480308382
0.0144497087175569,18.0817981575624
0.0134925501023823,18.0840911096354
0.0125620994048353,18.0864336817222
0.0116601988990801,18.0888326296448
0.0107884627489495,18.0912948368018
0.00994828949913483,18.0938274609077
0.00914086590955133,18.0964381021459
0.00836715521378464,18.0991350417357
0.00760631385258163,18.1020126208364
0.00686223409429802,18.1050911078449
0.0061386968733673,18.1083951369048
0.00543968818163988,18.1119531615117
0.0047693593584339,18.1157981693752
0.00413195263157705,18.1199686442738
0.00353168183605096,18.1245099639547
0.00297254838327398,18.1294767209132
0.00245807052889219,18.13493709617
0.00199103487191381,18.1409801062905
0.00157343234024684,18.1477256829318
0.00122041053001288,18.1550118776811
0.000941008953413395,18.1629102309359
0.000760168273774745,18.1700910889388
0.000599113461360407,18.1786896252224
0.000475872075183539,18.1878011404063
0.000381929027023692,18.1978011404063
0.00031991204993431,18.2078011404063
0.000280929123983443,18.2178011404063
0.000258508472920623,18.2278011404063
0.000248093090889094,18.2378011404063
0.000246626804889704,18.2478011404063
0.000252169247092517,18.2578011404063
0.000263586037791112,18.2678011404063
0.000280338462959613,18.2778011404063
0.00030236453628821,18.2878011404063
0.000330033454610189,18.2978011404063
0.000364162442207897,18.3078011404063
0.000406098973935288,18.3178011404063
0.000457376554943174,18.3277095432455
0.000516169335365924,18.336889605065
0.000583111704460851,18.3453718873498
0.000659175320911569,18.3532090893654
0.000745543095470805,18.3604509030701
0.000843586331346665,18.3671434123714
0.000954869633501309,18.3733294015956
0.00108116989818858,18.379048639556
0.00122450225679448,18.3843381137297
0.00138715088115242,18.3892322305773
0.00157170356777497,18.3937630094323
0.00178109443379223,18.3979602682945
0.0020186531350913,18.4018517957837
0.00228816473753309,18.4054635084232
0.00259394366930691,18.4088196126264
0.00294092553899198,18.4119427746097
0.00333478617360492,18.4148542934209
0.00378209591170114,18.417574288408
0.00429052905384892,18.4201219195909
0.00486915707983309,18.4225156548462
0.00552887339528868,18.4247736183258
0.00626905459445997,18.4268778048228
0.00708640407638529,18.4288214558339
0.00799197724288688,18.43063766994
0.00900241616715051,18.4323598478771
0.0101443165512416,18.4340251450579
0.0114667800944087,18.4356850144209
0.0131533937276213,18.437508650654
0.0157421427183547,18.4398993912539
0.017349850115271,18.4412347683078
0.0190290055646761,18.4425701453618
0.0205581629624578,18.4437779212588
0.0219295564677989,18.4448975936302
0.0231584669342955,18.445980860119
0.0242380474089181,18.4470665402063
0.025144249834527,18.4481950140037
0.0258303214483692,18.4494261586394
0.0261936924739325,18.4508940201904
0.0258027287304782,18.4531668521063
0.0250215053605108,18.4546220559934
0.0239304642654489,18.4560772598806
0.0226901184179463,18.457458005176
0.021301709328682,18.4588576886637
0.0197742762243669,18.4603210767482
0.0181153522155028,18.4618858101284
0.0175047976765317,18.4624643978914
0.0169036762426476,18.4630429856544
0.0153867601981041,18.4645749263899
0.0128491357315463,18.467427575444
0.0106052420712299,18.4703675890534
0.00885415867368509,18.4730570613311
0.00745507723138133,18.4755610923132
0.00625268642719546,18.4780655046645
0.00520282196347755,18.4806221820866
0.00432100394716579,18.4831396974603
0.00355815108870883,18.4856962547074
0.00285831194348746,18.4884736121081
0.00222716170989986,18.4914826953121
0.00186581391287993,18.4935051249676
0.0015476777096755,18.4955275546231
0.00129122400447662,18.4973676414555
0.00107240523773259,18.4991235612721
0.000873004433231591,18.5009085558422
0.000679961346638959,18.5028454123517
0.000476434052546418,18.5051697129564
0.000195476999150865,18.509030678157
-2.36605466606894e-05,18.5128289122307
-0.000173703248516912,18.516063644722
-0.000299527629269129,18.5194217229823
-0.000414609433276591,18.5234098588016
-0.000515862655443913,18.5287225201673
-0.00055553107394729,18.5336918772896
-0.000537579686917723,18.5381970270712
-0.000463912454542323,18.5422861331736
-0.000333289730352094,18.5459981333399
-0.000142699061546511,18.5493767595585
0.000112663153800447,18.5524727315287
0.000439431268275774,18.5553357787208
0.000847431928771621,18.5580198653642
0.0013523581749132,18.5605864837333
0.00197977946838342,18.5631066684267
0.00277227609572856,18.5656668732413
0.00381745840533011,18.5684154271431
0.00521649667617155,18.5714320810608
0.00683824605050452,18.5743345844705
0.00837579677064377,18.5766684611664
0.00985318432413442,18.5786067963926
0.0113967924595513,18.5803682559591
0.0130311897111981,18.5819888391814
0.0148265009238009,18.5835318468115
0.016807975955492,18.5850030909524
0.0190092781734313,18.5864118225272
0.0214692290504659,18.5877664156275
0.0242192944257093,18.5890681795698
0.0273030868754742,18.5903225497575
0.030759562241534,18.5915307157226
0.0346409112809024,18.5926968917689
0.0390035114844959,18.5938240865079
0.0439115938767303,18.5949151892558
0.0494418153129964,18.5959735802431
0.0556873907789225,18.5970031828709
0.0627585979585297,18.5980078228768
0.0707898329731145,18.5989916741939
0.0799472186965478,18.5999593653143
0.0904399061468742,18.6009161852503
0.102540111122338,18.6018686186252
0.116609433345593,18.6028246551446
0.133150201377194,18.6037949185288
0.152902924458336,18.6047947251642
0.175802872216361,18.6057975214361
0.202429584385664,18.6068126585488
0.233593430323337,18.6078551348619
0.270480678835166,18.6089487782175
0.31325597673477,18.6100919078024
0.354078288739799,18.6111097576952
0.388261264931079,18.6119422424313
0.417836943356223,18.6126760493718
0.44370576010568,18.6133577103886
0.466032947466248,18.6140146977198
0.484574868183047,18.6146687533164
0.498684888473857,18.6153422077419
0.507085293737046,18.6160645967958
0.507130159230477,18.6168822308058
0.496271432423731,18.617711972068
0.473337880160219,18.6185698169815
0.436788901751925,18.6194678233999
0.384879517425519,18.6204150288109
0.341359323262109,18.6210728079992
0.292599359048869,18.6217305871874
0.248984610068167,18.6222786747333
0.211625201947694,18.6227339294292
0.178812974467634,18.6231327246975
0.149416507833127,18.6234965712738
0.122761700066552,18.6238384297493
0.0983932574326132,18.6241674342092
0.0759496334004587,18.6244913848279
0.0550730281433352,18.6248188539173
0.0352587973274181,18.625163277625
0.0151997352738467,18.6255613683196
0.00682610480430367,18.6257483769345
-0.000894742851095248,18.6259353855494
-0.00866130635015452,18.6261411754352
-0.0151446157333712,18.6263300489869
-0.0210403281934723,18.6265188768374
-0.0269657017874757,18.6267295128516
-0.0326783401027473,18.626958347988
-0.038023152681633,18.6272031694693
-0.0429145409967648,18.6274632025843
-0.0473082599442066,18.6277386219792
-0.0511791229123174,18.6280302800236
-0.0545710865127758,18.6283455332475
-0.057343371835043,18.6286718885118
-0.0596047353142278,18.6290198980396
-0.0613693595415859,18.6293926474273
-0.0626512654876644,18.6297938006555
-0.0634637824410609,18.6302278799051
-0.063818051064171,18.6307005201209
-0.0637213740512432,18.6312188483578
-0.0631749477876831,18.6317922185528
-0.0621683102136112,18.6324343575207
-0.0606761068160274,18.6331631375859
-0.0586471645093068,18.634005543196
-0.0559758285121813,18.6350079530573
-0.0523950757355028,18.6362743098743
-0.0483608392723996,18.637665466123
-0.0444650991450055,18.6390101370274
-0.0407551373277181,18.6403131118437
-0.0372535171831127,18.641576856205
-0.0339714071202909,18.6428023350695
-0.0309132236766391,18.6439897488027
-0.0280787711578772,18.6451389250427
-0.0254644325819636,18.6462495246782
-0.023063967941959,18.6473211476672
-0.020869135026397,18.6483533824445
-0.0188702157530741,18.6493458217512
-0.0170564785141992,18.6502980571822
-0.0154165860644991,18.6512096591749
-0.0138480766462674,18.652135417274
-0.0123402284904498,18.6530850326186
-0.0108972051461856,18.6540603328943
-0.00952287723339888,18.6550635335157
-0.00822089784666812,18.656097242099
-0.00699465047013599,18.6571645574372
-0.00584719514424059,18.6582692001017
-0.00478121186920811,18.6594156894825
-0.00379894082533573,18.6606095896931
-0.0029021183484825,18.6618578610471
-0.00209190650438575,18.6631693798772
-0.00136881209991074,18.6645557398439
-0.000732587008464472,18.6660325523971
-0.000182093081473684,18.6676217010638
0.00026341011150009,18.6692644633852
0.000615152782043044,18.670960357912
0.000888835841619914,18.6727279363944
0.00109893648599834,18.6745905618379
0.00125924701566142,18.6765800246854
0.00138340799328094,18.6787425734123
0.00148579727734964,18.681152064954
0.00158352130257373,18.6839448998684
0.00170336274522329,18.6874538873665
0.00184789814562793,18.6912303370703
0.00202432138185053,18.6952120193499
0.00221694169244195,18.6990902943389
0.00242263522822171,18.7029428719701
0.00263877975302905,18.7068257626038
0.00286397897223211,18.7107810753043
0.00309821604168869,18.7148442029197
0.00334271613598286,18.7190476168584
0.00359973791635717,18.7234230964587
0.00387239476606788,18.7280033483262
0.00416458524189555,18.7328235020507
0.00448110816171262,18.7379224593638
0.00482806917866567,18.7433442439501
0.00518470911171448,18.7487078481271
0.00555290348253707,18.7540034278288
0.00593425096362242,18.7592110535679
0.00633213198249447,18.7643326337174
0.00675055100025156,18.7693742020857
0.00719403652385723,18.7743438513772
0.0076674297330237,18.7792481455197
0.00817591138447043,18.7840915929575
0.00872506539118796,18.788876496519
0.00932098876448021,18.7936032793991
0.00997041766527688,18.7982709549567
0.010684560984563,18.8029005473856
0.0114869209143473,18.8075662255358
0.0123929113791188,18.8122624440597
0.0134262780718879,18.8170089727924
0.0146212644080701,18.8218454835062
0.0160367804102185,18.8268675815869
0.0178068500576448,18.8323450256907
0.0202249363304216,18.8388587386536
0.0218082724592457,18.8427607399594
0.0234377846919513,18.8466627412653
0.0248628062546334,18.8501409522169
0.0260645009095743,18.853302737826
0.0270611225003176,18.856329590218
0.0278124842171037,18.8592343273219
0.0282977059415989,18.8620499614829
0.0285082361461765,18.8649026502632
0.0283983796144757,18.8679764220878
0.0277903085083844,18.8717768033146
0.0269634920924716,18.8748282574467
0.0258893609360511,18.8778797115787
0.0248081943141285,18.8805130076935
0.0237343094485519,18.8829080989852
0.0226600372880727,18.885182011756
0.0215858613952874,18.8873896611136
0.0205149697415036,18.8895619283303
0.0194510612458151,18.8917191155467
0.0183977581284259,18.8938759877876
0.0173584469062849,18.8960440825852
0.016336237609275,18.8982329454077
0.0153339619127545,18.9004508597355
0.0143541825930262,18.9027053170797
0.013399203091476,18.9050033487026
0.012471081923857,18.9073517626065
0.0115716401966115,18.9097573463865
0.0107024705411692,18.9122270394146
0.00986495238223567,18.9147680728003
0.00906025366356097,18.9173881454096
0.00828764384036897,18.9201017890114
0.0075282531154455,18.9229979448177
0.00678596853143191,18.9260972521653
0.00606459046375667,18.9294246866802
0.00536812011711268,18.933009110107
0.00470071875438125,18.9368839951226
0.00406662901960332,18.9410884174198
0.00347004972317362,18.9456685146613
0.00291494530867358,18.9506799253046
0.00240476633897113,18.9561924309259
0.00194221335153371,18.9622974564997
0.0015291971717452,18.969118298636
0.00118197520078197,18.9764606228889
0.000954365195869773,18.9830135631883
0.000755211215052847,18.9908062998411
0.000593615185276744,18.9994004501545
0.000467791682046962,19.0086656490296
0.000373593380339367,19.0186656490296
0.000311056423707205,19.0286656490296
0.000271244262321469,19.0386656490296
0.000247654985370776,19.0486656490297
0.000235712606628104,19.0586656490297
0.00023233205944659,19.0686656490297
0.000235519682468332,19.0786656490297
0.000244055776815808,19.0886656490297
0.000257277390658419,19.0986656490297
0.000274948150896437,19.1086656490297
0.000297193509599105,19.1186656490297
0.000324486263958662,19.1286656490297
0.000357678249305507,19.1386656490297
0.000398085647706517,19.1486656490297
0.000447524765517516,19.1586423866662
0.000504065270891838,19.1678950684738
0.000568322626453193,19.1764505479484
0.000641231612035292,19.1843603852937
0.000723924690108906,19.1916734551708
0.000817711058056327,19.1984352108356
0.000924081500571479,19.204687949155
0.00104472701535023,19.2104710642235
0.0011815637267906,19.2158212594493
0.00133676240846851,19.2207727281327
0.00151278080142322,19.2253573299283
0.00171240358923618,19.2296047615668
0.00193878748685755,19.2335427175208
0.00219551656899862,19.2371970366865
0.00248666881420243,19.2405918518018
0.00281689870300072,19.2437497460613
0.00319154273405068,19.2466919124963
0.00361675404784205,19.2494383222813
0.00409968273931227,19.2520079181334
0.00464872314309235,19.2544188430488
0.00527386393996908,19.2566887267551
0.00598515049397609,19.2588294285347
0.00676955479870205,19.2607974463245
0.00763591945649053,19.2626247946117
0.00859759118812664,19.2643434128393
0.00967465790033466,19.2659860123642
0.0109008091208661,19.2675919480075
0.0123739584332201,19.2692550102074
0.0143641941259686,19.2711860425907
0.0161291168793263,19.2726980710689
0.0180447857543692,19.2742100995471
0.0198013599332181,19.2755381970352
0.0213400210115025,19.2767016387391
0.0227202381491312,19.2777886330422
0.0239559233765508,19.2788486238272
0.0250367919299045,19.2799191983137
0.0259348561614622,19.2810424864247
0.0265957480264607,19.2822861363447
0.0268901354492232,19.283821289415
0.0265460014378755,19.2855729002288
0.0255869748383536,19.2873245110426
0.024457854857822,19.2887556618787
0.0231812802748785,19.2901215875051
0.0217524987200191,19.2915153828928
0.0201795106450781,19.2929807388968
0.0184686054670051,19.2945563120837
0.0171133368734401,19.2958289822696
0.0158299711121871,19.2971016524556
0.013245394208003,19.2999351385877
0.0109106282865903,19.3029196660233
0.00909910169523266,19.305640097625
0.00766036436812039,19.3081622496171
0.00643831872295669,19.3106572296189
0.00537079405769698,19.3132056963429
0.0044548832416107,19.3157744935597
0.00369087995917366,19.3182938243779
0.00303519792511619,19.3208359635281
0.00244159677744834,19.3235601703809
0.00187605132423026,19.3266889860745
0.00156384620196822,19.3287283955082
0.00128953830077885,19.3307678049419
0.00106927771923612,19.3326196265985
0.000882526403212847,19.3343782504654
0.000713201556128487,19.3361591416567
0.000550301890493976,19.3380814220026
0.000380574035376883,19.3403625146266
0.000158972912597928,19.3439279371866
-2.59404987497745e-05,19.3476730870734
-0.000150828702195402,19.3508521537318
-0.000252321792716368,19.3540984790099
-0.000341102630116982,19.3578784620237
-0.000412342707000967,19.3627333494252
-0.000434007784718026,19.3678337461295
-0.000398901558437169,19.3723948401017
-0.000309178786613907,19.3765445519941
-0.000163673175555699,19.3803088177137
4.0567789774715e-05,19.3837321506731
0.000307659971946395,19.3868582551114
0.000643560226923694,19.3897362651837
0.00105657538740255,19.3924153921502
0.00155888721882358,19.394947094424
0.00216831656731503,19.3973844569589
0.00291537995668994,19.3997961912499
0.00385154126503282,19.4022675857381
0.00504232882294559,19.4048626648292
0.00649122616496148,19.4074938927042
0.00806038487396188,19.4099002848057
0.00963509466249368,19.411969868955
0.0112323945916584,19.4137871092143
0.0129319533215593,19.4154658116069
0.0147504404556837,19.4170236350316
0.0167540496553749,19.4185095037065
0.0189652150938938,19.4199254328237
0.0214254818308139,19.4212833831595
0.0241734194023528,19.4225889509737
0.0272467828409443,19.4238448763558
0.0306935647026712,19.4250560154423
0.0345595530899458,19.4262241174009
0.0389050662666382,19.4273534512311
0.0437960057261311,19.4284471467605
0.0493080434502425,19.4295082178319
0.0555339520963852,19.4305404708971
0.0625851554265075,19.4315478978533
0.0705964312583998,19.4325346825765
0.0797347931598609,19.4335055183197
0.0902099903585656,19.4344657100222
0.102296448581519,19.435421881995
0.116359843428706,19.4363822332078
0.132910618369473,19.4373577415526
0.152668419340799,19.4383625728212
0.175557234151206,19.4393698918529
0.20218712746512,19.4403906808739
0.233384893217874,19.4414406331818
0.270376094461225,19.4425450219892
0.312882250758929,19.4436911049415
0.352781308431288,19.4446979451275
0.386400257138068,19.4455288288182
0.415576501816368,19.4462650080177
0.441097296704344,19.4469504406852
0.463085861551678,19.4476118143708
0.481276671107855,19.4482705861665
0.495006007918694,19.4489489218699
0.502979357578228,19.4496760839311
0.502546263913637,19.450497364602
0.491238289546902,19.4513305073001
0.467883247159208,19.4521911270469
0.430959815311449,19.4530909433192
0.378757948049619,19.4540390882523
0.335968437537725,19.4546852107419
0.288209778014373,19.4553313332315
0.245408477290515,19.4558721798058
0.208609773703563,19.4563237933877
0.176209397899332,19.4567207890206
0.147138799280893,19.4570838169288
0.120754059813428,19.4574254694308
0.0966152863462151,19.4577547252271
0.0743688267541232,19.4580793497612
0.0536587925621273,19.4584080141651
0.0339706418801483,19.4587546010757
0.0139147753634218,19.4591584716449
0.00640158605826596,19.4593283881234
-0.000578414802618603,19.4594983046018
-0.00831052802974284,19.4597032709046
-0.0148506870445089,19.4598938042321
-0.0207136308539183,19.460081502658
-0.0266279834144977,19.4602914242331
-0.0323446894869364,19.4605198358514
-0.0377025286340783,19.4607643816604
-0.0426123002141245,19.4610241983757
-0.047027626967777,19.461299403381
-0.050921675349945,19.4615908077554
-0.0543252314594967,19.4619043851053
-0.0571238486325122,19.4622301844222
-0.0594118852525631,19.4625775035145
-0.0612031631723817,19.4629493687954
-0.0625116084731668,19.4633493908345
-0.063350567504045,19.4637820228413
-0.0637313167291519,19.4642528070292
-0.0636614410639829,19.4647687411359
-0.0631427363301162,19.4653389042038
-0.0621656417940328,19.465976787906
-0.060706257340788,19.4666997531519
-0.0587162351794608,19.4675338058818
-0.0560966092555772,19.4685230075495
-0.0526041948816974,19.4697629875269
-0.0485701688531014,19.4711568192938
-0.0446710522406367,19.472503278358
-0.0409559974489571,19.4738075993859
-0.0374484697540853,19.4750724395373
-0.0341600796131496,19.4762988682363
-0.031095487248985,19.4774871447782
-0.0282546455087914,19.478637130961
-0.0256340348593237,19.4797485079805
-0.0232274820738391,19.4808208881841
-0.0210267914343827,19.481853867831
-0.0190222766398134,19.482847044889
-0.0172032266371256,19.4838000147833
-0.0155583158596906,19.4847123511544
-0.0139866702799167,19.4856377519776
-0.0124755509106188,19.4865869879901
-0.0110291388696601,19.4875618732405
-0.00965130552325715,19.4885646178236
-0.00834570480305181,19.4895978225019
-0.00711572090106657,19.4906645773302
-0.00596441428592083,19.4917685916389
-0.00489446487422989,19.4929143701676
-0.00390811190875024,19.4941074576016
-0.00300708943902951,19.4953547879091
-0.00219255516204404,19.4966652006782
-0.00146500831302039,19.4980502364536
-0.000824188209380808,19.4995254262842
-0.000268936155486658,19.5011125243298
0.000181717802941217,19.5027546053641
0.000538371353607677,19.5044494986829
0.000816794154432214,19.5062157381897
0.00103151587481714,19.50807657819
0.00119638608483322,19.5100636319255
0.00132511265084952,19.5122228305511
0.00143216089996755,19.5146273871225
0.00153476440701989,19.5174120902157
0.00165989229498687,19.5209035673412
0.00181018144925939,19.5246772288649
0.00199465134599343,19.5287028889311
0.00219418659581514,19.5326020758724
0.0024059059311793,19.5364608507781
0.00262741320879706,19.5403398361737
0.00285749002644309,19.5442833383068
0.00309626003231468,19.5483278146099
0.00334505496270993,19.5525061733169
0.00360621205518262,19.5568502212333
0.00388290040117372,19.5613923580308
0.00417905125991285,19.5661670913657
0.00449946340989019,19.5712124184868
0.00485017966576308,19.5765711190214
0.00521399775954363,19.581924137798
0.00558863067290514,19.5871978434138
0.0059770270289528,19.5923925993286
0.00638199061304262,19.5975014215237
0.00680770039254146,19.602531489174
0.00725871497073389,19.6074897523086
0.00774001753128148,19.6123827869079
0.00825693238814276,19.6172149551755
0.00881520976248095,19.6219885213972
0.00942111947084648,19.6267038289132
0.0100815810420106,19.6313598292881
0.0108111144589592,19.6359959349081
0.0116309990822265,19.6406656327576
0.0125581148693519,19.6453687275734
0.0136175372028603,19.6501269541393
0.0148464471974182,19.6549864315687
0.0163111851213794,19.6600598050471
0.0181743403179412,19.665683192598
0.020595517087645,19.6720748435734
0.0221478522996178,19.6758613564822
0.0237301674430835,19.6796478693911
0.0251081030288402,19.683044040264
0.0262700887014102,19.6861676104029
0.0272266087554374,19.6891847250482
0.0279257436167551,19.6920630908833
0.0283588025897397,19.6948751465482
0.0285121815721102,19.6977528591896
0.0283276749194904,19.7009064379169
0.0275499526877192,19.7050442702316
0.0266942624496838,19.707925067954
0.0256317273855675,19.7108058656764
0.0245560153629151,19.7133612138218
0.0234826285693683,19.7157202349337
0.0224083108932127,19.7179747886764
0.0213347156393679,19.7201716829021
0.0202652641661279,19.7223385785267
0.0192036678524365,19.7244941734112
0.0181535034091374,19.7266523188327
0.0171180964629036,19.7288239903916
0.0161004938569163,19.7310183720411
0.0151034653200354,19.7332435109124
0.0141295146911785,19.7355067438889
0.0131808889910644,19.7378150061782
0.0122595919306331,19.7401750553109
0.0113673935066281,19.7425936591044
0.0105058358536585,19.7450777696856
0.00967625038439963,19.7476346548361
0.00887975872140537,19.7502720746431
0.00810991557378631,19.7530258781329
0.00735418417322627,19.7559666233995
0.00661642077733861,19.7591159203048
0.00590047704603523,19.7624995590301
0.00521039597683266,19.7661473704568
0.00455036707385967,19.7700939808846
0.00392463694072926,19.7743798848126
0.00333736876911765,19.7790530748894
0.00279243801168758,19.7841717922235
0.00229313458765277,19.7898098745712
0.00184196665174541,19.796064851913
0.00144437475805915,19.8029957706441
0.0011719096295271,19.8089527010658
0.000960514390811803,19.8149096314875
0.000759192617498634,19.8225750947756
0.000598591083836672,19.830881370169
0.000467903508932399,19.8401734887419
0.000369872467631153,19.8501734887419
0.000304133372908623,19.8601734887419
0.000261572890954672,19.8701734887419
0.000235543615484396,19.8801734887419
0.000221318264303063,19.8901734887419
0.00021566787707776,19.9001734887419
0.00021647073707117,19.9101734887419
0.000222389983883513,19.9201734887419
0.000232644143879975,19.9301734887419
0.000246862509727309,19.9401734887419
0.000265004515021947,19.9501734887419
0.000287325626056149,19.9601734887419
0.00031438131555295,19.9701734887419
0.0003470698598483,19.9801734887419
0.000386356702410174,19.9900867443709
0.00043435701684052,20
