ecg,time
0.000155234429512043,15.0022194037837
0.000160621805334957,15.0122194037837
0.000167400972621292,15.0222194037837
0.000175519206456005,15.0322194037837
0.000185005685607458,15.0422194037837
0.000195961241971611,15.0522194037837
0.000208555559885631,15.0622194037837
0.000223031157079104,15.0722194037837
0.000239714334952121,15.0822194037837
0.00025903427422332,15.0922194037837
0.000281552731987058,15.1022194037837
0.000308008648651951,15.1122194037837
0.000339384895320468,15.1222194037837
0.000377009288160673,15.1322194037837
0.000422710585376321,15.1422194037837
0.00047710364565087,15.1519007551251
0.000539226636750887,15.1608530847705
0.000609985212690949,15.1691155629489
0.00069053841462664,15.1767411530604
0.00078222442306333,15.1837796794494
0.000886564771943171,15.1902774467907
0.00100528292261829,15.1962774835544
0.00114032952828874,15.2018197790645
0.0012939126916537,15.2069414938597
0.00146853209987643,15.2116771578825
0.00166701922731472,15.2160588632048
0.00189258447379299,15.2201164511144
0.00214887439745464,15.2238776891992
0.00244004032815942,15.2273684451864
0.00277082534602419,15.2306128662809
0.00314667398865225,15.2336335660556
0.00357387542901226,15.2364518218428
0.00405975573528151,15.2390877979091
0.00461294371479929,15.2415608124729
0.00524375360898528,15.2438896760326
0.00595832753402425,15.2460752172451
0.00674772055689768,15.2480883228043
0.00762187255612942,15.2499629278009
0.00859583837803266,15.2517331646642
0.00969312009534165,15.2534355963288
0.0109554761215619,15.2551178617357
0.0125144954355242,15.2569072969111
0.0148262523726499,15.2591761710923
0.0164488380519806,15.2605966141506
0.0181679515862968,15.2620170572088
0.0197386649874531,15.2632882676181
0.0211383568067451,15.264443740501
0.0223942649205952,15.265546393329
0.0235063142844943,15.2666383335079
0.0244562732708548,15.267758074899
0.0252068581857472,15.2689560984828
0.0256829227422488,15.2703285398949
0.0256487723963532,15.2722163618136
0.0250564434172458,15.2737956408751
0.0240501013010091,15.2753749199366
0.0228913197910136,15.2767848761972
0.0215854780661902,15.278175693289
0.0201389174142321,15.2796082038098
0.0185608646175169,15.2811209935577
0.0173617482065541,15.2822665806626
0.0161910624921522,15.2834121677676
0.015000249781088,15.2846408175211
0.0125124639533397,15.2874765794981
0.0103186983797988,15.2903865204662
0.00859723971373956,15.2930575044889
0.0072155454560961,15.2955507715854
0.00601826141521498,15.2980610262521
0.00496823718008166,15.3006315876744
0.00404507774565879,15.3032865008409
0.00323280962243801,15.3060488820206
0.00258034159073292,15.3086699930361
0.0020510627379093,15.3111572985207
0.00161172567576602,15.3135511239477
0.00123731230705019,15.3159007010944
0.000908551234481077,15.3182674320287
0.000608255510787076,15.3207469184565
0.000310400923575169,15.3235898693409
0.00010307487391639,15.3258522386735
-8.21813252220185e-05,15.3281146080062
-0.00022541444400425,15.3300466989732
-0.000343510870348729,15.3317766919001
-0.000450100207671773,15.3334564007351
-0.000552704959718927,15.3351895178099
-0.00065832137358914,15.3371029762138
-0.000779692520476926,15.3394778739802
-0.000988896087668073,15.3440563218449
-0.00115831007151868,15.3482676414899
-0.00128794632999306,15.3518338221907
-0.00141418147446921,15.3556346085116
-0.00155862497271295,15.3604884144041
-0.00169457985558364,15.3659415862733
-0.00177860233725558,15.3707217783035
-0.00180810944477563,15.3750363930544
-0.00177453082529985,15.3789102564385
-0.00167024270352391,15.3823967584156
-0.00148782079237865,15.385564812297
-0.00121891202341915,15.3884832421984
-0.000852900569789379,15.3912169838404
-0.000374969222638997,15.3938283250039
0.000240124808062115,15.3963933424576
0.00104117529425059,15.3990216861319
0.00215053599296684,15.401942637052
0.00360120159383742,15.4050759201928
0.00539682842068138,15.4083392634172
0.00668252026862028,15.4103862078832
0.00811668757194882,15.4124331523492
0.00959728645381935,15.4143116546527
0.011160595084389,15.4160647469866
0.0127906920497328,15.4176715850689
0.0145820184513654,15.419216591855
0.0165453044556137,15.4206902321689
0.0187235821540343,15.4221077634545
0.0211510033760634,15.4234732197763
0.0238549936958219,15.4247855152405
0.0268781178028399,15.4260500496446
0.0302591299644003,15.4272682474293
0.0340431335707306,15.4284424998546
0.0382859700812182,15.4295766002538
0.0430494776590809,15.4306735923529
0.048406128426897,15.431736723316
0.0544404670330409,15.4327692427202
0.0612573053224376,15.4337752217255
0.0689813968932593,15.4347586445938
0.0777657188474055,15.4357238689909
0.0878010879940673,15.4366757974609
0.0993297376762198,15.4376200755993
0.112669584003669,15.4385636674548
0.128249713343332,15.4395154010059
0.146677530141054,15.4404873120096
0.168410371535497,15.4414777459157
0.193606986813614,15.4424740545256
0.222960363738944,15.4434880012337
0.257423886389938,15.4445368645848
0.298491084683267,15.4456510295656
0.334365574313567,15.4465456709551
0.372000532775958,15.4474403123445
0.4053165804672,15.4482230552714
0.434376208937888,15.4489255446712
0.459771804327694,15.4495850256851
0.481575417301871,15.4502270215703
0.499452584283076,15.4508733538181
0.512607862103993,15.4515484317811
0.519431585493869,15.4522882594876
0.516881095011619,15.4530989274785
0.502995287242478,15.45392859057
0.476451196675419,15.4547930082413
0.435547565006372,15.455703631295
0.378406017356706,15.4566691888327
0.334903963494058,15.457289310983
0.286983171116492,15.4579094331332
0.24418875699303,15.4584316121148
0.207342182791292,15.4588710507486
0.174873427944931,15.4592594418538
0.145736496685694,15.4596159998983
0.119291355960673,15.4599526865644
0.0950934753157944,15.460278238253
0.0727771195804164,15.4606004738461
0.0519581659708724,15.4609285985613
0.0320339170998096,15.461278616583
0.0110578184256967,15.461704393182
0.000874734272848269,15.4619422194492
-0.00641469598321098,15.4621298446597
-0.0130758468926177,15.4623174698702
-0.0189527808084869,15.4624990660709
-0.024933792664076,15.462703450519
-0.0307498967928669,15.4629266539072
-0.0362241775791265,15.4631660794995
-0.0412579481258119,15.4634206991818
-0.0457991667453945,15.4636905108541
-0.0498236848102687,15.4639762290342
-0.0533165734044419,15.4642791329911
-0.0562508362665879,15.4645981962121
-0.0586679588087379,15.4649380789463
-0.0605826764453199,15.4653017807963
-0.0620091777608048,15.4656927735899
-0.0629613468417749,15.4661153382539
-0.0634512612545509,15.4665747982269
-0.0634875849565659,15.4670778641543
-0.0630736050288215,15.4676331642296
-0.06220239864822,15.4682533456002
-0.0608529193151891,15.4689550026986
-0.0589817612717425,15.4697624024272
-0.0565005458179924,15.4707157456919
-0.0532005625656958,15.4718980643986
-0.0491345613119332,15.4733063830761
-0.0451884207506996,15.4746656549844
-0.0414173699734663,15.4759826311356
-0.0378488426410172,15.4772602694819
-0.0344967669767303,15.4784997632173
-0.0313674133158818,15.4797014099283
-0.0284619768850036,15.4808650676652
-0.0257779363375074,15.4819903948618
-0.0233099197699809,15.4830769748786
-0.021050356351797,15.4841243763956
-0.0189900212975212,15.4851321761634
-0.0171185141355146,15.4860999582813
-0.0154246829057341,15.4870272977602
-0.0138462951934728,15.4879440833827
-0.0123268091657757,15.4888842904903
-0.0108708387473517,15.489849422756
-0.00948233596141436,15.4908415667136
-0.00816506099055123,15.4918631680601
-0.00692252874608941,15.4929171227635
-0.00575795705735717,15.4940068938881
-0.00467421249283795,15.4951366686658
-0.00367375374122142,15.4963115745415
-0.00275857204190608,15.4975379844259
-0.00193012745392532,15.498823961944
-0.00118927851342564,15.5001799362775
-0.000536200510042625,15.5016197744259
2.97171544584389e-05,15.5031625896885
0.000498402379618007,15.5047898125567
0.000866369304625558,15.5064629391188
0.00115009398335518,15.5082002689621
0.00136424100700746,15.5100228107952
0.00152258273249416,15.511958587614
0.00163841993103774,15.5140472268756
0.00172521573169818,15.516349512317
0.00179781081462237,15.5189705875645
0.00187582460880987,15.522134650667
0.00197850880265461,15.5258702930891
0.00211089129906299,15.5298175576729
0.0022624249759598,15.5336419082456
0.00242983440637176,15.5374266703105
0.00260971799322106,15.5412305373043
0.0027997274943401,15.5450964876945
0.00299889596704724,15.5490598905199
0.00320756027174296,15.5531526351717
0.00342716069499249,15.5574055255319
0.00366003166972373,15.5618499324453
0.00390925255874922,15.5665191624497
0.00417864354620763,15.5714499141252
0.00447298295754965,15.5766835845828
0.00479855431171521,15.5822676509586
0.00512971395728944,15.5876999019752
0.00547397006524129,15.5930681158528
0.00583131608588843,15.5983257462996
0.00620597793974761,15.6034910542799
0.00660169312328359,15.6085702904171
0.007022813769252,15.6135738489972
0.00747381938774231,15.6185084261921
0.00795950003841993,15.6233785420384
0.00848501080797029,15.6281862705822
0.0090559984921585,15.632931785593
0.00967871140939183,15.6376137258531
0.0103601152767869,15.642229686292
0.0111204836577643,15.6468488050278
0.0119774649327534,15.6514905510009
0.0129505024953441,15.6561620710862
0.0140672332287127,15.6608875826334
0.0153706182361283,15.6657234063088
0.0169424588661385,15.6708120998786
0.019012828173193,15.6766279118222
0.0208705392515308,15.6812753527624
0.0228597307864733,15.6859227937026
0.0244907917769534,15.6896780446365
0.0258399480187893,15.6929198253264
0.0269739069725125,15.6959371249281
0.0278929955075865,15.6988670551804
0.0285404106816191,15.7016473947562
0.028919990326383,15.7043948432283
0.0290105105245915,15.7072483532615
0.0287319886336155,15.7104622652151
0.0277661220385589,15.7147808897314
0.0268859125522395,15.7174342792554
0.0258349241484748,15.7200876687793
0.0247675286178839,15.7224970304632
0.023697973510916,15.7247532641373
0.0226264178500238,15.7269243685296
0.0215555625624973,15.7290478576067
0.0204890554458571,15.731147065032
0.0194306010062922,15.7332382465744
0.018383695943081,15.7353336802822
0.0173515588340769,15.7374432324762
0.0163371214078967,15.7395752432822
0.0153430369160623,15.7417370778185
0.0143716924702743,15.7439354970823
0.013425224900428,15.7461769176337
0.0125055290070949,15.748467625612
0.0116142713470034,15.7508139408754
0.0107529006567215,15.7532223679047
0.00992265533333855,15.7556997472958
0.00912330403591889,15.758257617244
0.00833379665969032,15.7609835922353
0.00755791995590665,15.763896599556
0.00679941128016623,15.7670195519845
0.00606226183464767,15.7703789464876
0.00535069473033926,15.7740055390168
0.00466911969817047,15.7779351881359
0.00402205653636558,15.7822099449451
0.0034140036415334,15.7868796546659
0.00284918798334569,15.792005052306
0.00233127108243702,15.7976631338074
0.00186304467710929,15.8039567608978
0.00145881090469546,15.8107903846941
0.00112371156691456,15.8181506325293
0.00091826835201013,15.8242840897491
0.000708307936619096,15.8325431382341
0.000539948757988441,15.8415828522704
0.000407379585835848,15.8515828522704
0.000315793431020015,15.8615828522704
0.000253344580851134,15.8715828522704
0.000211426740000305,15.8815828522704
0.000183828728791224,15.8915828522704
0.000166193253753606,15.9015828522704
0.000155538276393327,15.9115828522704
0.000149848093221059,15.9215828522704
0.000147764288221047,15.9315828522704
0.000148373822942466,15.9415828522704
0.000151070690125844,15.9515828522704
0.000155466029569609,15.9615828522704
0.000161328687215012,15.9715828522704
0.000168545509485928,15.9815828522704
0.000177095406301278,15.9915828522704
0.000187033735837889,16.0015828522704
0.000198484907229295,16.0115828522704
0.000211642006272445,16.0215828522704
0.000226773068802569,16.0315828522704
0.000244234500947727,16.0415828522704
0.00026449319275584,16.0515828522704
0.000288160281301541,16.0615828522704
0.000316041625207823,16.0715828522704
0.0003492134475662,16.0815828522704
0.000389137380692125,16.0915828522704
0.000437839410236666,16.1015828522704
0.000494646065105589,16.1110452647158
0.000559445987585625,16.1197864675642
0.000633236243126522,16.1278534918961
0.000717233206806395,16.135298569722
0.000812832192676344,16.1421705275963
0.000921616898495305,16.1485147299897
0.00104538060061197,16.1543733284188
0.00118615300437841,16.159785492434
0.00134623204500313,16.1647876153783
0.00152821930319776,16.1694135124652
0.00173506292112752,16.1736946133332
0.00197010709550812,16.1776601476822
0.0022371532410942,16.1813373207918
0.00254053368611965,16.1847514894364
0.00288520519337553,16.1879263446491
0.00327686882421788,16.1908841020276
0.00372212663143392,16.1936457064842
0.0042286949821805,16.1962310686619
0.0048057031674057,16.1986593525914
0.00546412880231629,16.2009493499389
0.00620190688851092,16.20307904678
0.00701734456985304,16.2050472042087
0.00792187980305801,16.2068878757194
0.00893279709479661,16.2086355693181
0.0100780996894674,16.2103293349354
0.0114106803066681,16.2120249340282
0.0131308885367041,16.2139092530762
0.0150413176191015,16.2157346360725
0.0166741979985863,16.217154202484
0.0183953698696695,16.2185737688955
0.0199333639022929,16.2198240878717
0.0213059311002835,16.2209696800288
0.0225364046366773,16.2220699304884
0.0236213820554325,16.2231654058895
0.0245399819762655,16.2242954197032
0.0252509366066856,16.2255144561021
0.0256683338252635,16.2269337389575
0.0254721755463473,16.2290296561914
0.0247888685071898,16.2305434805946
0.0237510101437467,16.2320573049979
0.0225617347410385,16.2334551399225
0.0212256996915943,16.2348524186837
0.0197515273305963,16.2363004625082
0.0181480402353008,16.2378367262418
0.0171326108245012,16.2388104877913
0.0161426621265494,16.2397842493407
0.0142222501228745,16.2418091785323
0.0116927176726862,16.2448361946008
0.00967073741344546,16.2476709255375
0.00808182251690111,16.2502723144551
0.00677359229527615,16.2527616113956
0.00563133039191495,16.255290603235
0.00462835730684021,16.257888849828
0.00374619759967365,16.2605796236519
0.00300247080991318,16.263258610852
0.00240358836328241,16.2657926733792
0.00191179239793218,16.2682143174671
0.00149803004184545,16.2705673739858
0.00113988493900304,16.2729077706327
0.00081837965391081,16.2753179725019
0.000511060521798273,16.2779730478813
0.000255688485736416,16.2805119304894
7.54581899820805e-05,16.2825287909467
-8.76385763359788e-05,16.2845456514039
-0.000219890809960322,16.2863356234506
-0.000335012873813283,16.2880213116702
-0.000442496858993261,16.2897143067438
-0.000549274885756976,16.2915215572737
-0.000664361252360723,16.2936228320449
-0.000815084420080759,16.2966401526596
-0.000983177825681236,16.3004005550904
-0.00110973908066272,16.3035401074593
-0.00122339367153669,16.3066113148746
-0.0013425086235553,16.3101195832865
-0.00147804840023556,16.3145527280947
-0.00162524787829029,16.3202166731486
-0.00171831680429822,16.3250957863218
-0.00175941476237896,16.32951813916
-0.00174010836398655,16.3334889790378
-0.00165287023960533,16.3370601065822
-0.00149042672865547,16.3402957787843
-0.00124504693193694,16.3432615120677
-0.000906954136411743,16.3460240985082
-0.00046212662903215,16.3486500978303
0.000111494897513134,16.3512106756348
0.000857378173356494,16.3538118302104
0.00187700533410996,16.3566510020708
0.00324326544677922,16.359753225254
0.00495672648890544,16.3630085935558
0.00626540946702336,16.3651790924926
0.00772997748307693,16.3673495914294
0.00920496334044775,16.3692897710132
0.0107097381341965,16.3710409867738
0.0123141852245865,16.3726851996527
0.0140492106893589,16.3742417009326
0.0159574265556842,16.3757327185289
0.0180715383683642,16.3771653869731
0.0204239395679452,16.3785437358775
0.0230468572749372,16.3798698626636
0.0259786018588547,16.3811473532063
0.0292539936230725,16.3823766816297
0.0329215904993886,16.3835621577481
0.037032468727005,16.3847065404824
0.0416455730926342,16.3858127823465
0.0468282386468297,16.3868837456825
0.0526647542754929,16.3879234339234
0.0592529488602957,16.3889354801609
0.066710689507651,16.3899237620826
0.0751819242593382,16.3908925001945
0.0848442861749642,16.391846309705
0.0959240268300373,16.3927906676494
0.108713456460533,16.3937320389479
0.123602629166511,16.3946785048309
0.141134291786849,16.3956408237035
0.161997673784011,16.3966295850449
0.186158118817969,16.3976211851542
0.214252180918879,16.3986261650072
0.247136345436085,16.3996595369591
0.286080751745459,16.4007458994212
0.331247428269357,16.4018848299273
0.371751427299498,16.402844399871
0.405555700813945,16.4036334159906
0.434842348126769,16.4043357135165
0.460434901562973,16.4049938800002
0.482436485075799,16.4056340063438
0.500527502014292,16.4062780101097
0.513928694846339,16.4069502596816
0.521056827221308,16.4076865908589
0.51887038885687,16.4084954761961
0.505354753451382,16.4093232286808
0.479192995689866,16.4101858371575
0.438677680995663,16.411094976775
0.381914620280688,16.4120593062368
0.338007521310549,16.412686969216
0.289515711146286,16.4133146321953
0.246256573969895,16.4138416322948
0.209090768736878,16.4142836539993
0.176387782973492,16.4146734564042
0.14706557597901,16.4150307784209
0.120467025958992,16.4153678083661
0.0961392079928565,16.4156933746941
0.0737127658715842,16.416015302525
0.0528047588679798,16.4163426874009
0.0328264533950088,16.416691061633
0.0119505487914094,16.4171108168288
0.00118120763569696,16.4173601241579
-0.00615658018988893,16.4175478017592
-0.0128620751333346,16.4177354793604
-0.018730702093814,16.417915599417
-0.0247198808178156,16.4181187326478
-0.030554944034209,16.4183408332406
-0.0360541089303579,16.4185792181271
-0.0411157710103904,16.418832802887
-0.0456861557591676,16.4191015470025
-0.0497400702424613,16.4193861356791
-0.0532631807342656,16.4196878228793
-0.0562685116994494,16.4200106134379
-0.0587065764352719,16.4203494398297
-0.0606408716637258,16.4207119067174
-0.0620860875463091,16.4211015205036
-0.0630561754929556,16.4215225326259
-0.0635633227342055,16.4219802278962
-0.0636163523973888,16.4224812657964
-0.0632187719805868,16.4230342039676
-0.0623640924766282,16.4236515246544
-0.0610317475333712,16.4243496893346
-0.0591791753634155,16.4251526528307
-0.0567198171961508,16.4260999331225
-0.0534507296131534,16.4272724214595
-0.0493775605633279,16.4286830790682
-0.0454218930269321,16.4300442860645
-0.0416398856754525,16.4313631339217
-0.0380596554713654,16.4326426420241
-0.034695513528696,16.4338840311428
-0.0315539877319656,16.4350876098456
-0.0286364677330677,16.4362532387639
-0.0259405868605025,16.437380574846
-0.0234610970014012,16.4384691982832
-0.0211905241860678,16.4395186742978
-0.019119715794553,16.4405285767768
-0.0172383208428157,16.4414984881565
-0.0155352163532179,16.4424279834458
-0.0139537462958355,16.4433435323686
-0.0124308999404212,16.4442824452078
-0.0109713535850819,16.4452461807509
-0.00957906770289923,16.4462368083332
-0.00825781403901168,16.4472567520796
-0.00701112183557534,16.4483088810161
-0.0058422261510553,16.4493966241169
-0.00475401379822988,16.4505241248124
-0.00374896686196891,16.4516964532311
-0.00282910331150378,16.4529199056128
-0.00199591354476837,16.4542024402296
-0.00125029050354508,16.4555543366022
-0.000592448764626798,16.4569892399971
-2.18234337033807e-05,16.458525916744
0.000452802639635526,16.4601511719107
0.000825747414123486,16.4618213560995
0.00111363055058696,16.4635547677818
0.00133117236142761,16.4653721205035
0.00149218194107811,16.4673009742493
0.00160996947199206,16.4693801593293
0.0016979630192491,16.4716689347045
0.00177087095268061,16.4742689934633
0.00184785631360089,16.4773938919852
0.00194945070215807,16.4811279131531
0.00208054137849654,16.4850792532312
0.00223117956612388,16.4889124033159
0.00239766235289942,16.4926984522937
0.00257655906139448,16.4964983246994
0.00276546954455254,16.5003561822944
0.00296336702351955,16.5043079689593
0.00317052629098775,16.5083858168712
0.00338832416481343,16.5126205651206
0.00361902838104707,16.5170434674625
0.00386564099233534,16.5216875661197
0.00413187917769078,16.526589147171
0.00442236766062561,16.5317890643399
0.00474314814429455,16.5373341251851
0.00507328688250633,16.5427991115411
0.00541486586991718,16.5481787793441
0.00576952609927239,16.5534545284659
0.00614078590041851,16.5586342605404
0.00653251590610026,16.5637270258225
0.00694896210338592,16.5687426983819
0.00739456943790318,16.5736885818729
0.00787405681066615,16.5785694963682
0.00839249840553979,16.5833878491914
0.00895544134182778,16.5881440784022
0.00956901863947167,16.5928370399954
0.0102400614460701,16.5974644533195
0.0109854939501763,16.6020780606755
0.0118251588124799,16.6067163763421
0.0127770301458591,16.6113816389618
0.0138671945801062,16.616095394433
0.0151350649839443,16.6209062122959
0.0166526314633368,16.6259347643514
0.0186046512618807,16.6315538396123
0.0210813666069389,16.637789310414
0.0226460649121768,16.6414416034576
0.024235247087093,16.6450938965011
0.0256196958272275,16.6483829135
0.0267895218306828,16.6514257031191
0.0277518982035934,16.6543781265904
0.0284459101059811,16.6571760857543
0.0288728546017107,16.659920356603
0.0290171127260619,16.6627427046511
0.0288145541036055,16.6658615537419
0.0279621816296807,16.6700958564082
0.0271025645363429,16.6728372997969
0.0260506322703928,16.6755787431856
0.0249821436171243,16.6780352842755
0.0239129841711043,16.6803158283188
0.0228416728485412,16.6825004698486
0.0217703979094772,16.6846314204994
0.0207027145986864,16.6867341069601
0.0196423479152114,16.6888258871052
0.0185928451752331,16.690919684389
0.0175574824323095,16.693025766666
0.0165392488170886,16.6951527309087
0.0155408521693066,16.6973081075098
0.0145647319993469,16.6994987578116
0.0136130744109736,16.701731152872
0.0126878210896081,16.7040115963023
0.0117906845662748,16.7063463908081
0.0109231563044959,16.7087419980395
0.0100865143609101,16.7112051914289
0.00928184191457417,16.7137431770171
0.00849010223109776,16.7164341598419
0.00771122784554764,16.7193081472063
0.00694895392312116,16.7223872442626
0.00620722207616588,16.7256971837294
0.00549021240261419,16.7292678079073
0.00480229893990211,16.733133898593
0.00414798977170196,16.7373361586226
0.00353180253381222,16.7419227041296
0.0029580401424779,16.7469517758412
0.00243050663793681,16.7524964899144
0.00195217799082717,16.7586536324197
0.00153410438353294,16.7653925757567
0.00126816970526265,16.7706951897068
0.0010568230773975,16.7759978036569
0.000833359538293853,16.7833466487974
0.000643215472437471,16.7917396146342
0.000490608429440947,16.8009489236305
0.000373362859679157,16.8109489236305
0.000292715861476134,16.8209489236305
0.000238025263426849,16.8309489236305
0.000201543888148589,16.8409489236305
0.000177735389842275,16.8509489236305
0.000162755807914429,16.8609489236305
0.000153989996930723,16.8709489236306
0.000149673132976417,16.8809489236306
0.000148616170364571,16.8909489236306
0.000150021997590635,16.9009489236306
0.000153366109953072,16.9109489236306
0.00015831863728398,16.9209489236306
0.000164692455243142,16.9309489236306
0.000172408631108993,16.9409489236306
0.000181474304034718,16.9509489236306
0.00019197009520137,16.9609489236306
0.000204045278914762,16.9709489236306
0.000217919807281945,16.9809489236306
0.000233893117463389,16.9909489236306
0.000252360582050237,17.0009489236306
0.000273839627240597,17.0109489236306
0.000299009176596946,17.0209489236306
0.000328768596771554,17.0309489236306
0.000364326474065463,17.0409489236306
0.000407336739723534,17.0509489236306
0.000459607129006614,17.0608611414035
0.00051938344485059,17.0700355050756
0.000587486106544192,17.0785030087541
0.000665020766576969,17.086317519536
0.000753273892455239,17.0935300241979
0.000853711620932183,17.1001879089714
0.000967995343601817,17.1063352007984
0.00109800556960592,17.1120128138995
0.00124587077656447,17.1172587687834
0.00141400068028436,17.1221083926086
0.00160512398574699,17.1265945142445
0.00182233389710279,17.1307476540104
0.00206914162105099,17.1345962043074
0.00234954149440167,17.138166603399
0.00266809206965564,17.1414835130548
0.00303001795347282,17.1445700037258
0.003441342465354,17.1474477480593
0.00390906306435419,17.1501372350797
0.00444139223404906,17.1526580227418
0.00504810042256853,17.1550290516674
0.00574102461749571,17.1572690674318
0.00650772814538913,17.1593306520647
0.00735582457051322,17.161243644854
0.00829874942748289,17.1630422762528
0.00935696560580915,17.1647618946006
0.0105652780091314,17.1664455810506
0.0120122601059065,17.1681819713561
0.0139999098391611,17.1702301467239
0.0156999075687241,17.1717797570454
0.017536117031935,17.1733293673668
0.019191880817948,17.1746753742002
0.0206466301025437,17.1758645014401
0.0219506529278103,17.1769810767207
0.0231132793785453,17.1780732725002
0.0241221678524002,17.179179225747
0.0249476340414456,17.1803430543457
0.0255322279279217,17.1816377893403
0.025733842900088,17.1832577822991
0.0253156242583104,17.1850111259215
0.0243397281622462,17.1867644695438
0.0232135543717715,17.1882149491443
0.0219484352983381,17.1896049254662
0.0205413326165168,17.1910219849462
0.0190006856791745,17.1925086776875
0.0173330371566243,17.1941031137302
0.015570201200866,17.1958541846229
0.0139759481190413,17.1975699870991
0.0115457736716336,17.2005131356813
0.00956354717789088,17.2033193070054
0.00799657509020454,17.2059079132727
0.00669933425983762,17.2083983677664
0.0055660959528185,17.2109306211047
0.004570899683516,17.2135335574475
0.0036955330803273,17.2162303953507
0.00295516918248191,17.2189258609604
0.00235999800407087,17.221473387364
0.00187197153390452,17.2239057420706
0.00146187710545183,17.2262671821856
0.00110752622956786,17.2286120051818
0.000790680333177047,17.2310162253802
0.000491313185580787,17.2336294405889
0.000150658297804949,17.237128451629
-1.19217602910856e-05,17.2390479080423
-0.000160106684368712,17.2409673644557
-0.00028486018517176,17.2427265906996
-0.000395393322696211,17.244407920111
-0.000499943005824155,17.246115229356
-0.000605303476035605,17.2479615809947
-0.00072158764470371,17.250159117947
-0.000889028653623892,17.25364668367
-0.00104332431863855,17.2572344762168
-0.00116279325404207,17.2602855784438
-0.00127580713773613,17.2634143585543
-0.00139724654052204,17.2670748329368
-0.00153834295901477,17.2718190013544
-0.00167489050056951,17.2772996355282
-0.00175896969635063,17.28208643862
-0.00178889857166085,17.2864109103173
-0.00175624860817861,17.2902905221893
-0.00165340804254051,17.2937858104038
-0.00147312796650813,17.296958345547
-0.00120728152116799,17.2998770865025
-0.000844967471608626,17.3026110716269
-0.000370822025110844,17.3052246751499
0.000238705053548922,17.3077863784156
0.00103058244110349,17.3104039266268
0.00213375904956687,17.3133280625402
0.00357597806852776,17.3164610935223
0.00536393254254412,17.3197276128023
0.00666385411726296,17.3218061049137
0.00811581335869596,17.3238845970251
0.00961138425088666,17.3257851946469
0.0111356985383857,17.3274972100269
0.0127804420692104,17.3291220240291
0.0145599601154764,17.3306589806912
0.0165252035963993,17.3321359186107
0.0187015205928095,17.3335533445069
0.0211272866128651,17.3349187390155
0.0238302634587954,17.3362311954987
0.0268522339698204,17.3374957439212
0.030231938488617,17.3387138684897
0.0340146054906442,17.3398880401119
0.0382558410153542,17.341022003799
0.0430174132278956,17.3421188145207
0.0483714234818628,17.343181670646
0.0544028927476114,17.3442139386628
0.0612162257548251,17.3452196304249
0.0689359573914783,17.3462027215567
0.0777147622682435,17.3471675587594
0.0877430080989466,17.348119028246
0.099262142707305,17.3490627441559
0.112589049238987,17.350005641948
0.128150805675944,17.3509564838092
0.146551130925666,17.3519271947692
0.168263579039814,17.3529169106785
0.1934340904554,17.3539122830116
0.222752363731342,17.3549249623795
0.257165411623768,17.3559720230002
0.298150871214014,17.3570833641604
0.334164187145218,17.357980428992
0.371974516908905,17.3588774938237
0.405406252131734,17.3596609014047
0.434553566028743,17.3603632428035
0.460028614624594,17.3610222074838
0.48191229469285,17.3616634614925
0.499876076822026,17.3623088619513
0.513131154144269,17.362982800015
0.520078788697532,17.3637212070017
0.517676752156202,17.3645311638034
0.503942216691014,17.3653600598658
0.477554713215393,17.3662237472146
0.436810566612713,17.3671337663682
0.379825207187058,17.368098814556
0.33616045152716,17.3687219845876
0.288010053042934,17.3693451546192
0.245028429333294,17.3698692872315
0.208053028190188,17.3703097762946
0.175489613200704,17.3706987435742
0.146277738477653,17.3710556149031
0.119770512262274,17.3713924434492
0.0955200375105381,17.3717180026782
0.073159143972503,17.3720401135068
0.0523042473632408,17.3723679352683
0.0323585209837427,17.3727172750477
0.011425984909419,17.3731405268887
0.00101159512622413,17.3733828641452
-0.00629911274490031,17.3735705307894
-0.0129797530482872,17.3737581974336
-0.0188528991947929,17.3739391563498
-0.0248373081857113,17.3741430028165
-0.0306615253625328,17.3743657339561
-0.0361465138551862,17.3746047150024
-0.0411923162668358,17.3748588930846
-0.0457461362465676,17.3751282492206
-0.0497833707207459,17.3754134850947
-0.0532893271272204,17.3757158689247
-0.0562532685610625,17.3760364363767
-0.058679639391364,17.3763758585497
-0.0606030338896918,17.3767390225257
-0.0620378428278689,17.3771294131244
-0.0629979791430329,17.3775512978883
-0.0634955687850747,17.3780099827211
-0.063539346896206,17.3785121549762
-0.0631327001930753,17.3790664106312
-0.0622689029850611,17.3796853219905
-0.0609271294137519,17.3803854220154
-0.0590643645966477,17.3811908338906
-0.0565930769028385,17.3821414428204
-0.0533072511746943,17.3833192856822
-0.0492382264118296,17.3847286352308
-0.0452880155257807,17.3860887543621
-0.0415122644530586,17.3874065453414
-0.0379387088853758,17.3886849946667
-0.0345814455898965,17.3899253085529
-0.0314468574691587,17.3911277899759
-0.0285362243185489,17.3922922984944
-0.0258470917695389,17.3934184921514
-0.023374141375612,17.394505953105
-0.021109844021803,17.3955542486568
-0.019045005944503,17.3965629544037
-0.0171692478970115,17.3975316537882
-0.0154714303038022,17.3984599218676
-0.0138917167631879,17.3993761755545
-0.0123707854260855,17.4003158258551
-0.0109132770109831,17.4012803571349
-0.00952314719827276,17.4022718485137
-0.00820416116121895,17.4032927363864
-0.00695983999306452,17.4043459051001
-0.00579340894870438,17.4054348030101
-0.00470774331703831,17.4065635984437
-0.00370531186075254,17.4077373940993
-0.00278811732503047,17.4089625297719
-0.00195763282521452,17.4102470235606
-0.00121473170185415,17.4116012399375
-0.000559606148394381,17.4130389499594
8.33476588011023e-06,17.4145791166496
0.000479570063440619,17.4162054879859
0.000849673730798005,17.417877342989
0.00113518320771615,17.4196129797962
0.00135078702284378,17.4214332793078
0.0015102732826244,17.4233660637558
0.00162694672350848,17.4254506144974
0.00171425519370071,17.4277470519503
0.00178698178262965,17.4303590137247
0.00186454604371666,17.4335060223686
0.00196675998903863,17.4372408538292
0.00209881758751672,17.441195914377
0.00224998835090549,17.4450235365807
0.0024170279196709,17.4488087194118
0.00259652599579145,17.4526110679915
0.00278611212197763,17.4564739907139
0.00298479411064871,17.4604330648238
0.00319288316841611,17.4645202675168
0.00341179383452948,17.4687664137546
0.00364383396896645,17.4732028298376
0.0038920525181498,17.4778627230135
0.00416022951038741,17.4827826382216
0.00445308368831724,17.4880037702296
0.004776805231426,17.4935733486258
0.00510754269636511,17.4990182342778
0.00545074150176901,17.5043910207112
0.00580701823080259,17.5096556674955
0.00618033306810207,17.5148265851573
0.00657447298152586,17.5199110786515
0.00699374939162698,17.524919358819
0.00744262727802598,17.5298583520884
0.00792586823389796,17.5347326945489
0.00844859496466453,17.5395445878552
0.00901641468720973,17.544294307709
0.00963553007341892,17.5489805762575
0.010312853566404,17.5536010344459
0.0110673303675371,17.5582179934665
0.0119174744896108,17.5628583647157
0.0128821452977047,17.5675273667696
0.0139883505666582,17.5722481126073
0.0152776013136968,17.5770737482444
0.0168276220892499,17.5821377338447
0.018848914176435,17.5878704893737
0.0207473896213376,17.5926535120232
0.0223600116546415,17.5964473147657
0.024011393441162,17.6002411175082
0.0254325361780249,17.6035894624442
0.0266326314131075,17.6066576470288
0.0276258921215126,17.6096149754842
0.0283597926617059,17.612430152689
0.0288269291140355,17.6151747319949
0.0290157914278897,17.6179752019618
0.028873096650297,17.6210266690796
0.0281762597359688,17.624939893918
0.0273417503975391,17.6278056093304
0.0262846716108977,17.6306713247427
0.0252133158236317,17.6331891379481
0.0241443114109454,17.6354995067877
0.0230733314475723,17.6377004384698
0.0220017467253487,17.6398404320508
0.020932955186817,17.641947536503
0.0198706890168648,17.644040444239
0.0188185460127101,17.6461328449003
0.0177798635398583,17.6482354765845
0.0167576921779238,17.6503572360259
0.0157547998928878,17.6525058428494
0.0147736826696776,17.6546882750836
0.0138165803075419,17.6569110662178
0.0128854868257958,17.6591805366624
0.0119821620631837,17.6615029764035
0.0111081455294542,17.6638847943396
0.0102647604059869,17.666332680726
0.00945313090719166,17.6688537315952
0.00865913897741295,17.6715078652611
0.00787718575907033,17.6743408473782
0.00711102185966624,17.6773738850072
0.00636453451559801,17.6806319180251
0.00564185479128736,17.6841438467665
0.00494732088096977,17.6879433089811
0.00428541975124468,17.692069633419
0.0036606801193312,17.6965691852048
0.00307747563414633,17.7014977040661
0.0025397463960572,17.7069245227648
0.00205066502720431,17.7129403960804
0.00161751989114009,17.7195822959926
0.00125216325459392,17.7267137105153
0.000972696455284174,17.7341390488319
0.000771456517195827,17.7414431685375
0.000588669447305349,17.7503275881444
0.000450111582715679,17.7596421812289
0.000345300133299908,17.7696421812289
0.00027345344421504,17.7796421812289
0.000224946535195871,17.7896421812289
0.000192772243526186,17.7996421812289
0.000171956772595363,17.8096421812289
0.000159069745224338,17.8196421812289
0.000151786313241077,17.8296421812289
0.000148539686832274,17.8396421812289
0.000148275432859494,17.8496421812289
0.000150289327945554,17.8596421812289
0.000154122441341146,17.8696421812289
0.000159492328618791,17.8796421812289
0.000166247131852927,17.8896421812289
0.00017433519783478,17.8996421812289
0.000183786058981164,17.9096421812289
0.000194700281835817,17.9196421812289
0.000207246691587308,17.9296421812289
0.000221666308082497,17.9396421812289
0.000238283173593285,17.9496421812289
0.00025752322717772,17.9596421812289
0.000279943640734848,17.9696421812289
0.000306276852754219,17.9796421812289
0.000337496403817944,17.9896421812289
0.000374916476635962,17.9996421812289
0.000420345449810932,18.0096421812289
0.000474571542240278,18.0193548273909
0.000536514802448362,18.0283369446042
0.000607070440610617,18.0366266576059
0.000687392303566619,18.0442771161569
0.000778813971251549,18.0513383550533
0.000882852244441197,18.0578568690987
0.00100122538433338,18.0638758582417
0.0011358782360887,18.0694354674562
0.00128901237993258,18.0745729991968
0.0014631202324261,18.0793231127815
0.00166102504446587,18.0837180183398
0.00188592796690571,18.0877876651513
0.00214146501830793,18.0915599198107
0.00243177544336765,18.0950607405732
0.00276158832999813,18.0983143571776
0.00313633175198213,18.1013434583609
0.00356227529590708,18.1041693895583
0.00404672121742874,18.1068123761065
0.00459826867607534,18.1092917901836
0.00522719396803865,18.1116264885739
0.00594019593546683,18.113818943401
0.00672787744499138,18.1158380806102
0.00760011679311571,18.1177179199394
0.0085718931157331,18.1194926967587
0.00966656658668907,18.1211990179266
0.010925575495321,18.1228844444993
0.0124778291182348,18.1246741635288
0.0147711970085589,18.1269356540246
0.0163928689841901,18.1283616355293
0.0181122699417718,18.129787617034
0.0196839646398153,18.1310634566197
0.0210839013841477,18.1322218416322
0.0223399825816541,18.1333264280606
0.0234525090391761,18.1344195790762
0.0244035473711001,18.1355397747585
0.0251562625830275,18.1367371237375
0.0256366588292641,18.1381063028924
0.025616470827036,18.1399767788221
0.0250327016455128,18.1415672794233
0.0240278723144986,18.1431577800245
0.022872004553878,18.1445708183307
0.0215698573973796,18.1459623155992
0.0201272755436064,18.1473944806006
0.0185534842108039,18.1489060660318
0.0173310051830513,18.1500758081219
0.0161382495715063,18.151245550212
0.0149290794050846,18.1524973588956
0.0124420802075837,18.1553447513377
0.0102642343559307,18.1582473871947
0.00855450342444431,18.1609122932248
0.00718095794252838,18.1634016851644
0.00598815916103173,18.1659134117278
0.00494189658921186,18.1684862818583
0.00402200499072273,18.1711441565607
0.00321889090739265,18.1738867910564
0.00257633920760249,18.1764745642139
0.00205303142586337,18.1789354485597
0.00161687469263379,18.1813103027766
0.00124346862415013,18.1836500651996
0.000913337880064161,18.186023086368
0.000607381845020157,18.1885495462743
0.000287835439619439,18.1916223062462
0.000100808295404679,18.1936804015173
-6.79940250980172e-05,18.1957384967884
-0.000205730409785426,18.1975814942644
-0.000323067713627516,18.1992833730294
-0.000430842239408026,18.2009655843962
-0.000536165523008548,18.2027306974071
-0.000646851816312116,18.204726903726
-0.000780779035270586,18.2073542838156
-0.000983540078536153,18.2118228353284
-0.00113532779796911,18.2156061034466
-0.00125747505537107,18.2189596273014
-0.00138155787840837,18.2226907936412
-0.00152432634228303,18.2274981588545
-0.00165981685183035,18.2329643118243
-0.00174321566884868,18.2377497190585
-0.00177267632195028,18.2420735118777
-0.00173988085886524,18.2459552409347
-0.00163728686432461,18.2494512715023
-0.00145773688795362,18.2526232040276
-0.00119298660181509,18.2555417756176
-0.000832227570563406,18.2582744551395
-0.000359918174699937,18.2608868926914
0.000250504094806817,18.2634586281865
0.00104571290663957,18.2660899473803
0.00215438591175624,18.2690287378014
0.00359870341152039,18.2721658954746
0.00538872559360501,18.2754363930256
0.00668268599649766,18.2775057557917
0.00812775161309834,18.2795751185579
0.00958555247043412,18.281429602467
0.0111323408980943,18.283169695639
0.012756037539104,18.2847756762535
0.0145365096165562,18.286316245689
0.0164971759623751,18.287792263534
0.0186701463203823,18.2892099601779
0.0210921340156457,18.2905755334364
0.0237910336726311,18.2918881694857
0.0268086807815513,18.293152934476
0.030183478285349,18.2943711936248
0.0339609202004248,18.2955455375258
0.0381963557330438,18.2966796460266
0.042951402069394,18.2977765629805
0.0482980446528994,18.2988394910589
0.0543209497752197,18.2998717637028
0.0611242876966243,18.3008773975191
0.0688322139972214,18.301860358951
0.0775968801440678,18.3028249812393
0.0876079106166651,18.3037761311022
0.0991056841094176,18.3047193958322
0.112405363761618,18.3056616639784
0.127931241864097,18.3066116251629
0.146282079833819,18.3075810768843
0.167951775222544,18.3085701626172
0.193069909866305,18.3095646383456
0.222321811339358,18.3105760272319
0.256646367575813,18.3116211695003
0.297501340148275,18.3127293910403
0.333680440219268,18.3136302151902
0.371703857068736,18.31453103934
0.405272433743954,18.3153158298846
0.434522536192255,18.3160184520234
0.460090663498618,18.3166771670784
0.482068737848729,18.3173178223249
0.50013609053056,18.3179623104101
0.513513458619151,18.318634966706
0.520619449450999,18.3193715294216
0.518417654161378,18.3201808003695
0.504892938169215,18.3210088460745
0.478730000364446,18.3218716227575
0.438225108871772,18.322780778869
0.381488861145389,18.3237449871774
0.337644586455821,18.3243720462028
0.28922923729089,18.3249991052281
0.246030254325,18.3255257503649
0.208906327946274,18.3259676159385
0.176234448712082,18.3263573625484
0.146936977429316,18.3267146811939
0.120358968180985,18.327051739756
0.0960486614060529,18.3273773580908
0.0736373642475547,18.3276993592863
0.052742447598491,18.3280268439666
0.0327748794256324,18.3283753689048
0.0119025474814509,18.3287954983287
0.00116850685987702,18.3290442400126
-0.00616561282195833,18.3292319888297
-0.0128676677658236,18.3294197376467
-0.018735661127057,18.3296000050762
-0.0247230378233543,18.3298032759099
-0.0305555746236111,18.3300255084912
-0.0360518493377393,18.3302640245164
-0.0411104776658964,18.3305177429412
-0.045677816376677,18.3307866257162
-0.0497287520879229,18.3310713601531
-0.0532487910617477,18.3313732021723
-0.0562439576598211,18.3316952880012
-0.0586805180279634,18.332034222737
-0.0606135146047314,18.3323968154728
-0.0620575451894595,18.3327865632185
-0.0630265520254963,18.3332077182131
-0.0635327133871955,18.3336655662733
-0.0635848436946828,18.3341667679608
-0.0631864429330041,18.3347198820374
-0.0623310105086451,18.3353373954092
-0.0609979790964408,18.3360357689378
-0.0591447938624769,18.3368389587612
-0.0566849207115121,18.3377864833087
-0.0534154936914158,18.3389592287233
-0.0493435285487008,18.3403697064454
-0.0453892217640297,18.3417307305786
-0.0416086767442469,18.3430493815479
-0.0380299651876658,18.3443286802442
-0.0346673685269926,18.3455698490009
-0.0315273909851717,18.3467731978781
-0.0286114023687652,18.3479385888838
-0.0259170190173502,18.349065680196
-0.0234389786592826,18.3501540530654
-0.0211697959139384,18.3512032735807
-0.0191003095351019,18.3522129162803
-0.0172201625654129,18.3531825640123
-0.0155182285034128,18.3541117919317
-0.0139371531019464,18.3550274969653
-0.0124147361222043,18.3559665729731
-0.0109556460910374,18.3569304843742
-0.00956384246472049,18.3579213026672
-0.00824309556814199,18.3589414546824
-0.00699693287384483,18.359993812818
-0.00582858729905274,18.3610818103082
-0.00474094313184061,18.3622095960504
-0.00373647953207689,18.3633822473194
-0.00281721112103522,18.3646060699051
-0.00198462449136685,18.3658890351893
-0.00123960826511494,18.3672414412964
-0.000582372081035326,18.3686769610201
-1.23452962781212e-05,18.3702144036974
0.000461526642481144,18.3718399044746
0.000833838835396409,18.3735104559272
0.00112119287603212,18.375244356322
0.00133830219793971,18.3770623558506
0.00149897143122668,18.3789920718404
0.00161650978650326,18.381072433105
0.00170435002956533,18.3833628864252
0.00177721751682882,18.3859655477198
0.00185433240422582,18.3890952638739
0.00195607282780678,18.3928294407931
0.00208746930925662,18.3967836133123
0.00223823391968799,18.4006148712624
0.00240487189582763,18.4044005854347
0.0025839581725394,18.4082012552891
0.00277309802076766,18.4120607849452
0.002971271812916,18.416014992571
0.00317876311538257,18.4200959567169
0.00339695919488367,18.4243345071002
0.0036281402452884,18.4287619208615
0.00387532405255637,18.4334112945131
0.0041422496610991,18.4383189999291
0.00443357467151018,18.4435260038296
0.00475539241851378,18.4490792540259
0.00508576764357314,18.454537074349
0.00542793911394053,18.4599141678645
0.00578319450834864,18.4651858948255
0.00615520526264447,18.470362413506
0.00654781356516372,18.4754521647132
0.00696528883039174,18.4804651380093
0.00741208378987845,18.4854085033086
0.00789293318869703,18.4902870151403
0.00841292917599402,18.4951030073833
0.00897764094873713,18.4998568595136
0.00959322700560006,18.5045473787184
0.0102665481168461,18.5091722550926
0.0110152602344704,18.5137870837101
0.0118587231101235,18.5184261369908
0.0128152308321899,18.5230927390618
0.0139111982465373,18.5278089865902
0.0151867824226306,18.5326250696783
0.0167159852087265,18.5376661450808
0.0186923661011864,18.5433247040701
0.0206342317020888,18.5482507061303
0.0222569020076466,18.5520797929044
0.0239233528283798,18.5559088796785
0.0253585123016444,18.5592805595087
0.0265703708203959,18.5623594635719
0.0275754761514109,18.5653194213527
0.0283247653736242,18.5681419588194
0.0288072760017574,18.5708874091997
0.0290129789627501,18.5736805768598
0.0288922484400997,18.5767090328318
0.0282449161823609,18.5805258939359
0.0274193130428919,18.5834403939215
0.0263592440854403,18.5863548939072
0.0252864355926705,18.5888952565965
0.0242174028816719,18.5912160851812
0.023146549750449,18.593422643794
0.0220749052626644,18.595565784487
0.0210058010664974,18.5976744878062
0.019942967847638,18.5997679081697
0.0188900184663833,18.6018599972305
0.0178503093955472,18.6039616534211
0.0168269109022063,18.6060818752517
0.0158226098160898,18.6082284480657
0.0148399201577579,18.6104083909493
0.0138810989959842,18.6126282604882
0.0129481563999765,18.6148943874812
0.0120428681242267,18.6172130595442
0.0111667882223588,18.6195906749094
0.0103212541948819,18.6220339025241
0.00950740363361025,18.6245498083835
0.00871273472217125,18.6271924533482
0.00792984413980865,18.6300126580596
0.00716248762057815,18.6330313507701
0.00641453483980676,18.6362732270995
0.00569010128386478,18.6397668951637
0.00499351228348588,18.6435456447495
0.00432924743991166,18.647648381553
0.00370183700710228,18.6521209398824
0.00311567396276948,18.6570183131554
0.00257473796841771,18.6624087185488
0.00208226278017156,18.6683811198451
0.00164429574880037,18.6749933223816
0.00127460823775062,18.682089304083
0.000975847558633231,18.6898992631676
0.000780624498351223,18.6969307585635
0.000596391543061368,18.7057637723488
0.000457260550603469,18.714961439999
0.000350317243061821,18.724961439999
0.000276947002185349,18.734961439999
0.000227369054688075,18.744961439999
0.000194453088581427,18.754961439999
0.0001731265184316,18.764961439999
0.000159885289878505,18.774961439999
0.000152353267369324,18.784961439999
0.000148929208411136,18.794961439999
0.000148535540486473,18.804961439999
0.000150452150852443,18.814961439999
0.000154208897040618,18.824961439999
0.000159515237810591,18.834961439999
0.000166213335095545,18.844961439999
0.000174246975298512,18.854961439999
0.000183642028138723,18.864961439999
0.000194495886089462,18.874961439999
0.000206974351445167,18.884961439999
0.000221315268443595,18.894961439999
0.000237839040860823,18.904961439999
0.000256967144463246,18.914961439999
0.000279250991002318,18.924961439999
0.00030541529490808,18.934961439999
0.00033642291164775,18.944961439999
0.00037357282164191,18.954961439999
0.000418651162440164,18.964961439999
0.000472586751270798,18.9747003430012
0.000534207202600319,18.9837078168339
0.000604397233924423,18.9920210355983
0.000684303793949555,18.9996932298333
0.000775253596322176,19.0067745483009
0.00087875598738424,19.0133115938453
0.000996520844490197,19.019347667611
0.00113048351461164,19.0249230094758
0.00128283477205915,19.0300750110888
0.00145605478403495,19.0348384151748
0.00165295277263975,19.0392455094204
0.00187671382792691,19.0433263148385
0.00213095536566988,19.0471087641117
0.00241979495616969,19.0506188756958
0.002747936117565,19.0538809331833
0.00312077630295703,19.0569176723328
0.0035445478864619,19.0597504779468
0.00402650686524135,19.0623996055202
0.00457519338498839,19.0648844457456
0.00520080604420534,19.0672238582147
0.00591102132426413,19.0694232407798
0.00669558713499277,19.0714479549359
0.00756420961610301,19.0733320108252
0.00853162154311407,19.0751096228221
0.00962070069642514,19.0768171496947
0.0108717507142734,19.0785013409296
0.0124069021513792,19.0802813179588
0.014643341404334,19.0825008765197
0.0162714226398306,19.0839400997263
0.0180027243653813,19.0853793229329
0.0195895400751159,19.0866666766876
0.0210006576542282,19.0878303891094
0.0222669131137292,19.0889368165485
0.0233902032998069,19.0900292168008
0.0243537270508443,19.0911458647918
0.0251222239236242,19.0923354184145
0.0256256166531074,19.0936872510107
0.0256595347313248,19.0954928590185
0.0251058925076956,19.0971252218209
0.0240995345906716,19.0987575846234
0.0229486203232315,19.1001782392462
0.0216536269606075,19.1015690349119
0.0202178884857821,19.1029978218339
0.018650430469491,19.1045040773313
0.0169566242142246,19.1061269979818
0.0156510457360046,19.107430215311
0.0131914547939184,19.1101313232078
0.0108464989993612,19.1131136310928
0.00901163735006871,19.1158473275234
0.00755195521483108,19.1183806611935
0.00631203118541176,19.1208810916681
0.00522630467013861,19.1234339532531
0.0042721614931183,19.1260652041745
0.00343271772156608,19.1287979301294
0.00274650874794549,19.1314359934649
0.00219129689393001,19.13393627072
0.00173219483403417,19.1363362691914
0.0013427271365875,19.1386832796779
0.00100237657895695,19.141037516523
0.00069304081982159,19.1434922020142
0.000389374443285898,19.1462762843821
0.00016828693297366,19.1485980386662
-2.82962495927082e-05,19.1509197929502
-0.000177454966835981,19.152873075897
-0.000299189283415596,19.1546082369417
-0.000408452290031895,19.1562864562012
-0.00051311629517835,19.1580121578917
-0.000620209435636136,19.159908726964
-0.000741905404295768,19.1622392331897
-0.000956394463009347,19.1668498295279
-0.00113413096803183,19.1712220115376
-0.00126895166431592,19.1749207475553
-0.00139794894879153,19.1788185505428
-0.001545247314478,19.1838244759552
-0.00167648119934683,19.1892120016168
-0.00175645001348664,19.1939637139011
-0.00178169671014065,19.1982502725181
-0.00174394220543666,19.2021002133967
-0.00163565852620405,19.2055678234937
-0.00144948503134175,19.2087194805756
-0.00117723218911392,19.2116218027819
-0.000808059023744593,19.2143417546755
-0.000326467564130465,19.2169439723834
0.000293141975501548,19.2195034870127
0.00110381710633092,19.2221409211978
0.00223889073501797,19.2251037406823
0.00370768949432929,19.2282506693021
0.00552020109329805,19.2315218713489
0.00679639144167964,19.233540251086
0.00821969037661843,19.2355586308232
0.00970415115207005,19.2374294032675
0.0112564748616899,19.2391576662194
0.0128944935121735,19.2407601864439
0.0146972049038697,19.2423020767809
0.0166703061331994,19.2437698963314
0.0188627634313258,19.2451834226322
0.0213070131978911,19.2465451492739
0.0240299977073609,19.2478536829626
0.0270748705277618,19.2491146226919
0.0304812958333351,19.2503296250147
0.0342934473685249,19.2515006338198
0.038568278460617,19.2526316887748
0.0433682477778985,19.253725849187
0.0487667332976899,19.2547864025698
0.0548488924748367,19.2558165466241
0.0617207422339143,19.2568203708497
0.0695085341258364,19.2578018757335
0.0783671528535894,19.2587654348503
0.0884899406274353,19.2597159739575
0.100122854478573,19.2606591959841
0.113588259534673,19.2616020830686
0.129322596299697,19.2625535639662
0.147944656838864,19.2635258251126
0.169876111705662,19.2645153652711
0.195306484695221,19.2655111897767
0.224938420082445,19.2665251905101
0.25974145900342,19.2675749250122
0.301247593484077,19.2686916436687
0.336922683758592,19.2695752446587
0.374273113715858,19.2704588456487
0.407418294197213,19.2712352430793
0.436349590153721,19.271933771972
0.461626524573366,19.2725907238646
0.483303192109329,19.2732313217294
0.501027632048001,19.2738774100885
0.513976790318046,19.2745537704871
0.520478625211292,19.2752975844206
0.517449593792288,19.2761079526801
0.503019673709945,19.2769383284128
0.475841551861516,19.2778043657217
0.434192479225448,19.2787173660877
0.376179621526787,19.2796860585332
0.332819185077838,19.2802988002889
0.285198349506011,19.2809115420446
0.242664477841383,19.2814287319029
0.205992123032734,19.2818651970561
0.173648088377678,19.2822517050403
0.144608717956477,19.2826070109974
0.118243817929231,19.2829428755692
0.0941128366756632,19.2832679569192
0.0718502847266657,19.2835900841282
0.0510670479812419,19.2839186110628
0.0311380875678537,19.2842701612352
0.00993897196647473,19.2847034572137
0.000366261073705679,19.2849285629471
-0.0082651230169787,19.2851536686806
-0.0147449848137081,19.2853404447468
-0.0206971527122286,19.2855291601272
-0.0266593297900383,19.2857391713084
-0.0323950960512538,19.2859670334028
-0.037754307653162,19.2862106817699
-0.042654167131118,19.2864694277561
-0.0470520687333001,19.2867434976151
-0.0509295832938959,19.287033777677
-0.0545135351827491,19.2873669200653
-0.0572602397625335,19.2876934124527
-0.0594924730218583,19.2880415071806
-0.0612272237876994,19.2884146055706
-0.0624787860788058,19.2888164588157
-0.0632605701422555,19.2892517003251
-0.0635836068272314,19.2897261174859
-0.0634548438635787,19.2902470541434
-0.0628746003966651,19.2908243074732
-0.0618310243139662,19.2914720304153
-0.0602963115864161,19.2922090018227
-0.058214277789238,19.2930639892056
-0.0554667377854056,19.2940877686164
-0.0517379403235755,19.2954013800279
-0.0477070151571548,19.2967897376964
-0.0438191159536877,19.2981330160023
-0.0401186126554809,19.2994354357661
-0.0366269222496542,19.3006991376581
-0.0333547189833977,19.3019249018787
-0.0303062034382146,19.3031128194317
-0.0274810924719384,19.3042626504285
-0.0248757423719968,19.3053740123974
-0.0224839144896617,19.3064464765263
-0.0202973792718458,19.3074796117302
-0.0183064336441119,19.3084729974219
-0.0165003586158268,19.3094262162749
-0.014867824696444,19.310338833164
-0.013309783550398,19.3112638874275
-0.011812484268214,19.3122127724425
-0.0103801306337522,19.3131872922942
-0.0090166129663458,19.314189652122
-0.00772560954940764,19.3152224469646
-0.00651053519901391,19.3162887601077
-0.00537448859208254,19.3173922926308
-0.00432019724045392,19.3185375389253
-0.00334995990413944,19.3197300303198
-0.00246558572346515,19.3209766830172
-0.0016683285003201,19.3222863121664
-0.000958813018419265,19.3236704233422
-0.000336947329704131,19.3251444950699
0.000198191391192527,19.326730197537
0.000628589623384889,19.328371699785
0.000964541658344943,19.3300658124292
0.00122164311688075,19.3318310505312
0.00141419814110596,19.3336905930263
0.00155575209603269,19.3356759324135
0.00165957211955648,19.3378327860439
0.00173941948560373,19.3402339366312
0.00181121915793458,19.3430131039937
0.00189869198820717,19.3464928681696
0.00200991844152037,19.3502644086568
0.00214924639984436,19.3541586465081
0.00230671777476271,19.3579624138327
0.00247869164599409,19.3617480652747
0.00266205571665477,19.365567877257
0.00285494633877828,19.3694617617728
0.00305687516903801,19.3734636203991
0.00326858803479599,19.3776047884677
0.00349185122169774,19.3819160994605
0.00372925446725958,19.3864294009154
0.00398410113987833,19.3911789381981
0.00426046885717017,19.3962028004849
0.00456352227459136,19.4015442184479
0.00489268573840697,19.40712695519
0.00522656752422284,19.4125317839166
0.00557433320357911,19.4178718885922
0.005936028405728,19.423100881372
0.00631620099584475,19.4282406485203
0.00671865378154792,19.4332972194851
0.00714780668213001,19.4382804902105
0.0076082023415238,19.4431963695668
0.00810471963961197,19.4480486387384
0.00864263554697687,19.4528387560634
0.00922775337375651,19.4575664074611
0.0098665106109768,19.4622298682146
0.0105661010648717,19.4668265637632
0.0113527441544292,19.4714550892074
0.0122403033141976,19.4761033578881
0.0132508768121611,19.4807869308051
0.0144151969746981,19.4855357916434
0.0157835672991468,19.4904224479495
0.0174598885270831,19.4956388274099
0.0198019709990977,19.501945496994
0.0215087116842207,19.5060834740408
0.0232985575485955,19.5102214510876
0.0248386425962096,19.5137861971255
0.0261322580521256,19.516953502658
0.0272165223602156,19.5199422130889
0.0280696977723399,19.5228247224207
0.0286541221053734,19.5255862170667
0.0289686539919142,19.5283444735739
0.0289830152094397,19.5312513938052
0.0285874550431282,19.5346323677389
0.0278146246968232,19.5379036328034
0.0267183472517201,19.541174897868
0.0256307910635146,19.5438556757693
0.0245604312963121,19.546234025092
0.0234901991324539,19.5484701866207
0.022418497714513,19.5506298288231
0.0213481813413514,19.5527471468511
0.0202829401909563,19.5548437512039
0.019226448913131,19.5569349556717
0.0181821524398372,19.55903247953
0.0171532136553487,19.5611458389628
0.0161425087271349,19.5632831520496
0.0151526386718241,19.5654516425941
0.0141859406603618,19.567657988962
0.0132445027707739,19.5699085718394
0.0123301763046249,19.5722096697972
0.0114445826632206,19.5745676351168
0.0105891302918817,19.5769890262442
0.00976501779781037,19.5794807703058
0.00896734643928026,19.5820701814481
0.00818024205181792,19.5848312021367
0.00740748075691201,19.5877834940842
0.00665285063565683,19.5909506250868
0.00592039021577515,19.5943598709561
0.00521436241148002,19.5980429212246
0.00453920596365217,19.602036752735
0.00389944961801728,19.6063847918229
0.00329955809837539,19.6111387428368
0.00274367727799687,19.6163619664298
0.00223531596618776,19.6221356488779
0.00177708152178366,19.6285691711735
0.00138627305971578,19.6355006085187
0.00106713748820284,19.6429776902735
0.000816438885881028,19.6512266260016
0.000640811030986797,19.6591153521393
0.000486621589328151,19.6684899667101
0.000370607165467359,19.6784899667101
0.000290756169691232,19.6884899667101
0.000236592191724195,19.6984899667101
0.00020047067793885,19.7084899667101
0.000176912735973449,19.7184899667101
0.00016210773956449,19.7284899667101
0.000153462469426318,19.7384899667101
0.000149228007939127,19.7484899667101
0.000148227085590697,19.7584899667101
0.000149671096100091,19.7684899667101
0.000153041500228219,19.7784899667101
0.000158012549832342,19.7884899667101
0.000164399978297657,19.7984899667102
0.000172126867668934,19.8084899667102
0.000181201812715863,19.8184899667102
0.000191706519540534,19.8284899667102
0.000203791106525677,19.8384899667102
0.000217676224411319,19.8484899667102
0.000233661939002312,19.8584899667102
0.000252144246670887,19.8684899667102
0.000273641255439869,19.8784899667102
0.000298832698122621,19.8884899667102
0.000328618965008631,19.8984899667102
0.000364210001149512,19.9084899667102
0.000407261612286468,19.9184899667102
0.000459580965030122,19.9284017097937
0.000519413229617339,19.9375755000961
0.000587579502632507,19.9460423719662
0.00066518629520305,19.9538562148522
0.000753521072085466,19.9610680331911
0.000854051119071347,19.9677252274278
0.000968439150901734,19.973871836017
0.00109856719677017,19.9795487825735
0.00124656548196661,19.9847940952786
0.00141484573484601,19.989643107558
0.00160613898396034,19.9941286534751
0.00175517231765066,19.9970643267376
0.00192776873010101,20
