ecg,time
0.00750820835941063,15.0013338004535
0.00626301340423159,15.003837603181
0.00517149947810473,15.0063937803273
0.00421102780147823,15.0090283580325
0.00336464811115782,15.0117644806005
0.00261839409807134,15.0146261077418
0.00202067991338472,15.0173393897078
0.00153591407788451,15.0199151069311
0.00113208111727265,15.0224010920676
0.000787217878712323,15.0248409517281
0.000486875366896313,15.0272671060517
0.000220766857714203,15.0297077215727
-2.22987308435936e-05,15.0322280874271
-0.000263321103321873,15.0350562829307
-0.000438758242171128,15.0373547181175
-0.000599044031365062,15.0396531533042
-0.000724519370810593,15.0415953321621
-0.000829898647629531,15.0433282362927
-0.000926998984464241,15.0450093442285
-0.00102257812414785,15.046743748607
-0.00112342994703655,15.0486588196225
-0.00124291020879503,15.0510375180947
-0.00145864075338706,15.0556125994715
-0.00164392024768324,15.0598042651713
-0.00179353604935561,15.0633524268067
-0.00194663027117078,15.0671376910018
-0.00213101574537484,15.071965748541
-0.00231801870259543,15.0774878651531
-0.00244007205325284,15.0822866660391
-0.0024912972579166,15.0865958167681
-0.00246071685160259,15.090454877179
-0.00234083617011643,15.0939446975941
-0.00212482181571635,15.097150699823
-0.00180623023301253,15.1001327491044
-0.00137919105894332,15.1029339179177
-0.000833845032276303,15.1056077757625
-0.000145936138640124,15.1082399071707
0.000745511303387769,15.1109807399531
0.00196385198197906,15.1140526142482
0.00350504442374459,15.1173247933356
0.00538905857133102,15.1207839754896
0.0066352233922567,15.1228295861031
0.00800489674227683,15.1248751967166
0.00943015431749074,15.1267884432886
0.0108738320324582,15.128515263718
0.0124246030110477,15.1301560137042
0.0141237744903378,15.1317332170888
0.015981897989969,15.133236686872
0.0180479248854636,15.134687403968
0.0203418690693864,15.1360804581302
0.0229033435674243,15.1374229626557
0.0257646404933303,15.1387154991816
0.0289603428900302,15.1399589890784
0.0325371335402566,15.141157660297
0.0365441427729088,15.1423142512331
0.0410378634575087,15.1434316721092
0.0460844208624697,15.1445131059679
0.0517646422826329,15.1455624573744
0.0581729012990748,15.1465833951375
0.0654227642299755,15.1475798168679
0.0736526933305995,15.1485559415716
0.0830333403080899,15.149516373149
0.09378171683006,15.1504665582625
0.106177348375444,15.1514128797788
0.120592614220139,15.1523633113233
0.137544403633341,15.1533284356797
0.157782180974098,15.1543229556959
0.18121329858374,15.1553195011142
0.208451987249213,15.1563285236687
0.240323077289147,15.157364821182
0.278034798906768,15.15845206734
0.321903319920799,15.1595927210032
0.362923287680613,15.1605896897983
0.397147488226614,15.1614043465856
0.426741285056548,15.1621240114338
0.452614484933321,15.1627944089991
0.474922557469193,15.1634426767254
0.493399577521156,15.1640906845988
0.507353290775597,15.1647615700243
0.515396590243517,15.1654872782794
0.5147057313475,15.1662997602164
0.502930537688505,15.167127201694
0.478842432397563,15.1679857409024
0.440826701751737,15.1688874096411
0.387064041981213,15.1698410616281
0.343078415379796,15.1704907830527
0.294025516436966,15.1711405044772
0.250236767341835,15.1716825921251
0.212735069891134,15.1721337803843
0.179803821794816,15.1725295765408
0.150307713702326,15.172891070658
0.123567903506244,15.1732310390536
0.0991241143372498,15.1735585446908
0.0766087194524949,15.1738814036448
0.0556536069210633,15.1742083442665
0.0357269532390618,15.1745534011585
0.0153774619020783,15.1749568994399
0.00143469948527157,15.1752779598825
-0.00586027505337836,15.1754665003137
-0.0125259321909193,15.1756550407448
-0.0183844415733825,15.1758368140151
-0.0243518729624532,15.1760415253483
-0.0301580734623766,15.1762651634347
-0.0356249684640556,15.176505089486
-0.0406532328121575,15.176760251673
-0.0451904624903239,15.177030634499
-0.049212283905195,15.1773169444521
-0.052800763871492,15.177630076042
-0.0557165747669133,15.1779503475501
-0.0581168440694575,15.1782915491112
-0.0600160493185314,15.1786566713779
-0.0614283364193654,15.179049202057
-0.0623675236233232,15.1794734413073
-0.0628456048991053,15.179934735955
-0.0628711486226083,15.1804398258065
-0.0624473385951232,15.1809973766359
-0.0615670478080183,15.1816201387249
-0.0602091053892029,15.1823247576552
-0.0583299203099385,15.1831356412838
-0.055840719274233,15.1840932828872
-0.0525313010704082,15.1852815916583
-0.0484838923855033,15.1866876447394
-0.0445581114146385,15.1880447846224
-0.0408084252276082,15.1893595567588
-0.0372616868365183,15.1906349036611
-0.033931464429291,15.1918720179304
-0.0308237615944455,15.1930712030935
-0.0279395569532476,15.1942323258558
-0.0252761494235795,15.1953550539598
-0.0228280202114734,15.1964389795494
-0.0205874830174137,15.1974836788127
-0.0185452278228635,15.1984887341959
-0.0166907973197363,15.1994537332528
-0.0150130087067598,15.2003782518253
-0.0134425075699814,15.2012966737836
-0.0119313169347491,15.2022385929137
-0.0104839723599712,15.2032055719048
-0.00910441898107353,15.2041997202471
-0.00779640682957088,15.2052235123881
-0.00656343805167124,15.2062798801853
-0.00540871522386351,15.207372332117
-0.00433508739874405,15.2085051137923
-0.0033449938187882,15.2096834291105
-0.00244040482422772,15.2109137533802
-0.001622758797223,15.2122042911644
-0.000892892791815988,15.2135656722942
-0.000250962247873293,15.2150120619018
0.000303659419022201,15.2165630416094
0.000759360686728487,15.2181929271637
0.0011155963247846,15.2198700043361
0.00138861566314426,15.2216125872432
0.00159296540788532,15.2234420831922
0.00174231368937006,15.2253871437359
0.00184987352760021,15.2274884841329
0.00192904287043013,15.2298089856971
0.00199465012400055,15.2324586042529
0.00206653779407674,15.2356768019603
0.00216250374563736,15.2394160299387
0.00228439150284359,15.2432398296616
0.00242780158485967,15.2470151666302
0.00258941405476694,15.2508006930747
0.00276562509982115,15.2546411416334
0.00295385975005457,15.2585727304766
0.00315297322954346,15.2626276272978
0.0033632211980072,15.266836572606
0.00358607579900232,15.2712306370986
0.00382402283325142,15.2758425898942
0.00408045098439586,15.2807083261766
0.00435973111288359,15.2858682260216
0.00466760342962834,15.2913685606061
0.00499042784887747,15.29689805055
0.00532225309785611,15.3023070839627
0.00566724786138031,15.3076215818292
0.00602780606181084,15.3128329717698
0.00640796425864995,15.3179552845345
0.00681173832951558,15.3229977598149
0.00724344366768494,15.3279688218264
0.00770760375271333,15.3328738502625
0.00820907775687424,15.3377158713883
0.00875316455604271,15.3424958441934
0.0093457209882824,15.347213084782
0.0099932671863224,15.3518656173487
0.0107056666519138,15.3564664643503
0.0115074894532237,15.3610974623061
0.0124136467356259,15.3657499182307
0.0134473380378833,15.3704409726871
0.0146415927387207,15.3752054425876
0.0160521513919452,15.380127844715
0.0178009549268625,15.3854403674727
0.0202723927837367,15.3919390533002
0.0219138949255967,15.3958554863752
0.0236157770087944,15.3997719194503
0.0251014970403622,15.4032304797109
0.0263556635466768,15.4063507684411
0.0274025584477986,15.4093224165385
0.0282063916632363,15.412173099605
0.0287428246751527,15.414923817519
0.0290066885450901,15.4176947587222
0.0289594774670972,15.4206518775543
0.0284581409674771,15.4242031109823
0.0276619922989803,15.4272960273481
0.0265871473713488,15.4303889437138
0.0255078742211552,15.4330045475747
0.0244384904834189,15.4353575384949
0.0233680907937269,15.4375806185177
0.0222963960006703,15.4397326643891
0.0212264929060039,15.4418456254942
0.0201620976335178,15.4439400827335
0.0191068634646258,15.4460307866772
0.018064201035236,15.4481291215112
0.0170372367074438,15.4502443947449
0.0160288103167788,15.4523845949875
0.0150414876977992,15.4545568700478
0.0140775731273471,15.4567678594134
0.0131391218384224,15.4590239390261
0.0122279557310389,15.4613314045355
0.0113456675028728,15.4636966515595
0.010493635976756,15.4661263133371
0.00967303617100259,15.468627405679
0.00887618597548174,15.4712369274272
0.0080903551578832,15.4740203760684
0.00731931575595836,15.4769979053842
0.00656688953760096,15.4801935355562
0.00583714830969372,15.4836350788277
0.00513438229711357,15.4873548823169
0.00446305271029368,15.4913907120017
0.00382769694191199,15.495786988504
0.00323276404132972,15.5005967568752
0.00268234989454951,15.5058853391095
0.00217987136732461,15.5117370464329
0.00172791754635876,15.518264709001
0.00134571791103554,15.5252598049632
0.00103963614872269,15.5328128963465
0.000828893390765753,15.5399792689057
0.000640290306121246,15.5485363406123
0.000494226254686377,15.557613112404
0.000380393062069261,15.567613112404
0.000302590246745642,15.577613112404
0.000250368715243453,15.587613112404
0.00021611374570026,15.597613112404
0.000194405034198005,15.607613112404
0.000181500883107501,15.617613112404
0.00017487261198939,15.627613112404
0.000172828901631418,15.637613112404
0.000174247369110054,15.647613112404
0.000178397271969396,15.657613112404
0.000184826004403752,15.667613112404
0.000193286454807237,15.677613112404
0.000203690722462198,15.687613112404
0.000216082298802459,15.697613112404
0.000230622716353956,15.707613112404
0.000247590889273983,15.717613112404
0.00026739500336542,15.727613112404
0.000290598555904903,15.737613112404
0.000317964470149889,15.747613112404
0.000350524685463116,15.757613112404
0.000389688260026285,15.767613112404
0.000437410771815268,15.777613112404
0.000493824697200381,15.7872043013828
0.00055828980876856,15.7960662979618
0.000631780504363603,15.8042422291965
0.000715520652120151,15.8117854954867
0.000810919217955919,15.8187461108056
0.000919576409878369,15.8251704831531
0.00104330401397284,15.8311016857824
0.00118415238333828,15.8365797112572
0.00134444261939114,15.8416416960015
0.00152680291755576,15.8463221306392
0.00173421195931413,15.8506530617736
0.00197004976388288,15.8546642862664
0.00223816019563649,15.8583835359986
0.00254292671335766,15.8618366614351
0.00288936901343239,15.8650478217281
0.0032832669149167,15.8680396846536
0.00373132387891257,15.8708336434408
0.00424139052620145,15.8734500685519
0.00482277984631785,15.8759086184113
0.00548673148886487,15.8782286502327
0.00622945042190292,15.8803830324099
0.00705140827637957,15.8823774912354
0.00796502916848425,15.8842474214069
0.00898936315408814,15.8860293572716
0.010156298469168,15.8877665158629
0.0115295341462088,15.8895255669084
0.0133701598792957,15.8915523999538
0.0150542183147595,15.8931874111949
0.0168867751061277,15.894822422436
0.0185373705858132,15.8962319691637
0.0199758031443235,15.8974609162093
0.0212620370140542,15.8986064593038
0.022409251839886,15.8997209669402
0.0234073687242431,15.9008434083643
0.024229532915696,15.9020165225786
0.0248242196158349,15.9033071818702
0.0250722484805847,15.9048774525152
0.0247161042432885,15.9067142483147
0.0237620237923158,15.9085510441141
0.0226543691812006,15.9100389283886
0.0214166814059666,15.9114455178635
0.020042695173806,15.9128706447203
0.0185404393474603,15.914358912438
0.0169172285626716,15.9159476768875
0.0152054481473002,15.9176829759605
0.0137752568376198,15.9192466291445
0.0114022547408891,15.9221499607438
0.00944462333369296,15.9249424578361
0.00789014404344847,15.9275256753938
0.00659634996965653,15.9300213714089
0.00546445076638841,15.9325604264222
0.00446903692315693,15.9351713182479
0.00359206066808546,15.9378773039057
0.00281885517949524,15.9407019578019
0.00218449396334906,15.9434459151689
0.00167258214464,15.9460438482875
0.00124888484085028,15.9485400034102
0.000888997170782145,15.9509804795742
0.000576384499537914,15.9534043995499
0.000299430623869614,15.9558467265005
4.67490602635025e-05,15.9583714675345
-0.000202134710168594,15.9611924533451
-0.000386714519660691,15.9635362863326
-0.000554640302368889,15.9658801193201
-0.000684540069456056,15.9678440225333
-0.000792872380682492,15.9695883777879
-0.000892283573246089,15.97127713827
-0.00098976046962947,15.9730161068488
-0.00109216108856234,15.9749314670045
-0.00121256955996116,15.9772975914014
-0.00143243797849638,15.9819166697125
-0.00162280011032462,15.9862036022906
-0.00177538320825472,15.9898198072559
-0.00193010203215072,15.9936551376409
-0.00211585430216541,15.9985519480241
-0.00229879494762492,16.0040291305491
-0.00241723075214073,16.0088081873576
-0.002464636656919,16.0131023144686
-0.0024301622968013,16.0169487798321
-0.00230639739564088,16.0204271583686
-0.00208673393257434,16.0236196070914
-0.00176472573852874,16.0265883925414
-0.00133361503162743,16.029382302544
-0.000782620820289157,16.0320557673398
-8.69689851881798e-05,16.0346925179415
0.000817834919545317,16.0374499124159
0.00205060789595921,16.0405331308308
0.00360775299024518,16.0438150980001
0.0055001616962104,16.047263329409
0.00674895153696662,16.0492948140358
0.00812353112091243,16.0513262986625
0.00955746107264996,16.0532283854373
0.0110079302809339,16.0549408875881
0.0125746588406552,16.0565758026551
0.0142922229247419,16.0581470635172
0.0161714410974637,16.0596449111169
0.018261314848367,16.0610900328614
0.0205820603375311,16.062477677522
0.0231734141938654,16.0638148457316
0.026068695743699,16.065102495265
0.0293020609576892,16.0663411958044
0.0329212791687049,16.0675353973916
0.0369762973345832,16.0686878744385
0.0415251246293195,16.069801688011
0.0466340535159001,16.0708797862306
0.0523857908011458,16.0719261948741
0.0588765744905913,16.0729446078182
0.0662223482040263,16.0739389533342
0.0745647150140076,16.0749134975617
0.0840785751954002,16.075872914671
0.0949867635884436,16.0768227436964
0.107577327397187,16.077769521792
0.122235617828087,16.078721467722
0.139499694954791,16.0796895820882
0.16004575236759,16.0806843432175
0.183843106089118,16.0816821830908
0.211524819536289,16.082693956337
0.24394654920423,16.0837351609446
0.28238270423523,16.0848311592977
0.326673468301806,16.085973413259
0.36672296841616,16.0869438216148
0.400302904153208,16.0877448335533
0.429428290555285,16.0884578701329
0.454880666374998,16.0891252307651
0.476758086255403,16.0897729837276
0.494750789692834,16.0904228299321
0.508108804228214,16.0910983975075
0.515333265003376,16.0918332817944
0.513494162978452,16.0926469191864
0.500467950028113,16.0934772724972
0.474981988608852,16.0943400785789
0.435393345603715,16.0952468889826
0.379876304756697,16.0962065509633
0.336524751764622,16.0968357286707
0.288562357275411,16.097464906378
0.245693341325835,16.0979935028904
0.208809845846612,16.0984370749214
0.176323144137614,16.0988283388934
0.147175237458254,16.0991870169288
0.120722383027483,16.0995252945493
0.0965202626671228,16.0998519934976
0.074206492256045,16.1001749116195
0.053406442068892,16.1005030572601
0.0335495144757126,16.1008516397062
0.0129107046939014,16.1012687097005
0.00170580435158794,16.1015295849079
-0.0056283508944826,16.1017186844666
-0.0123291905889466,16.1019077840254
-0.0181743399084979,16.1020886823825
-0.0241407917400923,16.1022927226709
-0.029954422357308,16.1025158310049
-0.035433555976525,16.1027552952105
-0.0404767315218443,16.1030100171576
-0.0450302831699248,16.1032799509616
-0.0490690741775633,16.1035657809404
-0.0526553178834261,16.1038764044603
-0.0555913478044596,16.1041959255276
-0.0580117327248292,16.1045363013701
-0.0599305955279268,16.1049004724896
-0.0613620494890242,16.1052918962659
-0.0623199472372959,16.105714834875
-0.0628163813611392,16.106174585334
-0.0628600925077611,16.106677819758
-0.0624545338255566,16.1072331080596
-0.0615931326796424,16.1078529901164
-0.0602554089206419,16.1085539121505
-0.0583990491990984,16.1093598324905
-0.0559381059822627,16.1103102430531
-0.0526713539148392,16.1114858636045
-0.0486213311161873,16.1128941101539
-0.0446905653061516,16.114252844218
-0.0409345209224086,16.115569021245
-0.0373807349991116,16.1168456841181
-0.0340431301428008,16.1180840765719
-0.0309279254120989,16.1192845284778
-0.0280362479354322,16.1204469197887
-0.0253655067147843,16.1215709245312
-0.0229102667953182,16.1226561375009
-0.0206629052612951,16.1237021358005
-0.0186141581611411,16.1247085021931
-0.0167535991760926,16.1256748246769
-0.0150700632812004,16.1266006801643
-0.0134975722204055,16.1275183548645
-0.0119842197103266,16.1284594901907
-0.0105345791643207,16.1294256215087
-0.00915260098587181,16.1304188477888
-0.00784204224712818,16.131441630225
-0.00660641370585912,16.1324968840651
-0.00544892818930638,16.1335880967095
-0.00437244669277627,16.1347194866164
-0.00337942214661868,16.1358962220693
-0.00247184039036432,16.1371247306135
-0.00165115721591935,16.1384131509954
-0.000918229169349859,16.1397720192397
-0.000273233586714585,16.1412153609293
0.000284431179407995,16.1427625381631
0.000743902730624517,16.144391192887
0.00110333518522144,16.1460664381732
0.00137906544244274,16.1478065806514
0.00158567766791669,16.1496328413622
0.00173686699146975,16.1515735774161
0.00184585878249568,16.1536689934202
0.00192603960258696,16.1559809832941
0.00199217291500436,16.1586172276921
0.00206384384574457,16.161809908755
0.00215963520283248,16.1655473063262
0.00228087109397099,16.1693600886846
0.00242403191187981,16.1731341167323
0.00258590152133062,16.1769252777897
0.00276283794886218,16.180776740129
0.00295217956948527,16.184723969713
0.00315269726756699,16.1887988201356
0.00336458793657293,16.1930319912207
0.00358929806642033,16.1974547199353
0.00382932360454081,16.2021001349105
0.0040881055070048,16.207004697068
0.0043701228543651,16.2122095278143
0.00468130991382332,16.2177618464602
0.00500364926936212,16.2232729058177
0.00533620662293006,16.2286825523465
0.005681604550176,16.2339892185513
0.00604293813792875,16.2391955502517
0.00642408920870742,16.2443130037532
0.00682913722523459,16.2493516190429
0.00726237412451938,16.2543193590408
0.00772832416919663,16.2592214293503
0.00823184812113868,16.2640606454337
0.00877825859775935,16.2688378395789
0.00937343414361498,16.2735522338608
0.0100239237786807,16.2782017882563
0.0107404047239506,16.2828041611541
0.0115469016466585,16.2874359666932
0.012458684148035,16.2920898311758
0.0134992754952483,16.2967833484338
0.0147024082322845,16.3015528350795
0.0161255271925258,16.3064865856414
0.0178965166484667,16.3118300705625
0.0203691269860337,16.3182954208239
0.0219984150480144,16.3221708247995
0.0236835716119417,16.3260462287751
0.0251577282967076,16.3294835320139
0.0264029830164652,16.3325942695441
0.0274412282964707,16.335562853526
0.0282337117513515,16.338407066032
0.0287589980202091,16.3411561084176
0.0290109455960534,16.3439309538823
0.0289489304143519,16.3469014745996
0.0284202183924617,16.3505000646203
0.027618245974943,16.3535545651034
0.0265471402954338,16.3566090655864
0.0254694541215547,16.3592092483189
0.0244002147244148,16.3615558879986
0.0233297412513414,16.3637757178872
0.0222580426561914,16.3659259760074
0.021188259048834,16.3680380322617
0.0201241112232987,16.370132195461
0.0190692455993435,16.3722230663137
0.0180270628593652,16.3743219398339
0.0170006789576702,16.3764380683653
0.0159929235715956,16.3785794065622
0.0150063526598498,16.380753083005
0.0140432614050527,16.3829657278244
0.0131056960469232,16.3852237167786
0.012195470092819,16.3875333521681
0.0113141684428035,16.3899010425007
0.0104631618657517,16.3923334424425
0.00964361870102707,16.3948375936859
0.00884710512193133,16.3974531532228
0.00806174534442902,16.4002433200639
0.00729131020818123,16.4032283881328
0.00653963041510976,16.4064325071535
0.00581078634010373,16.4098836419974
0.00510907482316042,16.4136143251958
0.00443896155617554,16.4176625453102
0.00380498396898778,16.4220730015296
0.00321158306696505,16.426899117732
0.00266283606813996,16.4322067732519
0.00216212876540731,16.4380811693863
0.00171277676671017,16.4446240598126
0.00133290694720939,16.4516373003043
0.00102497754178235,16.4593677706373
0.000824062069493601,16.4663039248675
0.000634386152162537,16.4749930283048
0.000490309361507905,16.4840574850016
0.000377889345189276,16.4940574850016
0.000301107996077026,16.5040574850016
0.000249617636002176,16.5140574850016
0.000215878509207989,16.5240574850016
0.000194531503409634,16.5340574850016
0.000181882237424679,16.5440574850016
0.000175435838038774,16.5540574850016
0.000173523899344104,16.5640574850016
0.000175039338310982,16.5740574850016
0.000179261791862601,16.5840574850016
0.000185745911802717,16.5940574850016
0.000194249829444291,16.6040574850016
0.000204689572670102,16.6140574850016
0.000217111739230517,16.6240574850016
0.000231680535692913,16.6340574850016
0.00024867746333455,16.6440574850016
0.000268513553477446,16.6540574850017
0.000291755804992876,16.6640574850017
0.000319171823269154,16.6740574850017
0.000351800177795669,16.6840574850017
0.000391059711012514,16.6940574850017
0.000438920934919403,16.7040574850017
0.000495347136866424,16.7136204279978
0.000559816188838222,16.7224558443614
0.000633310691131067,16.7306077466209
0.000717056698256593,16.7381293035912
0.000812464294515672,16.7450702864849
0.000921134446973825,16.7514768876566
0.00104487958780019,16.7573919884392
0.0011857506576838,16.7628554092894
0.00134606926647149,16.767904131513
0.00152846397395495,16.7725725054749
0.00173591367081102,16.7768924504353
0.00197179833240567,16.7808936469548
0.00223996144051145,16.7846037201364
0.00254478564499199,16.7880484219822
0.00289128916911082,16.7912518201897
0.00328524945710283,16.7942364965429
0.00373336621361088,16.797023762187
0.00424348418304493,16.7996339074522
0.00482490712226453,16.8020865097621
0.00548885982974221,16.8044008403481
0.00623153011634798,16.8065498043634
0.00705331847874094,16.8085389721653
0.00796655737239742,16.8104035450571
0.00899011927535357,16.8121797759556
0.0101554874423639,16.8139103571068
0.0115251765178023,16.8156606233387
0.0133536968918748,16.8176696291947
0.0150590640132016,16.8193200091025
0.0169181275149558,16.8209703890102
0.0185793552373469,16.8223805684391
0.0200246193801083,16.8236074202427
0.0213168773749328,16.8247504076389
0.022469836601995,16.8258621457717
0.0234735837340374,16.8269815721111
0.0243013833532895,16.8281512770817
0.0249019111064374,16.8294377424413
0.0251567586359406,16.8310015042212
0.0248063571501383,16.8328375227948
0.0238535918005243,16.8346735413685
0.0227454045644203,16.8361597154694
0.0215064630608147,16.8375642585754
0.0201303912910239,16.8389874195824
0.0186251832865254,16.8404738951546
0.0169981330220274,16.8420610878566
0.0152805827665275,16.8437950966374
0.0138882505198175,16.8453087992885
0.0114924882686614,16.8482197148386
0.00951397003870642,16.851023205986
0.00794539304557529,16.853613495929
0.00664441208348734,16.8561075957165
0.00550667123291723,16.8586436685362
0.00450628680428783,16.8612505943133
0.00362502632671551,16.8639516492365
0.00284810620507627,16.866770350363
0.00220133449075105,16.8695517400849
0.0016811578759744,16.8721822938914
0.00125198909001283,16.8747066676045
0.000888480797688898,16.8771717998835
0.000573938021489059,16.8796138514291
0.000297312197610834,16.8820578113053
4.85836418327184e-05,16.8845455432451
-0.000187635527070832,16.8872143932328
-0.000404465196904069,16.8899735934325
-0.000549333577563902,16.8920044900856
-0.000683748199279943,16.8940353867386
-0.000795866051562695,16.895843234045
-0.00089558783718382,16.8975409778661
-0.000990862388450986,16.8992429562795
-0.00108792882754212,16.9010570017749
-0.00119558722203034,16.9031615531948
-0.00134151638332559,16.9061623717002
-0.00151659217351737,16.9099693304973
-0.00165550166719956,16.9131364443046
-0.00178587191765728,16.9162192192548
-0.00192915261299758,16.919733448136
-0.00210100915767992,16.9241645135699
-0.00229822640683373,16.9297952293871
-0.00243218151668411,16.9346960250624
-0.00249699180855415,16.939098816924
-0.0024810055271857,16.9430372851159
-0.002376350949993,16.946593048764
-0.00217617016978578,16.9498525017265
-0.00187409610244241,16.9528784006824
-0.00146435312962539,16.9557159723673
-0.000938520687403795,16.9584144980253
-0.000277339531470024,16.9610475568152
0.000569259776055964,16.9637475048875
0.00174132672548889,16.9667986980883
0.00322148878691107,16.97002343286
0.00504930224083482,16.9734530195936
0.00634026445306292,16.9756145174621
0.00776157024398098,16.9777760153306
0.00915811826439178,16.9796854757298
0.0106135143834177,16.9814619787263
0.0121407804408132,16.9831126570255
0.0138091074345978,16.9846974662183
0.015636380695685,16.9862127082811
0.017665281699152,16.9876740627983
0.0199174629215524,16.9890778861473
0.0224309434125844,16.9904305940288
0.025235127893316,16.9917317272685
0.0283687894815726,16.9929844379475
0.0318752532865076,16.9941917763716
0.0358023925057254,16.9953564275471
0.0402033438795251,16.996480821277
0.0451461295112455,16.997569081947
0.0507077212069728,16.9986246599346
0.0569795997802903,16.9996511859602
0.0640717399162107,17.0006525249999
0.0721168821998595,17.0016327233802
0.0812811981997121,17.0025965260876
0.0917726608601961,17.0035491901183
0.103858941221468,17.0044969323505
0.117894990749269,17.0054474674841
0.13437005641923,17.0064109241346
0.153998398446019,17.0074017400495
0.176831526154533,17.0083988192448
0.203357514360258,17.0094066914014
0.234361929334578,17.0104394260595
0.270975254569716,17.0115189511984
0.314027599407148,17.0126598898218
0.356234955708858,17.0136985032457
0.391232877874886,17.0145361195331
0.421365817612798,17.0152684690158
0.447714600925274,17.0159462745904
0.470508837214999,17.0165982262685
0.489538907038142,17.0172464568412
0.504187541280268,17.0179134244338
0.513213478964662,17.0186287454232
0.514003648366651,17.0194418581492
0.503871793654533,17.0202670641828
0.481656236043756,17.021120880243
0.445799376988151,17.0220158833827
0.394513697624386,17.0229611207691
0.350002956520373,17.0236367300798
0.299836254004884,17.0243123393905
0.255083370526901,17.0248714849861
0.21695108810163,17.025332376637
0.183578186322073,17.0257340669388
0.153741008814397,17.0260993662601
0.126722058518895,17.0264417860923
0.102044335576825,17.0267706939437
0.0793353775980927,17.0270939487025
0.0582348903673253,17.0274199961945
0.0382518645425937,17.0277616828386
0.0181856883876971,17.0281523609831
0.00965106980294347,17.028338912197
0.00177668098298266,17.028525463411
-0.00658090622442065,17.0287425160103
-0.0132018621153266,17.0289320832359
-0.0190923679767701,17.029117355342
-0.0250477171859666,17.0293248721221
-0.0308139340333142,17.0295508903716
-0.0362252889218041,17.0297930088762
-0.0411897755824589,17.0300503272231
-0.045659327820919,17.0303229318296
-0.0496120610691597,17.0306116057732
-0.0532850634124171,17.0309433945075
-0.0561070998503989,17.0312677715958
-0.0584140430737222,17.0316133410765
-0.0602227173077142,17.031983411942
-0.0615473196321436,17.0323816067061
-0.0624014288754497,17.0328123924792
-0.0627965307366708,17.0332813341765
-0.0627403787968537,17.0337954668543
-0.0622348794345637,17.0343639220787
-0.0612704864578673,17.0350002945323
-0.0598230330164729,17.0357221389945
-0.0578433401150465,17.0365558573572
-0.0552299933090608,17.037546493172
-0.0517301203125325,17.038793293682
-0.0477032343585337,17.0401890720559
-0.0438092384416688,17.0415380083014
-0.0400975901188679,17.0428452212988
-0.0365920908226144,17.0441132638425
-0.0333046478864803,17.0453431357947
-0.030240198414519,17.046535046931
-0.0273989515207709,17.0476888218885
-0.0247776168475374,17.0488041131077
-0.0223702176737191,17.0498805105535
-0.0201687180358453,17.0509175934808
-0.0181635531582219,17.0519149478164
-0.0163440955891137,17.0528721618301
-0.0146990673667118,17.0537888070352
-0.013139401054305,17.0547116746829
-0.011640029912221,17.0556582574776
-0.0102052699654421,17.0566302793884
-0.008839033546914,17.057629913529
-0.00754502695753688,17.0586597143907
-0.00632669878305606,17.0597227141618
-0.00518718775192152,17.0608225487355
-0.00412926833142596,17.0619636280689
-0.00315529393226568,17.063151372059
-0.00226713713319973,17.064392546422
-0.00146612558398301,17.0656957572066
-0.000752970895503587,17.067072208891
-0.000127685252428599,17.0685369261912
0.000410524907634308,17.0701108529624
0.00084582800956773,17.0717483703888
0.00118503402005537,17.073436669619
0.00144392183940806,17.0751941734904
0.00163684632086577,17.077043445906
0.00177735530944395,17.0790149846084
0.00187864473097871,17.0811527395342
0.00195427076586084,17.0835259467021
0.00201962895354866,17.086259612464
0.00209665600715983,17.0896442820049
0.00219781134549044,17.0934018007597
0.00232429322300115,17.0972016928825
0.00247210303125751,17.1009747808214
0.00263771053084509,17.1047739583393
0.00281762824474462,17.1086404923669
0.00300952018736707,17.1126089237604
0.00321250648194476,17.1167107202555
0.00342709894485976,17.1209765665098
0.00365500767143213,17.1254379391673
0.00389895259014683,17.1301284664491
0.00416259316600038,17.1350853680687
0.00445067906186714,17.1403507711406
0.0047695459288289,17.1459731360708
0.00509320572802435,17.1514288240993
0.00542986075063991,17.1568199055224
0.00577934862945138,17.1620963077016
0.00614595064006057,17.1672788547537
0.0065333070235317,17.1723740742804
0.00694566196989799,17.1773929126389
0.00738735116984259,17.1823422827385
0.00786300506364403,17.1872268952076
0.00837760674080864,17.1920490141895
0.0089366229881558,17.1968090405707
0.00954611147378456,17.2015058267265
0.0102128289971567,17.2061370857744
0.0109525154416651,17.2107483619482
0.0117857883201204,17.2153850647791
0.012730120386391,17.2200476851728
0.0138111084625732,17.2247569655373
0.0150670699407688,17.2295590891428
0.0165670890124745,17.2345682228194
0.0184836413345351,17.240129546659
0.0209603098062814,17.2464036079473
0.0225363009300989,17.2500918749855
0.0241423861963966,17.2537801420238
0.0255431888165717,17.2570931624665
0.0267273469123198,17.2601463836433
0.0277044682266118,17.2630998457446
0.0284173895287251,17.2659045823831
0.0288634532261102,17.2686476857263
0.0290290252914475,17.27145821198
0.028855355131324,17.2745427680423
0.0280824027553557,17.2786090362692
0.0272353318035944,17.2814079364234
0.0261817152334785,17.2842068365776
0.0251122122724702,17.2866920226226
0.0240432754553898,17.2889863791884
0.0229721735040933,17.2911782803258
0.0219007289479374,17.2933129298904
0.0208324294519155,17.2954170264469
0.0197710076587123,17.2975085819152
0.018720037800098,17.2996008987193
0.0176828270522347,17.3017044804244
0.0166623953687533,17.3038280770111
0.0156614799201323,17.305979320202
0.0146825478524545,17.3081651383828
0.0137278113138927,17.3103920457522
0.0127992367371007,17.3126663712947
0.0118985603841175,17.3149944291917
0.0110272962426482,17.3173826821734
0.0101867441976215,17.3198378950357
0.00937800831557169,17.3223672577106
0.00858477591932702,17.3250388319275
0.00780396734412791,17.327891298983
0.00703932960874326,17.3309463078611
0.00629477864197427,17.3342292035718
0.00557447294939163,17.3377693702284
0.00488277152318595,17.3416010463154
0.00422417801678277,17.3457642819953
0.00360322404310401,17.3503063674443
0.00302426004936576,17.3552843512685
0.00249117332903545,17.3607695300642
0.00200705343595753,17.3668558015077
0.00158134469339652,17.3735430552581
0.00130951671772506,17.3788178366686
0.00109398309508389,17.3840926180791
0.000865387474212941,17.3914154762544
0.000671741068951845,17.3997289228383
0.000515980777886005,17.4088526781529
0.000395260419926798,17.4188526781529
0.000312589018070233,17.4288526781529
0.000256932023457935,17.4388526781529
0.000220260604692527,17.4488526781529
0.000196846146928962,17.4588526781529
0.000182721446357883,17.4688526781529
0.00017519856952707,17.4788526781529
0.000172476204638955,17.4888526781529
0.00017335594736788,17.4988526781529
0.000177053372732636,17.5088526781529
0.000183076575086887,17.5188526781529
0.000191148258195147,17.5288526781529
0.000201155823147531,17.5388526781529
0.000213120812377007,17.5488526781529
0.000227183244780979,17.5588526781529
0.000243598739922654,17.5688526781529
0.000262747984711246,17.5788526781529
0.000285159770182151,17.5888526781529
0.000311550989534063,17.5988526781529
0.000342890158989301,17.6088526781529
0.000380496086697778,17.6188526781529
0.000426191971299017,17.6288526781529
0.000480968650380888,17.6385958106303
0.000543619797433438,17.6476040979702
0.000615057230533066,17.6559152461605
0.000696465167551403,17.6635832174422
0.000789213466979961,17.6706587609911
0.0008948599987848,17.6771889700736
0.00101516900584928,17.6832175516312
0.00115213699095728,17.6887850860977
0.00130802381618251,17.693929256516
0.00148538816694188,17.6986850602452
0.00168712906767594,17.7030850117862
0.00191653511272734,17.7071593383905
0.00217734409263448,17.7109361660622
0.00247381533357343,17.7144417021192
0.00281082149445319,17.7177004230669
0.00319396530155001,17.7207352717868
0.00362973330091899,17.7235678689096
0.00412570394818415,17.7262187546725
0.00469083877016365,17.7287076835349
0.00533590727237424,17.7310540068737
0.00606267647966848,17.7332456990411
0.00686660152504927,17.735269940603
0.00775897611021518,17.7371619432407
0.00875706072430193,17.738957692212
0.00988893684420735,17.7406979666215
0.0112080167273243,17.7424413201171
0.0129074173442197,17.7443738601521
0.0147517501946822,17.7462059812498
0.0163459280043674,17.7476494627814
0.0180246520489038,17.7490929443129
0.0195230820628069,17.7503642801872
0.0208595485562942,17.7515297793489
0.0220560496006978,17.7526492746889
0.0231086971888121,17.7537637388469
0.0239965205795703,17.7549129279659
0.0246783853339966,17.7561519111775
0.0250687681991637,17.7575929406049
0.024849726526482,17.7597145949518
0.0241625594190489,17.7612466466285
0.0231283874367104,17.7627786983051
0.0219484749234122,17.7641917967138
0.0206273461754326,17.7656017613237
0.0191736030655309,17.7670601214086
0.0175962258191563,17.7686041020465
0.0166096754994225,17.7695706860785
0.0156505816184321,17.7705372701104
0.0132784884068129,17.7731370987186
0.0109128646811298,17.7761257744977
0.00905276116921262,17.7788748641633
0.00757342957263148,17.7814195802902
0.00632005771071363,17.7839221170839
0.00522168998152644,17.7864755255912
0.00425524874956793,17.7891062321987
0.00340361028562881,17.7918373946482
0.00265269685527775,17.7946929038016
0.00205067594387961,17.7974022492621
0.00156244894668724,17.7999736850938
0.00115592231210673,17.8024540477303
0.000808782429809576,17.8048879397548
0.000506090672523975,17.8073111642522
0.000237011519679771,17.8097579258336
-1.03279736399878e-05,17.8123035975697
-0.000260131755279153,17.815221760515
-0.000429360296785039,17.8174299454682
-0.000584454248097976,17.8196381304215
-0.000708982353740916,17.8215490274597
-0.000814896176162325,17.8232759374371
-0.00091304006756307,17.8249619431761
-0.00101009028606331,17.8267112237692
-0.00111314833591854,17.8286577450902
-0.00123716224987264,17.8311186964109
-0.0014516144299395,17.8356599620022
-0.00162902557878965,17.8396691231105
-0.00177409437355766,17.8431055678625
-0.00192485477620734,17.8468312067642
-0.00210613395279347,17.8515763187473
-0.0022946693652714,17.8571298201265
-0.00241821946019257,17.8619439787798
-0.00247174908851916,17.8662723216395
-0.00244404503441679,17.8701488398109
-0.00232755910134083,17.8736503447516
-0.00211562051641269,17.8768616855753
-0.00180153515384359,17.8798477233095
-0.00137896395114269,17.8826539156995
-0.000837809750734911,17.8853336085972
-0.000152921337429607,17.887974935349
0.000733420737170187,17.8907173949401
0.00194542274763212,17.8937889796581
0.00347805142441537,17.8970557511961
0.00535250936485398,17.9005072888241
0.00659530691344116,17.9025523939011
0.00796130826435187,17.9045974989782
0.00937860915227534,17.9065049250666
0.0108366571715564,17.9082531520643
0.0123841414655412,17.9098935973399
0.0140809777221282,17.9114719458287
0.0159363797287517,17.912976540411
0.0179989054880723,17.9144281472663
0.0202891423097904,17.9158222734138
0.0228461998948958,17.9171657367929
0.0257020949982506,17.9184590451285
0.0288919621323509,17.9197033991223
0.0324620687193036,17.9209028759114
0.0364614248792775,17.9220602125721
0.0409459279387844,17.9231782109962
0.0459824220580416,17.924260277077
0.0516511253371337,17.9253102078286
0.0580461187558354,17.9263316656256
0.065280613382718,17.9273285441062
0.0734925295563119,17.9283050475168
0.082852013912171,17.9292657856317
0.0935752108848938,17.9302161901579
0.105940459716739,17.931162626791
0.120318384911885,17.9321130423297
0.137223085557885,17.9330779732016
0.157410231004395,17.934072541545
0.180783930996249,17.9350691124158
0.207954026254167,17.9360779938345
0.239741480021669,17.9371139109831
0.277346590476428,17.938200355729
0.321136685389332,17.9393409708811
0.362269684053503,17.9403417949775
0.396569440263869,17.9411586018737
0.42621712924582,17.9418794555657
0.452138394837819,17.9425505355276
0.474495889680105,17.9431991221795
0.49302935120087,17.9438471061596
0.507054238099889,17.9445175508224
0.515198744212907,17.9452421540729
0.51465786569885,17.9460546599602
0.503049050022033,17.9468818443433
0.479150396391455,17.9477398857883
0.441352666022006,17.9486408716719
0.387839433954566,17.949593669234
0.343795752957605,17.950245981144
0.294626684897425,17.950898293054
0.250738041095164,17.9514420922718
0.213170413498696,17.9518942589233
0.18019256736193,17.9522906504923
0.15066029389731,17.9526525278162
0.123890818370867,17.9529927406419
0.0994221523680704,17.9533203821008
0.0768861917409535,17.9536432713355
0.0559157160597132,17.9539701045242
0.035983512384426,17.9543147819392
0.0156680814732762,17.9547167997597
0.00817831372700253,17.9548832256836
0.00121319468013419,17.9550496516075
-0.00664475953204072,17.9552540376653
-0.0132398037724724,17.9554425602364
-0.0191349522372865,17.9556276434997
-0.0250954493061511,17.9558349668826
-0.0308664531163499,17.9560607698386
-0.0362822309250004,17.9563026570832
-0.0412507744448524,17.9565597314744
-0.0457240138822281,17.9568320808477
-0.0496801962709861,17.9571204887126
-0.0533339740002512,17.9574496368479
-0.0561627402116217,17.9577735413911
-0.0584762834566418,17.9581186378042
-0.0602911383347035,17.9584881985035
-0.0616215211202127,17.9588858395169
-0.0624810430815517,17.9593160206359
-0.0628812306765119,17.9597842978054
-0.0628298853682146,17.9602976947776
-0.062328986474714,17.9608653135688
-0.061369068748461,17.9615007357707
-0.0599260510522709,17.9622214815397
-0.0579508861338281,17.9630538922167
-0.0553424379455938,17.9640428790046
-0.0518488392640408,17.9652872468527
-0.0478177885166233,17.9666838352172
-0.0439188730953272,17.9680335562531
-0.0402018734509486,17.9693415760779
-0.0366907933679836,17.9706104539759
-0.0333976682649883,17.9718411906577
-0.0303275310693343,17.9730339942011
-0.0274806684685554,17.9741886864636
-0.0248538542114873,17.9753049168122
-0.0224411637095785,17.9763822722967
-0.0202346018318473,17.9774203297042
-0.0182246338764695,17.9784186731449
-0.0164006523943854,17.9793768898853
-0.0147513902758793,17.9802945513929
-0.0131903199757255,17.9812168321435
-0.0116894195670347,17.9821627998068
-0.0102530330677788,17.9831341573006
-0.00888507706364723,17.9841330692439
-0.00758926359295541,17.9851620794745
-0.00636904831522288,17.9862242068449
-0.00522757842776257,17.9873230703192
-0.00416763832282812,17.9884630580118
-0.00319159286781203,17.989649561085
-0.00230132773268006,17.9908893065614
-0.00149818545383532,17.9921908468788
-0.000782894595089084,17.9935653095544
-0.000155486842505458,17.9950276037277
0.000384808403590742,17.9965984891092
0.000822688051628625,17.9982349711501
0.00116403274779287,17.9999217631984
0.00142467888801207,18.0016772673362
0.00161900413280112,18.0035238908353
0.00176056899428531,18.0054918797387
0.00186256716993089,18.0076247397335
0.00193852656394386,18.0099908239211
0.00200375220373034,18.012713005131
0.00207984984708344,18.0160742686825
0.0021800571879089,18.0198286442249
0.00230571613540793,18.0236325745755
0.00245267205353732,18.0274057731188
0.0026174074813915,18.031202142493
0.00279641332257387,18.0350635556928
0.00298731730677727,18.0390248466448
0.00318919752310496,18.0431176020404
0.00340252050612267,18.0473725094604
0.00362894789629548,18.0518209636766
0.0038711441258186,18.0564964245591
0.00413269755054321,18.0614358589479
0.00441825572469489,18.0666810618656
0.00473399847252168,18.0722800918218
0.00505684633567948,18.0777575808705
0.00539166144384379,18.0831569448715
0.00573928485375221,18.0884454936605
0.0061035729823597,18.0936377399483
0.00648824769489545,18.0987420081698
0.00689748694116624,18.1037689603972
0.00733560204490153,18.1087259069133
0.00780717519103981,18.1136177514121
0.00831713455619517,18.1184469706659
0.00887088000064767,18.1232141372135
0.00947439256229017,18.1279182509435
0.0101343407462484,18.1325571199279
0.0108643304279547,18.1371647310163
0.0116864044377576,18.1417993532062
0.012617106503716,18.1464582234658
0.0136811314040956,18.1511606591791
0.0149147852619223,18.1559484964084
0.0163819333960768,18.1609242894741
0.0182341683069513,18.1663865159565
0.0207096231098422,18.172739359084
0.0223061204822705,18.1764995110768
0.0239434430819526,18.1802596630696
0.0253754760477529,18.1836234734062
0.0265863716531613,18.1867002044174
0.0275906087416813,18.1896589796029
0.0283386862573197,18.1924798697362
0.028819996445578,18.1952242816593
0.0290243810768232,18.1980171066035
0.0289019091063103,18.2010464536659
0.0282507831583203,18.2048697555567
0.0274247296400365,18.2077791568114
0.0263652350999142,18.2106885580662
0.0252927470071489,18.2132261997664
0.0242238363493692,18.2155453918813
0.0231530359068251,18.217750750859
0.0220814123934909,18.2198929188537
0.0210123070124926,18.2220007941679
0.0199494528215631,18.2240934910943
0.0188964622127491,18.2261849408182
0.0178566899163782,18.2282860323076
0.0168332043399693,18.2304057608167
0.0158287892441135,18.2325519158358
0.0148459563558437,18.2347315235909
0.0138869597332488,18.2369511541391
0.0129538058734114,18.2392171585955
0.0120482699024368,18.2415358439297
0.0111719016613931,18.2439136441463
0.0103260363773143,18.2463572686526
0.00951181085254282,18.2488738309139
0.00871688029691408,18.2515169011374
0.00793372898964928,18.2543376597512
0.00716611641937497,18.2573570618731
0.00641791546572914,18.260599842393
0.00569324582163856,18.2640946589237
0.00499643565467313,18.267874878341
0.00433197082755686,18.2719794945121
0.00370438801113095,18.2764544661396
0.00311808778929487,18.2813549571235
0.00257705800267412,18.286749432478
0.00208454028225399,18.2927272465103
0.00164697118542729,18.2993402981798
0.00127768502579867,18.3064372275663
0.00105318199636442,18.3121883103446
0.000821299057425431,18.3200436714755
0.000635064399550007,18.328581306604
0.000487899677555682,18.3378438336997
0.000376127518049895,18.3478438336997
0.000299845900887304,18.3578438336997
0.000248719923220039,18.3678438336997
0.000215235082959676,18.3778438336997
0.000194063583949582,18.3878438336997
0.000181538163542373,18.3978438336997
0.00017518314599029,18.4078438336997
0.000173342507038746,18.4178438336997
0.000174917156091245,18.4278438336997
0.000179192258817992,18.4378438336997
0.00018572664308939,18.4478438336997
0.000194281836591174,18.4578438336997
0.000204776818731158,18.4678438336997
0.000217260955761394,18.4778438336997
0.000231901292541941,18.4878438336997
0.000248982508015212,18.4978438336997
0.000268919463097526,18.5078438336997
0.000292284036792927,18.5178438336997
0.00031985031955998,18.5278438336997
0.000352665794050215,18.5378438336997
0.000392161926692084,18.5478438336997
0.000440327645446673,18.5578438336997
0.000497029440368172,18.5673906733217
0.000561806997634342,18.5762103857714
0.000635651068589497,18.5843475974547
0.000719793712383984,18.5918554593963
0.000815651306717255,18.5987836997375
0.000924831803718969,18.6051784671353
0.00104915554715418,18.6110825999812
0.0011906824878218,18.6165358768808
0.00135174453132732,18.6215752386261
0.00153498200452747,18.6262349968814
0.00174338735350319,18.6305470344933
0.00198035622901523,18.6345409982632
0.0022497504091343,18.6382444825211
0.00255597412198542,18.6416832120789
0.00290407134402116,18.6448812318403
0.00329985079168568,18.6478611061771
0.0037500508536142,18.6506441357096
0.00426256531845427,18.6532506095292
0.00484676203950634,18.6557001168835
0.00551395276205954,18.6580119602874
0.00625937307379664,18.6601565479048
0.00708431780829019,18.6621425581224
0.00800135031661244,18.6640052941056
0.00902972696503964,18.6657812163999
0.0102017705322797,18.667513655766
0.0115823610963173,18.6692699557771
0.0134418577433449,18.6713032968303
0.0151161988368276,18.6729187880528
0.016935564022931,18.6745342792754
0.0185854020431915,18.6759375150914
0.0200253926256494,18.6771632617214
0.0213133545894985,18.6783064672235
0.0224621179568935,18.6794191057577
0.0234614525984674,18.6805400706316
0.0242843187890984,18.6817121727373
0.0248788137259872,18.6830026464908
0.0251243935788087,18.6845753993529
0.0247639262149641,18.6864073945717
0.0238072127916472,18.6882393897904
0.0226977601396195,18.689724451579
0.0214577461621779,18.6911296450221
0.020080988345861,18.6925540484181
0.018575527026139,18.694042113892
0.0169486145070643,18.6956312514863
0.0152325909014447,18.6973677145773
0.0137907659912858,18.6989417302316
0.0114124437733934,18.7018483118919
0.00945201007235886,18.704642179622
0.00789586365032656,18.7072260225905
0.00660130668947409,18.7097212539002
0.00546882689405976,18.7122596806162
0.00447295066474204,18.7148698238702
0.00359560395682673,18.7175749380247
0.00282210323156018,18.7203985861061
0.00218288710370834,18.7231632718477
0.00166793158258936,18.7257795993721
0.00124234703208005,18.7282923294174
0.000881337138483121,18.7307479122608
0.0005684173289388,18.7331832621679
0.000292412478752169,18.7356268439525
4.28133257541707e-05,18.7381289740073
-0.000197549693779317,18.7408546627397
-0.000396030152948632,18.7433801219844
-0.000540570093047072,18.7453962188639
-0.000674693528796375,18.7474123157433
-0.000786546910145159,18.7492066615555
-0.000886606212723408,18.7509018461496
-0.000982625452682156,18.7526097162727
-0.00108091822691214,18.7544402338063
-0.00119086981456489,18.7565846313026
-0.00134508333502162,18.7597566197428
-0.00151379189522616,18.76342996158
-0.00164923964656708,18.766520222932
-0.00177934187528968,18.7696001070025
-0.00192335942913709,18.7731405797764
-0.0020966288814805,18.7776277438538
-0.00229200522535927,18.7832544457979
-0.00242300830838495,18.7881308176212
-0.00248477174963769,18.792515122071
-0.00246569175137356,18.7964386258206
-0.00235799430455202,18.7999803093289
-0.00215489949376232,18.8032264715401
-0.0018499605283452,18.8062407897768
-0.00143722753883317,18.8090689615692
-0.00090778236525371,18.8117617209555
-0.000241230704094741,18.8143949548378
0.000615564495275943,18.8171067739373
0.00179795838297024,18.8201638792421
0.00329152445023521,18.8233993779169
0.00513108931980762,18.826833638007
0.00641609440064287,18.8289742997118
0.00783094204200752,18.8311149614166
0.00923001355615622,18.8330173578775
0.0106846440694576,18.8347821820226
0.012218411388964,18.8364291427859
0.0138937908794842,18.8380095488906
0.0157305550682899,18.839521503573
0.0177705402556626,18.8409796849587
0.0200355242033412,18.8423805201957
0.0225635132208761,18.8437303150101
0.0253847400528316,18.8450289457004
0.0285369431800581,18.8462789955967
0.0320643251358186,18.8474838217347
0.036015137842454,18.8486461338624
0.0404430218780546,18.8497683917936
0.0454163891971946,18.8508546796526
0.0510129457741857,18.851908471202
0.0573250184149591,18.852933405476
0.0644636492420297,18.8539333577878
0.0725631720948475,18.8549124147059
0.0817912827954827,18.85587530245
0.0923585919598724,18.8568273281351
0.104536335867989,18.8577747618413
0.118684733300929,18.8587254017885
0.135301394610687,18.8596895209688
0.155114718378345,18.8606818068386
0.178125485890072,18.8616788719742
0.204863559826014,18.8626872705518
0.236126598826077,18.8637213090527
0.273068777596462,18.8648034614572
0.316351184499832,18.8659442751779
0.358158400506006,18.8669696082437
0.392903802522241,18.8678002007138
0.422864227096328,18.8685288296335
0.449062415439313,18.8692045427304
0.471704129101869,18.8698555186765
0.490562660375925,18.8705037897552
0.504998916714781,18.8711719890566
0.513730542550309,18.8718903589799
0.514078577224101,18.8727033659374
0.503459567577667,18.8735292919055
0.480692503375608,18.8743845334193
0.444203682507713,18.8752814966941
0.392197420173472,18.8762291608162
0.34785759498661,18.876896812675
0.298044968973259,18.8775644645339
0.253597191160063,18.8781184025708
0.215664009827743,18.8785763662819
0.182430205245469,18.8789762996158
0.152700260995788,18.8793404770031
0.125769005755873,18.8796821821568
0.101164843191034,18.8800106876253
0.0785170677337317,18.8803338356132
0.0574634767004342,18.8806601482808
0.0375020993396291,18.8810027972906
0.0173669771714432,18.8813969650817
0.0088858542394719,18.8815836234339
0.00106454036899954,18.8817702817861
-0.00698561797717992,18.8819806621441
-0.0135385513203591,18.8821691642731
-0.0194435272491144,18.8823558230434
-0.0253955334339799,18.8825644527669
-0.0311461464768127,18.882791388289
-0.0365349535133728,18.8830343350774
-0.0414731144877561,18.8832924611427
-0.0459144415794715,18.8835658988055
-0.0498378442761445,18.8838554655759
-0.0534805003667486,18.8841885117899
-0.0562731726044631,18.8845140106594
-0.0585514148356498,18.8848608516606
-0.0603321309468818,18.885232381218
-0.0616295303608241,18.8856322657751
-0.0624571164917939,18.8860650283692
-0.0628262096073003,18.8865363076434
-0.0627442919483742,18.8870532394367
-0.0622127538772864,18.8876251791143
-0.0612213229295041,18.8882658924994
-0.0597447434037354,18.8889933172334
-0.0577317858075733,18.8898345807547
-0.0550762295606308,18.8908364382798
-0.0515078473409969,18.892104323585
-0.0474863809882617,18.8934970057774
-0.0436014409344037,18.8948434285564
-0.0399007239729515,18.8961483591929
-0.0364071110978548,18.8974142213494
-0.0331320087992706,18.8986419492735
-0.0300800349398595,18.8998317196742
-0.0272511710075048,18.9009833412767
-0.0246419545393403,18.9020964596359
-0.0222462766314831,18.9031706623939
-0.0200560015375708,18.9042055284677
-0.0180614926811261,18.9052006438543
-0.0162520754625739,18.9061555962722
-0.0146164464312748,18.9070699553317
-0.0130599225715685,18.9079941027788
-0.0115639753624343,18.9089420300471
-0.0101328585459447,18.9099155074858
-0.00877047465566788,18.9109167268671
-0.00748051710034057,18.9119482661942
-0.0062664187768805,18.9130131871896
-0.00513129979757511,18.9141151633359
-0.00407791295880986,18.9152586531937
-0.00310858679966513,18.9164491407141
-0.00222516562965178,18.9176934780144
-0.00142894512805273,18.9190003910628
-0.000720600722790345,18.9203812568184
-0.000100103281088544,18.9218513596196
0.000433388990041896,18.923432058186
0.000862895597084283,18.9250718783933
0.00119725906032967,18.926763530701
0.0014521299475409,18.9285254890886
0.00164180903653169,18.9303806695507
0.0017798112601309,18.9323601379536
0.00187933037476881,18.934508851245
0.00195397434276519,18.9368980594093
0.0020193224996686,18.9396576882143
0.0020980316623035,18.9430961355424
0.00220074600096325,18.9468613720669
0.00232853111709414,18.9506566395429
0.00247751469455699,18.954430177547
0.00264411451811443,18.9582336522479
0.00282488399080658,18.9621075671246
0.00301756194806404,18.966086098011
0.00322134766304681,18.9702005731301
0.00343682548587054,18.9744816933768
0.00366576838059672,18.9789610655419
0.0039109541842868,18.9836725690064
0.00417610687496884,18.9886537924063
0.00446606785115991,18.9939473502517
0.00478731954002184,18.9996022976358
0.00511080949869165,19.0050424479377
0.00544822648463422,19.0104311881545
0.00579837187344028,19.0157005999369
0.00616595609637063,19.0208781626693
0.00655451946564713,19.0259687036079
0.00696834943749085,19.0309835571142
0.00741177615072823,19.0359293059967
0.00788944373284938,19.0408105264737
0.00840635202963009,19.0456293318634
0.00896799396636202,19.0503860220462
0.00958045983300865,19.0550793690076
0.0102505459619149,19.0597070357846
0.0109950292717992,19.0643200864765
0.0118338447436292,19.0689578472769
0.0127849204678957,19.0736223683455
0.013874315636893,19.0783351570958
0.0151413894522747,19.0831446620415
0.0166580002259528,19.0881712311266
0.0186083494704093,19.0937862758454
0.0210853619883807,19.1000222375488
0.022650717059748,19.1036750893605
0.0242408723940678,19.1073279411722
0.0256262937649914,19.1106170806038
0.0267970140171259,19.1136594512893
0.0277603098024466,19.1166110434351
0.0284554016341217,19.1194083874305
0.0288834405285451,19.1221516734709
0.0290289086798963,19.1249724719813
0.0288279624860392,19.1280884811274
0.0279802911906901,19.1323118917153
0.0271216204672191,19.1350554464081
0.0260698538148118,19.137799001101
0.0250014651647748,19.1402562634843
0.0239324039768245,19.1425368027612
0.0228611403952321,19.1447211174921
0.0217898503770585,19.1468515667781
0.0207220890453415,19.1489536404576
0.0196615834785022,19.1510447300666
0.0186118830641776,19.1531377803558
0.0175762654692739,19.1552430748816
0.0165577209080365,19.1573692240894
0.0155589579832808,19.1595237712287
0.0145824165682853,19.1617135915514
0.0136302830538765,19.1639451716431
0.012704499258917,19.1662248336208
0.0118067777456063,19.1685589028728
0.010938610354172,19.1709538681773
0.0101012754800393,19.1734165371884
0.00929585709841333,19.1759541579607
0.00850371482302332,19.1786435147636
0.00772439391686385,19.181515775933
0.00696163436425005,19.1845930244402
0.00621937812668571,19.1879009902985
0.00550180672915418,19.1914695173705
0.0048132970097263,19.1953333963263
0.00415836192275298,19.1995333488038
0.00354152693550977,19.2041175215975
0.00296710730385111,19.2091441920645
0.0024389232940636,19.2146865257528
0.00195996969234205,19.22084139369
0.00154147418502387,19.2275757637675
0.00125674154684679,19.2332934085531
0.00103817820097332,19.2390110533387
0.000809072515711866,19.2469087997454
0.000622907509117047,19.2556095567686
0.000478381877725978,19.2649273974485
0.000369475886299454,19.2749273974486
0.000295222230397092,19.2849273974486
0.000245513922292065,19.2949273974486
0.000213008724590696,19.3049273974486
0.000192511303946575,19.3149273974486
0.000180451293428099,19.3249273974486
0.00017442036941379,19.3349273974486
0.000172808107741121,19.3449273974486
0.000174546332146041,19.3549273974486
0.000178941570594597,19.3649273974486
0.000185567780079646,19.3749273974486
0.000194197472186225,19.3849273974486
0.00020475784088777,19.3949273974486
0.00021730467928745,19.4049273974486
0.000232010426858062,19.4149273974486
0.00024916475121246,19.4249273974486
0.000269187669579208,19.4349273974486
0.000292656986690235,19.4449273974486
0.000320354219947062,19.4549273974486
0.000353336787935499,19.4649273974486
0.000393050119376019,19.4749273974486
0.000441503564588186,19.4849273974486
0.000498429217868856,19.4944520892733
0.000563456449556732,19.5032504840121
0.0006375854994443,19.5113679971396
0.000722054103948833,19.5188576970966
0.000818284206700189,19.5257692043158
0.000927889803413318,19.5321485669891
0.00105269803583754,19.5380385304586
0.00119477656634968,19.5434787868437
0.00135646607254705,19.5485061964205
0.00154041685067503,19.5531549961054
0.0017496327728691,19.5574569996357
0.00198752262610908,19.561441790128
0.00225796342426965,19.5651369035132
0.00256537726665821,19.5685680116494
0.00291482931304373,19.5717591122438
0.00331215383683895,19.5747327286095
0.00376412061358742,19.5775101272515
0.00427866291035228,19.5801115715252
0.00486519974596462,19.5825566356508
0.00553511163920066,19.5848646219785
0.00628282694804917,19.5870038724072
0.00711037299568101,19.5889856049663
0.00803048028233958,19.5908451494909
0.00906267712163756,19.5926190581565
0.0102398797387542,19.5943510473585
0.0116300896783347,19.5961114853608
0.0135131740216486,19.5981606721323
0.015168206286605,19.5997516828521
0.0169626749140304,19.6013426935718
0.0186059713679173,19.6027399671718
0.0200433969042577,19.6039639235168
0.0213293987179089,19.6051064144954
0.0224761910850023,19.6062189197954
0.0234732993049736,19.6073402823351
0.0242934304041366,19.6085134763654
0.0248841864275283,19.6098063354801
0.0251231849428609,19.6113855595959
0.0247549155235987,19.6132137092562
0.0237945178722465,19.6150418589164
0.0226834846960103,19.6165252474871
0.0214418679149683,19.6179303370736
0.0200635912362215,19.619355262426
0.0185567198372026,19.6208442742142
0.0169284534838996,19.622434810996
0.0152117529753728,19.6241733114386
0.0137287090400438,19.6257959292176
0.0113600383634066,19.6287012012563
0.00941098560934802,19.631489013215
0.00786281901744664,19.6340686355763
0.00657244704330014,19.6365644925725
0.00544341899760605,19.6391043317619
0.00445051823255971,19.6417164448741
0.00357577006603699,19.644424071274
0.00280455397996781,19.6472508026827
0.00217006770922203,19.650005516195
0.00165846342701753,19.6526131307214
0.00123524846093633,19.6551185160242
0.000875969360758921,19.6575677009871
0.000564324897368562,19.6599975005593
0.000289160431360175,19.6624372799797
3.98183102375115e-05,19.6649402163359
-0.000201506989254173,19.6676813166791
-0.000395930073705674,19.670157342908
-0.000571955199987905,19.6726333691369
-0.000703007772335934,19.6746348412428
-0.00081071263463262,19.6763864770739
-0.00090907132273323,19.6780727192799
-0.00100518392542792,19.6798012234316
-0.00110569437969586,19.6816938356256
-0.00122263222080901,19.684002679177
-0.00142762385291631,19.6883100229516
-0.00160481784191813,19.692278087837
-0.00174668184352778,19.6956055910092
-0.00189045654871593,19.6991135364089
-0.00205899474087182,19.7034307258847
-0.00226136657288967,19.7091230944264
-0.00240234522470584,19.7140859995716
-0.00247635669614235,19.7185494417483
-0.00247129984706215,19.72254157235
-0.0023789868827271,19.726137545638
-0.00219266168077409,19.7294235013896
-0.00190557551707094,19.732470205109
-0.00151171593768815,19.7353240728344
-0.00100309948752282,19.7380329253503
-0.000361031144837361,19.7406710054355
0.000459826818738322,19.7433602419338
0.00158571682309059,19.7463627756456
0.00302478834895824,19.74956481276
0.00481365765062253,19.7529838203255
0.00608952850611997,19.7551599646109
0.0074928294125974,19.7573361088962
0.00891524359017245,19.7593209646377
0.0103458935413146,19.7611040914955
0.0118589655797107,19.7627763917029
0.0135040364321145,19.7643757966224
0.0153005275806156,19.7659016868883
0.0172927987571313,19.7673724416579
0.0195034231431857,19.7687853189217
0.0219700391200888,19.7701468095895
0.0247199363864185,19.7714556164882
0.0277940704649531,19.7727162601945
0.0312334217945442,19.7739310380796
0.0350831972474517,19.7751021517325
0.0393977268284741,19.7762327991548
0.044242085461875,19.777326720187
0.0496909430678926,19.7783873222672
0.0558329450925726,19.7794182004439
0.0627741395754784,19.7804231286707
0.070642914183352,19.7814061418028
0.0795990660794793,19.782371880307
0.0898417885929436,19.7833254486618
0.101626234008707,19.7842728392229
0.115288536927564,19.7852214105645
0.131287981076439,19.7861807038849
0.150286565868812,19.7871640891266
0.172528290220435,19.7881594943293
0.198343851257327,19.7891634761733
0.228473810777333,19.790189090888
0.263961582481471,19.7912561041186
0.306375695925712,19.7923974253371
0.340991746199847,19.7932603757309
0.376946053456983,19.7941233261247
0.408957356856911,19.7948898456204
0.436979016914588,19.7955865786134
0.461411435688736,19.7962461560837
0.482219473644622,19.7968924673347
0.498980213727307,19.7975471525121
0.510778441907862,19.7982356068344
0.515767201494596,19.7989969858316
0.510875006658292,19.7998137001221
0.494482928565989,19.8006518515053
0.465201648004514,19.8015261098843
0.421316735836782,19.8024468896705
0.374424114959486,19.8032236361563
0.331161120820509,19.8038428046801
0.283554429463884,19.8044619732039
0.241433027952381,19.8049792563318
0.205102581564354,19.8054158597666
0.173022585694826,19.8058028642925
0.144195770514425,19.8061588639042
0.118008430426792,19.806495526037
0.0940299018556273,19.8068214645259
0.0719014663840976,19.8071444851239
0.0512398685596365,19.807473922684
0.0314283994136324,19.8078263535272
0.0103780629067645,19.808260048775
0.000794423016229209,19.8084871791455
-0.00784277556553619,19.8087143095161
-0.014306845354885,19.8089022469575
-0.0202413336344183,19.8090920714206
-0.0261819833340016,19.8093032199924
-0.031894445027934,19.8095322528675
-0.0372299988300866,19.8097771112678
-0.0421067410312512,19.8100371141137
-0.0464826069532065,19.8103124959342
-0.0503382030278032,19.8106041518713
-0.053910763532116,19.8109401492371
-0.056635766064209,19.8112682798675
-0.0588479261119969,19.8116181053699
-0.0605643068880982,19.8119930600327
-0.0617991250841453,19.812396913704
-0.0625656902149975,19.8128343214937
-0.0628749196329986,19.8133110967054
-0.0627336435422716,19.8138346147839
-0.0621419990616358,19.8144147626798
-0.0610879973497728,19.8150657225788
-0.0595437387137984,19.8158063625294
-0.0574529348960877,19.8166656027507
-0.054697147364817,19.8176945542994
-0.0509590050265832,19.8190154606197
-0.0469516702610352,19.8204010243033
-0.0430895493049349,19.8217414334134
-0.0394158908876016,19.8230408614826
-0.0359514906461275,19.824301443765
-0.0327066034312011,19.8255239669222
-0.0296851021254599,19.8267085336033
-0.0268864321455649,19.8278549172621
-0.0243067240821287,19.8289627485443
-0.021939556387127,19.8300316103779
-0.0197765580239066,19.8310610812545
-0.0178079241690509,19.8320507473981
-0.0160228711625935,19.833000195014
-0.0144100384222445,19.8339089887413
-0.012861249037994,19.8348362484105
-0.0113737139054972,19.835787447579
-0.00995153786136715,19.8367644690539
-0.00859859929503247,19.8377695506219
-0.00731856001565618,19.8388053282949
-0.00611481456149418,19.8398749367419
-0.00499043762929772,19.8409821424131
-0.00394812924561609,19.8421315242718
-0.00299015748111184,19.8433287252647
-0.00211829800973214,19.8445808124958
-0.00133376897932376,19.8458968112255
-0.000637158143215833,19.8472885305326
-2.83362827679357e-05,19.8487719084145
0.000493655318929079,19.8503693550631
0.000909175516072427,19.85201497182
0.00123183937733911,19.8537150012711
0.00147699884881605,19.8554880797423
0.00165882589134022,19.8573580160914
0.00179075907792387,19.8593573288931
0.00188599271298089,19.8615335746142
0.00195827398053283,19.8639632803263
0.00202367454756823,19.8667896090308
0.00210688902698132,19.8703720366241
0.00221352735699029,19.8741609731062
0.00234455962265943,19.877951305229
0.0024962035638889,19.8817256778591
0.00266477355267893,19.8855345597942
0.00284696605466219,19.8894175836007
0.00304074502116705,19.8934085056955
0.00324553312953782,19.8975384975117
0.00346210507675573,19.901838292168
0.00369238334937363,19.9063396624778
0.00393926432424673,19.9110767991413
0.00420658232302321,19.9160877435968
0.00449931695553965,19.9214157082917
0.00482087099306383,19.9270532831148
0.00514559285908073,19.9324884513408
0.00548413252547868,19.9378650907309
0.00583584538761317,19.9431247023285
0.00620535290507082,19.9482928896351
0.00659627560820736,19.9533753062516
0.00701290298417133,19.9583828051446
0.00745959410635658,19.9633217747734
0.00794102438091073,19.968196521778
0.00846223902825889,19.9730089593609
0.00902878741254878,19.9777592167837
0.00964682715819595,19.9824459311334
0.0103232340886682,19.9870666863364
0.0110767999243168,19.9916831020619
0.0118335204789055,19.9958415510309
0.0126757337323233,20
