ecg,time
0.000233239659032147,15.0004935006519
0.00019717396558469,15.0104935006519
0.000173592871776107,15.0204935006519
0.00015870781602837,15.0304935006519
0.000149939367510036,15.0404935006519
0.00014554625650645,15.0504935006519
0.00014435488948458,15.0604935006519
0.000145577708822698,15.0704935006519
0.000148695202217753,15.0804935006519
0.000153378809918748,15.0904935006519
0.00015943957935644,15.1004935006519
0.000166793848577994,15.1104935006519
0.000175441070412169,15.1204935006519
0.000185450870408311,15.1304935006519
0.000196957537682153,15.1404935006519
0.000210160962923818,15.1504935006519
0.000225333807761273,15.1604935006519
0.000242835523039453,15.1704935006519
0.000263134843047828,15.1804935006519
0.000286843759432607,15.1904935006519
0.000314768055406581,15.2004935006519
0.00034798284622923,15.2104935006519
0.000387947309314365,15.2204935006519
0.000436682987619724,15.2304935006519
0.000493558335693097,15.2399635186423
0.000558425669596485,15.2487119059061
0.000632277685219776,15.2567854580425
0.000716327840546471,15.2642364666465
0.000811968631609045,15.2711138201195
0.000920780848003389,15.2774629366948
0.00104455467736033,15.2833260146286
0.00118531648876935,15.2887422643553
0.0013453606029355,15.2937481147931
0.00152728463538595,15.2983774120705
0.00173403236484687,15.302661612856
0.00196894312234821,15.3066299707493
0.0022358128696897,15.3103097120483
0.00253896768336757,15.3137262117992
0.00288335708196068,15.3169031768052
0.00327467356971445,15.319862836056
0.00371950883619895,15.322626145235
0.00422556639374719,15.3252130228089
0.00480195907534254,15.3276426370941
0.00545964259437564,15.3299337792133
0.00619681540322476,15.3320651372014
0.0070115450870453,15.334034613503
0.00791521908822033,15.3358762530821
0.00892504334202814,15.3376245413053
0.0100688569028158,15.339318426541
0.0113991264211663,15.3410133447935
0.0131134966101678,15.3428938536211
0.0150339649521448,15.3447304081647
0.016667630682133,15.3461510031143
0.0183901119889757,15.3475715980639
0.019929695850532,15.3488228068737
0.0213035435136368,15.3499687762411
0.0225352344332408,15.3510690948149
0.0236215090107379,15.352164387651
0.0245416036198548,15.3532939265386
0.0252544352112874,15.3545120090718
0.0256746104933046,15.3559291400367
0.0254868097766019,15.3580142681131
0.0248080676384786,15.3595303761389
0.0237724197111777,15.3610464841648
0.0225850524896513,15.3624447090586
0.0212508268726782,15.3638415786148
0.0197783326847142,15.3652887570423
0.0181764360351244,15.3668237292043
0.0171613310914785,15.3677970728021
0.0161711160403184,15.3687704164
0.0145030837458495,15.3705159440328
0.0119588381509258,15.3735115608513
0.00988157727335903,15.37637329409
0.00825231126402537,15.3789962820458
0.00692343543270824,15.3814831649231
0.00576439800278622,15.3840057544717
0.00474714065915803,15.3865948528528
0.00385267375810845,15.3892738461558
0.003109450828564,15.3918979435468
0.00250818690400342,15.3943848043171
0.00201221328008259,15.3967671546796
0.00159324302804532,15.3990883237311
0.00122877474814814,15.4014073467475
0.000898313849297673,15.4038214875925
0.000572486979240789,15.4065772918156
0.000340405365554884,15.4088304753718
0.000134350030830089,15.4110836589279
-2.33000291382264e-05,15.4130002149292
-0.000152220568324317,15.4147124600395
-0.000267743862826142,15.4163727764915
-0.000378093598868623,15.4180834017722
-0.000490628339190755,15.4199677154281
-0.000618187583955532,15.4222943466536
-0.00083712471589362,15.4268304583605
-0.00101402462520811,15.431091083295
-0.0011467029901837,15.4347078537914
-0.00127247371872889,15.4385400134337
-0.00141366022320779,15.443460863041
-0.0015402645861402,15.4488921818756
-0.00161556533906459,15.4536706369856
-0.00163809224762432,15.4579901358844
-0.00160046853827391,15.4618733552772
-0.00149567476635108,15.4653694927088
-0.00131677177612715,15.4685392332434
-0.00105606858749276,15.47144633267
-0.000703560737036188,15.4741558664351
-0.000244325537229017,15.476735469482
0.000347179883261363,15.4792649552257
0.00111816266974628,15.4818504198803
0.00218286605004937,15.4847055602849
0.00359598784103457,15.4877993852003
0.00535923751390599,15.4910310755766
0.00664862647160088,15.4930940995422
0.00809080536840213,15.4951571235079
0.00957590775283165,15.4970417701203
0.0111432435266868,15.4987973775475
0.0127731167384885,15.5004006614176
0.01456517065157,15.5019421564148
0.0165310421197607,15.5034129831639
0.0187106983780049,15.5048261822194
0.0211416679618805,15.5061880967995
0.0238493445316303,15.507496433305
0.0268777325273186,15.5087572935606
0.0302666129555436,15.5099723569222
0.0340590670425412,15.5111432199697
0.0383120664934707,15.5122740359449
0.0430875220609969,15.513367813421
0.0484580909292339,15.5144277934259
0.0545079099010485,15.5154571146305
0.0613418482456575,15.5164598389327
0.0690844649217953,15.5174399073993
0.0778882669641037,15.5184016153264
0.0879431426179913,15.5193497792556
0.0994898581743035,15.5202899442487
0.112842393570231,15.521228838435
0.12842331674969,15.5221749958051
0.14682605887835,15.5231399002581
0.168581385183139,15.5241253554111
0.193792221542419,15.5251156664394
0.223138886591222,15.5261220186348
0.257548622511874,15.5271606865509
0.298448941763509,15.5282598306212
0.335016615354549,15.5291608067596
0.373503543033687,15.5300617828981
0.407388039541157,15.5308436688078
0.436877241278409,15.5315422039342
0.462660175721078,15.53219661155
0.484848936454303,15.5328330385135
0.503131727276557,15.5334735243697
0.516732749359198,15.5341426275709
0.524063139488545,15.5348767490957
0.522049687589952,15.5356828456262
0.50866948332538,15.536508351274
0.482597013783821,15.5373695081945
0.442100555180078,15.5382782136016
0.385252155318006,15.5392430424137
0.340867215782878,15.5398760928449
0.291776485023514,15.5405091432762
0.248044752093284,15.5410393760175
0.210552246055756,15.5414829101878
0.177608054348077,15.541873352363
0.148094652147532,15.5422308539847
0.121337630351053,15.54256777906
0.0968750000833913,15.5428930292753
0.0743324823378904,15.5432144446721
0.0533253626350429,15.5435410691849
0.0332693016157862,15.5438881968335
0.0123879183301906,15.5443045417886
0.00126173217924824,15.544560094462
-0.00610510467704905,15.5447473078822
-0.0128377442817261,15.5449345213023
-0.0187094672085512,15.5451135193733
-0.0247112314433944,15.5453156195569
-0.0305648195978542,15.5455367402245
-0.0360855429999179,15.5457741577391
-0.0411700290229159,15.5460267594968
-0.0457634451173196,15.5462944843823
-0.0498399676950667,15.5465780009965
-0.0533862126652883,15.5468785482342
-0.0564621444334335,15.5472058864661
-0.0589126822654822,15.5475438598911
-0.0608579587510198,15.5479053412008
-0.0623132875844066,15.5482938966366
-0.0632926860138618,15.5487137681619
-0.0638084116287173,15.5491702285465
-0.063869362861915,15.5496699229341
-0.0634791229613435,15.5502213915568
-0.062631333168951,15.5508370630546
-0.0613054950169109,15.5515333835712
-0.0594591113270987,15.5523342545318
-0.057005706585713,15.5532790930689
-0.0537426215375515,15.5544485185885
-0.0496599316565254,15.5558606681678
-0.0456934255790772,15.5572233248657
-0.0418997436788117,15.5585437036671
-0.0383073924085158,15.5598248230376
-0.0349309300652931,15.5610678976652
-0.0317770722125775,15.5622732281059
-0.0288473642086998,15.5634406665127
-0.0261395708426036,15.5645698617087
-0.0236485532726892,15.5656603866045
-0.0213669249327074,15.5667118003274
-0.0192855992854307,15.5677236721294
-0.0173942710635586,15.5686955815137
-0.0156818441688107,15.5696271024911
-0.0140969556384021,15.5705414715384
-0.0125704208850782,15.5714791512147
-0.0111069751827875,15.5724415576628
-0.0097105862120585,15.573430743936
-0.00838503584048135,15.5744491137889
-0.00713386600045292,15.5754995108604
-0.00596032707960521,15.576585332058
-0.00486732392997952,15.5777106796759
-0.00385735945884266,15.5788805700958
-0.00293247533610316,15.5801012277766
-0.00209418868956391,15.5813805125321
-0.0013434224906878,15.5827285643105
-0.000680425153168172,15.5841588221262
-0.000104670434711039,15.5856897306446
0.00037630013305616,15.5873131496939
0.000754664554086805,15.5889805789669
0.00104718614585671,15.5907103227152
0.00126864240467718,15.5925228203768
0.00143288256233034,15.5944452040936
0.00155323257454745,15.596515570965
0.00164309746585598,15.5987917869492
0.00171707930416997,15.6013724279963
0.00179396306605703,15.6044616510806
0.00189541037441206,15.6081949692239
0.00202510190076206,15.6121253808157
0.00217775576473717,15.6160255744817
0.00234466377728591,15.6198296579964
0.0025224839402139,15.6236140301473
0.0027090031576822,15.6274314220974
0.00290333468455843,15.6313219102876
0.00310581889143705,15.6353194834656
0.00331781872448771,15.6394554786348
0.00354151315223517,15.6437606845439
0.00377973518375339,15.6482668508252
0.00403591186470072,15.6530080814655
0.00431417651131127,15.6580222825397
0.00461972572746975,15.6633524400263
0.0049512729622473,15.6689109978926
0.00528820102467577,15.6742977732198
0.0056393851093115,15.679619979942
0.00600498457134753,15.6848334309747
0.00638953372459983,15.6899589020449
0.00679689658233893,15.6950023378701
0.00723155638393529,15.6999732729052
0.00769814465671532,15.7048774255225
0.008201642849664,15.7097183829276
0.00874744457141594,15.7144974245968
0.00934148164749593,15.7192140607176
0.00999033548611146,15.7238664427369
0.010704294619095,15.7284699480503
0.0115076272086786,15.7331037595492
0.0124154010078504,15.7377598898636
0.0134509345552188,15.7424557400252
0.0146475086022949,15.7472267925113
0.0160614716178931,15.7521591626595
0.0178169045921339,15.7574904942212
0.0202847912545182,15.7639828643729
0.0219193482011326,15.7678892063867
0.0236121946313588,15.7717955484005
0.0250909356883436,15.7752509992875
0.0263393318437684,15.7783723594473
0.0273806674107817,15.7813474757067
0.0281781648337259,15.7842007679354
0.0287084026425169,15.7869559008424
0.0289657660403651,15.7897336445322
0.0289108027485701,15.7927020165347
0.0283961157601929,15.7962803553137
0.0275962422509202,15.799361807495
0.0265220440962165,15.8024432596762
0.0254427847832843,15.8050568955344
0.0243729748258031,15.8074116443405
0.0233022056198725,15.8096377229838
0.0222303071290733,15.8117933664885
0.0211603789017032,15.8139103223482
0.020096133553988,15.8160090885018
0.0190412190459879,15.8181043764623
0.0179990417274337,15.8202075508535
0.0169727248852602,15.8223279095024
0.0159651063908216,15.8244734361742
0.0149787510479236,15.8266512756326
0.0140159624589612,15.8288680649106
0.0130787957381791,15.8311301756125
0.0121690724562644,15.833443897031
0.0112883849091507,15.8358156143051
0.0104381115487159,15.8382519435186
0.00961942582315206,15.8407598776549
0.00882442683058653,15.8433772848381
0.0080406354159684,15.8461692183458
0.00727182410027485,15.8491558908455
0.00652181489741012,15.8523613781482
0.00579467592746503,15.8558135479231
0.00509468910832781,15.8595447965725
0.00442630015506604,15.8635929339244
0.00379402178542405,15.8680024185481
0.00320226353348497,15.8728263653188
0.00265506716884629,15.8781302318052
0.00215578360558483,15.8839985831992
0.00170685480841745,15.8905458933297
0.00132719862567979,15.8975664900449
0.00101925635897562,15.9051500224228
0.000772231581098214,15.9137399759318
0.000605082795282617,15.9217341191955
0.000459464932480138,15.9311855083029
0.000351001007999132,15.9411855083029
0.000276406185261646,15.9511855083029
0.000225865420280142,15.9611855083029
0.000192209132053619,15.9711855083029
0.000170307431677443,15.9811855083029
0.000156599744203573,15.9911855083029
0.00014866614816129,16.0011855083029
0.000144875300531042,16.0111855083029
0.000144129196073543,16.0211855083029
0.00014569272376368,16.0311855083029
0.000149083339102125,16.0411855083029
0.000153999061528161,16.0511855083029
0.000160270552290628,16.0611855083029
0.000167829187027225,16.0711855083029
0.000176686624801407,16.0811855083029
0.00018692320678188,16.0911855083029
0.000198683549925286,16.1011855083029
0.000212178485906151,16.1111855083029
0.000227693259615703,16.1211855083029
0.00024560274910695,16.1311855083029
0.000266395518654112,16.1411855083029
0.000290709974917724,16.1511855083029
0.000319388125004371,16.1611855083029
0.000353556078885601,16.1711855083029
0.000394746693009007,16.1811855083029
0.000445090940818377,16.191185508303
0.000503221042429986,16.2005421094406
0.000569476891163376,16.209181284377
0.00064490094624077,16.2171538659845
0.000730736448129894,16.2245117374587
0.00082840561549208,16.2313032461099
0.000939521638357841,16.237573303124
0.00106591104103238,16.243363635621
0.0012096413271242,16.2487130148636
0.00137305348009758,16.2536574604635
0.0015587981291576,16.2582304386359
0.00176987969095613,16.2624630551064
0.00200970724280946,16.2663842399823
0.00228215739187029,16.2700209228728
0.00259165077817706,16.2733982100078
0.00294324878952846,16.2765395687715
0.00334277854471674,16.2794670197222
0.0037969967035032,16.2822013452389
0.00431381347225433,16.2847623327476
0.00490260836129299,16.2871690729622
0.00557469351257812,16.2894403530405
0.00632395747371131,16.2915438124659
0.00715232746808697,16.2934908723647
0.00807201876006661,16.2953156734399
0.00910152858128368,16.2970530361965
0.0102714036281043,16.2987435191365
0.0116432147582744,16.3004501620729
0.0134579556862667,16.3023925812402
0.0152459432577909,16.3040733668167
0.0172053396277175,16.3057541523932
0.0189154920992418,16.3071530254943
0.0203965144744096,16.3083628779666
0.0217211549381838,16.3094888496207
0.0229047989321328,16.3105837588113
0.0239379537971694,16.3116862164266
0.0247940174036253,16.3128383229251
0.0254217251611967,16.3141056923671
0.0257030338928528,16.3156464563413
0.0253702408508957,16.3174670573683
0.024419402157265,16.3192876583954
0.0233062824112589,16.3207593793592
0.0220577502940828,16.3221514469075
0.0206672672756133,16.3235641136248
0.0191427414372321,16.3250421348395
0.0174912575022692,16.3266232637669
0.0161013338803629,16.3279853370576
0.0147922652478495,16.3293474103483
0.0122945575521697,16.3322333927054
0.0101501046471725,16.3351217683378
0.0084663751014865,16.3377732499878
0.00710929680684167,16.3402577448997
0.00592725612582124,16.3427726195476
0.00489025866436738,16.34535040139
0.0039785860681924,16.3480146691499
0.00321303989170466,16.3506517238709
0.00259454467286729,16.3531496871766
0.00208543793924453,16.3555395282452
0.00165644524344685,16.3578636995945
0.00128447853365692,16.3601790746576
0.000948754676869171,16.3625784752086
0.000621106807276766,16.3652869208646
0.000377873937370165,16.3675973273851
0.000162755715475918,16.3699077339056
1.02913365799496e-06,16.3718442048368
-0.000130102305354499,16.3735617911119
-0.000247122444075222,16.3752216993328
-0.000358520394873691,16.376927012968
-0.000471649258362365,16.3787983307065
-0.00059884076684501,16.3810901561559
-0.000814423020769834,16.3854973749995
-0.000988480425656836,16.3896258211846
-0.00111814922941395,16.393099569287
-0.00124075577606543,16.3967595759054
-0.00137658195473122,16.4013611279598
-0.00151305471460835,16.4069563803301
-0.00159639053593603,16.4118128434067
-0.00162831415238807,16.4162146367607
-0.00160146394657424,16.4201692358559
-0.00150881646770145,16.4237301344418
-0.0013435655127758,16.4269521302968
-0.00109822524714946,16.4299001911687
-0.000763286545913895,16.4326394191377
-0.000324814266911819,16.435237035828
0.000240621551083291,16.437770671583
0.000975003735036429,16.4403386884187
0.0019757542534121,16.4431287257599
0.00332901467935249,16.4461966228853
0.00503197905515684,16.4494150392787
0.00633483073982496,16.4515592073293
0.00779514263762094,16.4537033753799
0.0092740686934953,16.4556285568454
0.010824178484633,16.4574108339189
0.0124275694745848,16.4590314543885
0.0141861422345661,16.4605872844755
0.0161099658343789,16.46206892919
0.0182434409141368,16.4634937217253
0.0206196883465917,16.4648654976699
0.0232676001830193,16.4661842214981
0.0262284634550798,16.4674549075338
0.029538421031834,16.4686782566066
0.0332444962998704,16.4698577294556
0.0373996264739432,16.470996505619
0.0420636876681291,16.4720975374402
0.0473050127003413,16.4731636639864
0.0532083318567146,16.4741987225018
0.0598732491645939,16.4752064142817
0.0674193561049967,16.4761906054403
0.0759927263457495,16.4771555043617
0.0857744671137965,16.4781057903817
0.0969929059274787,16.4790467931559
0.10994528391233,16.4799850169579
0.125027351024536,16.4809285131176
0.142789279753733,16.4818879818822
0.163912936753082,16.482873232646
0.188374130662691,16.4838613935875
0.216815626263794,16.4848629078327
0.250101424011063,16.4858926655077
0.289515027120631,16.4869752303806
0.335309801802646,16.4881126719381
0.375836321431719,16.4890595329196
0.40961033398122,16.4898382994517
0.438875404968401,16.4905327964174
0.464446701821622,16.4911849423363
0.486415181779758,16.4918205866811
0.504443638966369,16.4924617559257
0.517719154568562,16.4931334419687
0.524572775665539,16.4938734551632
0.52188103680857,16.4946799668485
0.50774804548629,16.4955070762451
0.480817847376635,16.4963708189452
0.439336078947424,16.4972828274664
0.381365502574596,16.4982516544045
0.337307867804037,16.4988732647176
0.288794551170526,16.4994948750308
0.24554790895566,16.5000175465012
0.208380235934783,16.5004567290342
0.175668960417094,16.5008445231271
0.146337627654128,16.5012003387492
0.119730320365444,16.5015362184229
0.0953931730192896,16.5018609357832
0.0729539378739103,16.5021823331802
0.0520225063345532,16.5025096460867
0.0319866328926482,16.5028589720107
0.0108548022182331,16.503284941706
0.000742353260825814,16.5035194926359
-0.00655760032442931,16.5037059864025
-0.0132295461921717,16.503892480169
-0.019124732860157,16.5040732245483
-0.0251259954813403,16.504276691214
-0.0309630111798232,16.5044989204185
-0.0364580231380945,16.5047373246501
-0.0415117835538965,16.5049908777568
-0.0460719024979457,16.5052595758335
-0.050114033737296,16.5055441295754
-0.0536250142286754,16.5058458131719
-0.0566397082642234,16.5061713475491
-0.0590608655720935,16.506510506397
-0.0609778149155918,16.5068733886327
-0.0624055848189488,16.5072635652597
-0.0633581347412267,16.5076853307316
-0.0638475773900248,16.5081440271154
-0.0638825637192118,16.5086463935825
-0.0634662947104161,16.5092011033162
-0.0625916340533824,16.5098208772954
-0.0612371134742714,16.5105224371291
-0.0593584547318278,16.5113303062132
-0.0568652462280663,16.5122852882881
-0.0535422815506622,16.5134724359313
-0.0494635778523091,16.5148814314102
-0.0455044839121582,16.5162417772678
-0.0417202440170522,16.5175600905687
-0.0381383694210122,16.5188392540968
-0.0347729008185938,16.5200804140562
-0.0316302360689558,16.5212838363501
-0.0287116985090597,16.5224493563013
-0.0260148860820297,16.5235766153134
-0.0235345311236088,16.5246651837168
-0.0212631485124111,16.5257146202914
-0.0191915790574836,16.5267244946031
-0.0173094677514473,16.5276943861207
-0.0156056890113556,16.5286238677734
-0.0140236042531646,16.5295393847425
-0.0125001366874062,16.5304782668104
-0.0110399620834437,16.5314419721666
-0.00964704001289644,16.5324325697096
-0.00832514138969929,16.5334524831267
-0.00707779464959178,16.5345045809867
-0.00590823402064171,16.5355922917629
-0.00481934541152354,16.536719758311
-0.00381360986881848,16.5378920500697
-0.00289304411481669,16.5391154624143
-0.00205913699132653,16.5403979524843
-0.00131277943007586,16.5417497982488
-0.00065418332016218,16.5431846427368
-8.27800320192932e-05,16.5447212488518
0.000392644962210934,16.5463464611547
0.000766368446149417,16.5480165944207
0.0010550144899952,16.5497499456676
0.00127330637534264,16.5515672247519
0.00143505613059655,16.5534959862077
0.00155357681932927,16.5555750513312
0.00164229943865563,16.5578636622782
0.0017159356774228,16.5604634748814
0.00179365356197526,16.5635879333032
0.00189593720878683,16.5673218874656
0.00202751975877235,16.5712729296988
0.00218100931843365,16.5751676485252
0.00234851992531325,16.5789697007218
0.0025267648846383,16.5827545681735
0.00271359853774671,16.5865742717563
0.00290820084284774,16.5904685434688
0.00311096809515306,16.5944712138277
0.00332330626983304,16.598613562285
0.00354742595959872,16.6029263918044
0.00378618357370197,16.6074415212966
0.00404302765019455,16.6121931845413
0.00432211975479799,16.6172194723442
0.00462870393021321,16.6225636125855
0.00496021758405531,16.6281159863935
0.00529751293512633,16.6335023074972
0.00564897339567992,16.6388211346508
0.00601499937165815,16.6440320782011
0.00640007860742779,16.6491550709182
0.00680810690366596,16.65419640525
0.00724356470955869,16.659165450762
0.00771109081668991,16.6640678724847
0.00821567333429136,16.6689071714213
0.00876271699164066,16.6736845663872
0.00935816817467446,16.6783995197397
0.0100086265455261,16.6830501515792
0.0107248586880925,16.6876545607765
0.0115308070650923,16.6922888541395
0.0124417485849826,16.6969458177534
0.0134811879083366,16.7016431121294
0.0146828109615936,16.706417085621
0.0161039501621319,16.711356040844
0.0178721332529484,16.7167053488062
0.0203406369706158,16.7231785953696
0.021968193274165,16.7270614606821
0.0236514619052461,16.7309443259945
0.0251235467063109,16.734387571714
0.0263667940672904,16.7375034398047
0.0274031245451675,16.7404768037028
0.0281940590118596,16.7433263638543
0.0287178472277326,16.7460805394386
0.0289683096274129,16.7488605652076
0.0289047570616891,16.7518367609729
0.0283740518385919,16.7554429470905
0.0275707970943269,16.758502232542
0.0264987189041643,16.7615615179935
0.0254203662297273,16.7641661945229
0.0243506411044347,16.7665172209393
0.023279834595667,16.7687413801988
0.0222079421141607,16.7708959570313
0.0211380939927402,16.7730123605388
0.0200740055814348,16.7751109289395
0.0190193208942272,16.7772062852654
0.0179774405463566,16.779309741003
0.0169514818501216,16.781430560534
0.0159442768323435,16.7835767064235
0.0149583846436275,16.7857553105443
0.013996103659728,16.7879730025602
0.0130594838262262,16.7902361516811
0.0121503419341991,16.7925510482082
0.0112702657592168,16.7949240815334
0.0104206290993751,16.7973618761807
0.00960260150339847,16.7998714353558
0.00880780152347032,16.802492322905
0.00802428780497427,16.8052881260986
0.007255831634022,16.8082791398015
0.00650626024093384,16.8114895136053
0.00577964674814684,16.8149472018514
0.00508027691640061,16.8186847060665
0.00441259904331897,16.8227399619678
0.00378112579766914,16.8271575856755
0.0031902618742282,16.8319909074833
0.00264403810681182,16.8373057026341
0.00214578745277461,16.8431870442738
0.0016982335714988,16.8497452298144
0.00131994279675635,16.8567765278283
0.00101366439457735,16.8643729742921
0.000769879209187328,16.8729011637373
0.000602206794260938,16.8809569703421
0.000457603753743824,16.89039643035
0.00034974766934505,16.90039643035
0.00027559256976781,16.91039643035
0.000225366259575121,16.92039643035
0.000191931538569049,16.93039643035
0.000170185299406236,16.94039643035
0.000156587751981124,16.95039643035
0.000148733829507454,16.96039643035
0.00014500227035562,16.97039643035
0.000144301836559009,16.98039643035
0.000145902057423099,16.99039643035
0.000149323685669156,17.00039643035
0.000154267171944703,17.01039643035
0.000160565041415112,17.02039643035
0.000168150173140512,17.03039643035
0.000177035527910626,17.04039643035
0.000187302678824937,17.05039643035
0.000199097523484308,17.06039643035
0.000212632341026287,17.07039643035
0.000228194123465814,17.08039643035
0.00024615996246335,17.09039643035
0.000267021329889508,17.10039643035
0.000291420562495165,17.11039643035
0.000320205114447028,17.12039643035
0.0003545088300146,17.13039643035
0.000395875826388775,17.14039643035
0.000446453925357911,17.15039643035
0.000504753535573396,17.1597348614198
0.000571196020693553,17.1683566106582
0.000646831543477664,17.1763131432525
0.000732907574204721,17.1836562624099
0.00083085046512103,17.1904342166942
0.000942277878392181,17.1966918260658
0.0010690213332524,17.2024707337866
0.00121315397605527,17.207809633674
0.00137702316787333,17.2127444738141
0.00156328677512569,17.2173086545046
0.00177495746006525,17.2215332208644
0.00201545377463831,17.2254470472616
0.00228866323723672,17.2290770122308
0.00259901926010234,17.2324481756129
0.00295159830594493,17.2355839631302
0.00335224558025801,17.2385063584675
0.00380773986583724,17.2412361123493
0.00432601901976949,17.2437929865461
0.00491649814199729,17.2461960533818
0.00559053685305052,17.2484640913174
0.00634143560966075,17.2505632907123
0.00717164263264446,17.2525068379482
0.00809347931311554,17.2543288701422
0.00912560858389277,17.2560642345113
0.0102989281571069,17.2577536781738
0.0116773117912824,17.2594624728432
0.0135060218315829,17.2614126893906
0.0152803118996698,17.2630758699115
0.0172218653267419,17.2647390504324
0.0189287521431307,17.2661342861609
0.0204091855312989,17.2673431024766
0.0217335258398719,17.2684685312364
0.0229168485729223,17.2695631295882
0.0239495653948979,17.2706654789475
0.0248049765212927,17.2718177328879
0.025431627646048,17.2730857165656
0.0257107915746086,17.2746285536807
0.025375151033325,17.2764473173413
0.0244229433404593,17.278266081002
0.0233091445081132,17.2797369286533
0.0220598354385107,17.2811287685514
0.0206685270332825,17.282541472306
0.0191431368331012,17.2840197181811
0.0174907254978201,17.2856012755907
0.0160931255966141,17.286970988689
0.0147773894771287,17.2883407017874
0.0122774352801741,17.2912318725213
0.0101363967076602,17.2941187877864
0.00845541953564713,17.2967687663984
0.00709975981392452,17.2992533135638
0.00591887509389328,17.3017685105328
0.00488286974354671,17.3043467937269
0.00397206153118331,17.3070117302319
0.00320626529284072,17.3096532292906
0.00258787935230673,17.3121547495225
0.00207913299751803,17.3145471307414
0.00165068026374808,17.3168727024921
0.00127945372666443,17.3191877584481
0.000944870503024165,17.3215830100328
0.000619734375568904,17.324273357526
0.000373384846213888,17.3266163329141
0.00015585956053846,17.3289593083022
-6.17703710477225e-06,17.3309069036847
-0.000137035779326548,17.3326277166883
-0.000253635729952228,17.3342880029039
-0.000364515549336644,17.3359914313272
-0.000476969665693964,17.3378574358927
-0.000603038824272115,17.3401345486069
-0.000810800858120734,17.3443769441721
-0.000978133619886925,17.3483164127035
-0.00110343783090467,17.3516294612811
-0.00122253748554498,17.3551196090574
-0.00135326512700395,17.3594275770036
-0.00150002048373692,17.365189179828
-0.0015914938238844,17.370121341514
-0.00163280617727315,17.3746029341789
-0.00161646223188976,17.3786275456123
-0.00153539098665158,17.3822511811598
-0.00138275444451911,17.385525398758
-0.00115128816500702,17.3885144284849
-0.00083185208302529,17.3912845006208
-0.000411304869794347,17.3939027120731
0.000131707496024901,17.3964433615708
0.000834394039545615,17.3989973218982
0.00178089085931609,17.4017322173694
0.00308122113337838,17.4047754544997
0.00472717324286589,17.4079728630356
0.0060685953810729,17.4102332277238
0.00757881384145545,17.4124935924119
0.00906066524480803,17.4144560893031
0.0106001753828949,17.4162578113999
0.0121881206842719,17.4178930103789
0.0139251190318965,17.4194599559701
0.0158201879473544,17.4209492627673
0.0179228266030605,17.4223830012741
0.0202597013048823,17.4237610145921
0.0228666019861874,17.4250876119571
0.0257808400871106,17.4263656890866
0.0290366152684494,17.4275954516223
0.0326829118907125,17.4287814292257
0.0367701563778357,17.4299262144456
0.0413555100229021,17.4310324162692
0.0465078689542915,17.4321034024352
0.0523097402505881,17.4331428996575
0.0588577559707482,17.4341544892254
0.0662682299963542,17.43514199847
0.0746829908315475,17.4361095844792
0.0842763001587463,17.4370617401827
0.0952704224186214,17.4380038659044
0.107950718746255,17.438942222347
0.122696164536707,17.4398845872957
0.140030214027427,17.4408412036053
0.16071693135111,17.4418266282209
0.184668555469992,17.4428140426078
0.212498522963075,17.4438131560876
0.245033051194277,17.4448380868849
0.283474729538078,17.4459114550701
0.328594650798628,17.447046757216
0.370327134578205,17.4480281523915
0.404893035801971,17.4488250946915
0.434725973546101,17.4495288276078
0.460806618276231,17.4501855688223
0.483300232650596,17.450822459232
0.501928450201211,17.4514616280281
0.515960476700975,17.4521271774505
0.523899655414506,17.4528539911384
0.522745061355638,17.4536592055144
0.510306324457016,17.4544824460182
0.485294122874903,17.4553402427531
0.446001587026371,17.4562448596035
0.390506761295623,17.4572049419931
0.345647924626097,17.4578532540928
0.295743686783854,17.4585015661925
0.25133474373106,17.459041758298
0.213391304680973,17.4594909120539
0.180125448830517,17.4598847039217
0.15036143585602,17.4602442970588
0.123398643485116,17.4605824904425
0.0987632920097473,17.4609083622782
0.0760773650756902,17.4612297642571
0.0549613151659008,17.4615555296543
0.0348608023265006,17.4619000650085
0.0142157147575515,17.4623060886189
0.00136116689688338,17.4625985445963
-0.00601715593755608,17.4627857977031
-0.0127604566878105,17.4629730508099
-0.018627535196468,17.4631516386528
-0.0246300025785962,17.4633534108655
-0.0304878038441989,17.4635742574883
-0.0360147160468946,17.463811425822
-0.041106452155318,17.4640637847222
-0.0457076383682809,17.4643312607633
-0.0497921233835662,17.4646145133784
-0.0533465484295254,17.464914773765
-0.0564394059835602,17.465242824102
-0.0588962129703794,17.4655805263383
-0.0608474583549077,17.4659416870224
-0.0623085597289636,17.4663298766275
-0.0632935488534639,17.4667493268685
-0.0638147142092045,17.4672052970076
-0.0638810044309485,17.4677044140075
-0.0634960777956257,17.4682551926117
-0.0626537260835038,17.4688700044748
-0.0613336332200092,17.4695652446724
-0.0594936303016173,17.4703646983785
-0.057047956594234,17.4713075269451
-0.0537961899603532,17.4724735495085
-0.0497122391904294,17.4738863813419
-0.0457437563123839,17.4752495539629
-0.0419476625334722,17.4765704077211
-0.0383526758568501,17.4778519864151
-0.0349734664865907,17.479095517177
-0.0318168210566729,17.4803013065575
-0.0288843357848843,17.4814692093413
-0.0261738145935613,17.4825988752431
-0.0236801492727904,17.4836898772106
-0.0213959770180739,17.4847417740608
-0.0193122289295392,17.4857541346973
-0.0174186118935833,17.4867265384393
-0.0157040370720347,17.4876585594227
-0.0141184442721101,17.4885726444463
-0.0125911401782842,17.4895100268613
-0.0111268747303534,17.4904721124334
-0.00972961755402054,17.4914609503137
-0.00840315317535217,17.4924789393554
-0.00715102681029804,17.4935289170757
-0.00597649279358668,17.4946142726382
-0.00488246061383312,17.4957390983962
-0.00387143853520368,17.4969083977399
-0.00294547434512432,17.49812837778
-0.00210609211009617,17.499406874547
-0.00135422265951754,17.5007539943037
-0.000690123360082734,17.5021831263494
-0.00011327834575438,17.5037126379547
0.000369081071238608,17.5053356192684
0.000748609914467277,17.5070023870624
0.00104210631080637,17.5087312483735
0.00126436117582705,17.5105425768026
0.00142923298352823,17.5124634019642
0.00155005095137725,17.5145316456527
0.00164021386650409,17.5168048420252
0.00171429733857583,17.5193808293671
0.00179099504562131,17.5224615693292
0.00189224820698768,17.5261948520992
0.00202147751549563,17.5301203058098
0.00217394905362245,17.5340227367817
0.00234070554091519,17.5378276733952
0.00251839321173249,17.5416119306563
0.00270478486991115,17.5454285165423
0.00289897886456018,17.5493176414587
0.00310130203728647,17.5533133569126
0.00331310562079909,17.5574470235779
0.00353655833040645,17.5617494267162
0.00377448356191686,17.5662522918391
0.00403029745279697,17.5709896766071
0.00430811816783682,17.5759994205478
0.00461311833127433,17.5813244226442
0.00494456539256813,17.5868867289818
0.00528119662636221,17.5922745682526
0.00563210374543087,17.5975990457529
0.00599734020147222,17.6028142997937
0.00638145921949703,17.60794150337
0.00678830841155786,17.612986464419
0.00722236853481755,17.6179588025439
0.00768826343921429,17.6228642695857
0.0081909664288013,17.6277064995147
0.0087358604803608,17.6324868076559
0.00932886482938693,17.6372047347015
0.00997654610771339,17.6418584534902
0.0106888339398987,17.6464612899851
0.0114902424973808,17.6510947534706
0.0123956832566098,17.6557502744561
0.0134283383197056,17.6604450686632
0.0146211922125891,17.6652139877274
0.0160298790087031,17.6701415605625
0.0177760073823531,17.6754598889474
0.0202434243338781,17.681966502842
0.0218832402735039,17.6858905208363
0.0235832678498078,17.6898145388306
0.0250669287090062,17.6932790901949
0.0263190968683867,17.696404535443
0.0273640846844732,17.6993809811733
0.028166376344704,17.702237048621
0.0287013172543585,17.7049929292913
0.0289637007688026,17.7077690720724
0.0289149576322699,17.7107318722855
0.0284116860795506,17.7142906178327
0.0276142606975767,17.7173883832159
0.0265384521334061,17.7204861485991
0.0254585154196277,17.7231062878202
0.0243886422513114,17.7254637091067
0.0233179011306728,17.7276911633691
0.0222460001642568,17.7298475752253
0.0211760164649271,17.7319649350291
0.0201116606036163,17.7340638549278
0.0190565832975338,17.7361591097158
0.0180141949266886,17.7382621021438
0.0169876229678202,17.7403821542241
0.0159797093905188,17.7425272652691
0.0149930229511079,17.7447045898
0.0140298709023436,17.7469207708039
0.0130923119769516,17.7491821824367
0.0121821710609118,17.7514951143814
0.0113010436115031,17.7538659500291
0.0104503113488073,17.7563013010026
0.00963115044402465,17.7588081549477
0.00883601421473835,17.7614231377241
0.00805203022134653,17.764212376662
0.0072829720160968,17.7671960266881
0.00653265791977391,17.7703981124831
0.00580515248639994,17.7738464417813
0.00510473488933303,17.7775733382696
0.00443584895443854,17.7816165249094
0.00380300735292605,17.7860203516285
0.00321062289390399,17.7908377850491
0.00266274489892637,17.7961340640569
0.00216273677441535,17.8019934038114
0.00171305375739982,17.8085297483861
0.00133241023957392,17.815542577475
0.0010233499753013,17.8231168177542
0.000774342670665325,17.8317386774424
0.000607368277831774,17.8396958877385
0.000461051489323537,17.8491515126806
0.000352116500015926,17.8591515126806
0.000277185600362674,17.8691515126806
0.000226407865467266,17.8791515126806
0.00019258682173299,17.8891515126806
0.000170571250054663,17.8991515126806
0.000156784514547692,17.9091515126806
0.000148795363426664,17.9191515126806
0.000144964772713238,17.9291515126806
0.000144189566689342,17.9391515126806
0.000145731094120325,17.9491515126806
0.000149104323684588,17.9591515126806
0.000154005485383905,17.9691515126806
0.000160263922347208,17.9791515126806
0.000167810008209753,17.9891515126806
0.000176654601566002,17.9991515126806
0.000186877355719341,18.0091515126806
0.00019862223973814,18.0191515126806
0.000212099413046904,18.0291515126806
0.000227593359770008,18.0391515126806
0.000245478035700102,18.0491515126806
0.000266240828331767,18.0591515126806
0.000290518584116658,18.0691515126806
0.000319151177126939,18.0791515126806
0.00035326172076825,18.0891515126806
0.000394378748297657,18.0991515126806
0.000444626818799188,18.1091515126806
0.000502679345900131,18.1185142338667
0.000568849139365474,18.1271593189551
0.000644175796355896,18.1351373795418
0.000729900780191829,18.1425003172681
0.000827444506657674,18.1492965056562
0.000938418187520029,18.1555708807831
0.00106464612336828,18.1613651931337
0.00120819329646059,18.1667182359449
0.00137139782662428,18.1716660494548
0.00155690708157706,18.1762421191287
0.00176772174220521,18.1804775685344
0.00200724657612606,18.1844013442528
0.00227935319650902,18.1880403909909
0.00258845637188867,18.1914198285989
0.00293961052086758,18.1945631364712
0.00333863434982278,18.19749234542
0.00379227416788104,18.2002282460157
0.00430842715480841,18.2027906313084
0.00489645592891484,18.2051985942811
0.00556764991723237,18.207470919606
0.00631616438111579,18.2095759149613
0.00714368405948561,18.2115241800296
0.00806236928499713,18.213349843171
0.0090906293703745,18.2150876931175
0.0102588236288611,18.216778167037
0.0116274011189941,18.2184832027726
0.0134350416629438,18.2204209126655
0.0152312014919486,18.2221111238886
0.0172011510423878,18.2238013351117
0.0189135558353987,18.2252018319647
0.0203952970508033,18.226411936028
0.021720473535203,18.2275379316991
0.022904640432081,18.2286327646602
0.0239383526948943,18.2297350550875
0.0247950523534975,18.2308868739852
0.0254235579719782,18.232153731933
0.0257061279937127,18.2336932965853
0.0253747860720594,18.2355145267409
0.0244245340887638,18.2373357568965
0.0233116209675315,18.2388076801532
0.0220632816535768,18.2401996897864
0.0206729500584015,18.2416122081661
0.0191485275993037,18.2430900254398
0.0174971056185631,18.2446708924035
0.0161114977832449,18.2460282539594
0.0148061445015422,18.2473856155152
0.0123089764853715,18.2502684887503
0.0101614186869661,18.2531582479421
0.00847532477980976,18.255810971335
0.00711704655976529,18.2582953613007
0.00593403271533324,18.2608099019656
0.00489620207505497,18.2633871976981
0.0039838039691494,18.2660508360417
0.00321659459568479,18.2686910932675
0.00259697432704209,18.271191669494
0.00208715330048325,18.2735833603864
0.00165775614492832,18.2759084747492
0.00128566247954124,18.2782234515049
0.000950174171826168,18.2806197135981
0.000623708825998664,18.2833156117879
0.000378073911263377,18.285646946687
0.00016107110947715,18.287978281586
-1.09440645019344e-06,18.2899219049972
-0.00013223169588977,18.2916415266987
-0.000249132909195633,18.2933016080115
-0.000360331089453759,18.2950055968302
-0.000473148638388532,18.2968733062492
-0.00059973377068952,18.2991552392836
-0.00081020696933018,18.3034502603082
-0.000979597374121889,18.3074442697312
-0.00110614732202527,18.3108015298146
-0.00122625507993274,18.3143391057469
-0.00135841983263486,18.3187286513815
-0.00150217929073847,18.3244424138019
-0.00159128528087021,18.3293528538403
-0.00162987751635244,18.3338115752223
-0.00161051924691507,18.3378159411664
-0.00152615902239306,18.3414217139224
-0.00136998733075666,18.3446808437107
-0.00113467197287291,18.3476580810723
-0.000810974471139491,18.3504192027127
-0.000385530553867475,18.3530313411566
0.000163621345111578,18.355569868582
0.000875034132797837,18.3581277714984
0.00183646464384138,18.3608781212622
0.00315143561245065,18.3639283458561
0.00481354128259478,18.3671325593648
0.00614216234413057,18.3693570650253
0.00763581619596675,18.3715815706858
0.00911575636983514,18.3735330964406
0.0106576511461021,18.3753296231378
0.0122490420448478,18.3769606988473
0.0139912002603643,18.3785245875761
0.0158934494758168,18.3800118849499
0.0180037538898351,18.3814432358344
0.0203507190314148,18.3828196991486
0.0229679794804779,18.3841442183999
0.0258940375562624,18.3854203514753
0.0291633049388672,18.3866483306485
0.032824751838048,18.387832593229
0.0369292309661762,18.3889757963956
0.0415352263103177,18.3900807802061
0.0467101489346453,18.3911504559416
0.052537830803393,18.3921887674766
0.0591155742470821,18.3931993090058
0.0665605107330732,18.3941859164114
0.0750155235917913,18.3951527587301
0.0846565301513992,18.3961043707332
0.095707406881048,18.3970461437158
0.108456378156076,18.3979843903613
0.12328651794071,18.398926952677
0.140727752881238,18.3998841805386
0.161529962040861,18.4008697091453
0.185610929147286,18.4018572214068
0.213595702520077,18.4028568300285
0.246319615607649,18.4038828329539
0.285004351909147,18.4049582991995
0.330298684848166,18.4060939909602
0.371729969039085,18.4070664273726
0.406101339616033,18.4078586495488
0.435797486639334,18.4085599525434
0.461756658628737,18.4092154329288
0.484125619855567,18.4098518954123
0.502611770484787,18.4104914342332
0.516464794994464,18.4111583577246
0.524147693981619,18.4118882352306
0.522623731437623,18.4126936686909
0.509777415188824,18.4135177714308
0.484302943585668,18.4143769616054
0.444480966696592,18.4152833536373
0.388384882677368,18.4162455514594
0.343707126356347,18.41688738796
0.294128722120912,18.4175292244607
0.249992546905279,18.4180651827576
0.212229629096484,18.418511936408
0.179091782297163,18.418904285839
0.149427180796127,18.4192629666136
0.122545877488542,18.4196005940898
0.0979788239651551,18.4199261717711
0.0753494263064526,18.4202475456398
0.054275890416104,18.4205736352905
0.0341914490026614,18.4209192100463
0.0134494245549451,18.4213293761501
0.00141405604892499,18.4216040701849
-0.00597302313911536,18.4217914017086
-0.0127242026993763,18.4219787332323
-0.0185955872697564,18.4221573189279
-0.0245987186448998,18.4223589526332
-0.0304584600750642,18.4225796767825
-0.0359881187503713,18.4228167322123
-0.041083030329275,18.4230689803591
-0.0456875940793579,18.4233363426867
-0.0497755233348856,18.4236194749155
-0.0533334908982543,18.4239196050086
-0.0564344021724073,18.4242480431574
-0.0588937779629741,18.4245856290987
-0.0608474476460979,18.42494665215
-0.0623108839015499,18.4253346860255
-0.0632981251781628,18.4257539584838
-0.0638214727405728,18.426209723575
-0.0638898952403136,18.4267086012852
-0.0635070801525475,18.4272590966327
-0.0626668773036086,18.4278735592482
-0.0613490392757254,18.4285683651428
-0.0595115192197357,18.4293672557541
-0.0570688204330221,18.4303092967185
-0.0538213438914669,18.4314740097191
-0.0497367568367608,18.4328871230132
-0.0457673471545456,18.4342505141582
-0.041970148286069,18.4355715729099
-0.0383739643412434,18.4368533524049
-0.0349935118768528,18.4380970842526
-0.0318356073826194,18.4393030770612
-0.0289018689462243,18.4404711864201
-0.026190117535665,18.4416010622138
-0.0236952584425296,18.4426922772596
-0.0214099393779461,18.4437443901388
-0.0193250992844794,18.4447569695334
-0.0174304504716259,18.4457295946347
-0.015714907338573,18.4466618396018
-0.014128994940977,18.4475757967925
-0.0126013420046658,18.4485130454656
-0.0111367050542068,18.4494749867232
-0.00973905457878461,18.4504636679627
-0.00841217628749666,18.451481485836
-0.00715961686497398,18.4525312751122
-0.00598463241254201,18.453616421481
-0.00489013449585047,18.4547410128372
-0.00387863377981392,18.4559100467461
-0.00295218079435601,18.4571297225433
-0.00211230271718757,18.4584078656034
-0.00135993390163096,18.4597545671026
-0.000695335728921339,18.4611831940842
-0.000117996985198105,18.4627120791923
0.000364990761536354,18.4643348642981
0.000745046871875599,18.4660013355016
0.0010389851622989,18.4677298012087
0.00126160257020781,18.4695406055499
0.00142676171181248,18.4714607322874
0.00154779325204768,18.4735280248787
0.00163809315063469,18.4757998693831
0.00171222512200898,18.4783737754488
0.00178884204473109,18.4814507302839
0.00189000901506121,18.4851840123972
0.00201902950959023,18.4891072548339
0.00217142619772199,18.4930109707962
0.00233811379594944,18.4968164003884
0.00251573370751427,18.5006006059823
0.00270205317289725,18.5044167522876
0.00289616435497078,18.5083051254663
0.00309838815801184,18.5122998127351
0.00331007029112144,18.5164321883704
0.00353337420409701,18.5207330360226
0.0037711179085796,18.5252340680636
0.00402671105815112,18.529969316698
0.00430426266635716,18.5349765847601
0.00460893102121278,18.5402987232793
0.00494030420316784,18.5458633460716
0.00527674472733184,18.5512519182617
0.00562747020730821,18.5565778219993
0.00599247245822343,18.5617942187318
0.00637631549249472,18.5669225162958
0.00678283706071482,18.5719684449511
0.0072165159901968,18.5769416755237
0.00768197108136942,18.5818479806536
0.00818417022033393,18.5866910227014
0.00872848945020158,18.5914721390687
0.00932083987603121,18.5961908894758
0.00996777865825571,18.6008454602951
0.0106790077670396,18.6054478719448
0.0114791977199323,18.6100811162518
0.0123831609225185,18.6147362531478
0.0134139936769452,18.6194303833595
0.0146044945183322,18.6241979630389
0.016009850997709,18.6291225300023
0.0177501391998521,18.63443275074
0.0202172492751963,18.6409484237357
0.0218604306873908,18.6448837733487
0.0235650484005391,18.6488191229618
0.025051821981651,18.6522894673612
0.0263063615400809,18.6554175077525
0.0273536390087097,18.6583948086711
0.0281589381871925,18.6612526369969
0.0286968259186092,18.6640090060188
0.0289623498056746,18.6667841707943
0.0289174860827648,18.6697435335808
0.0284212591472217,18.673290290578
0.0276253608051625,18.6763983418579
0.0265485151282676,18.6795063931377
0.0254681452701029,18.6821305931664
0.0243982308710152,18.6844896690493
0.023327507075724,18.6867179725904
0.0222556050361679,18.6888748590316
0.0211855877806145,18.6909924691779
0.0201211645636227,18.6930914856994
0.0190659877758964,18.6951867224227
0.0180234702628099,18.6972896056099
0.0169967420637692,18.6994094722041
0.0159886476586925,18.7015543311297
0.0150017582220127,18.7037313429727
0.0140383832398904,18.7059471544549
0.013100583664691,18.7082081413762
0.0121901864009153,18.7105205937894
0.0113087888426908,18.7128908941347
0.0104577747160005,18.7153256514351
0.00963832185365705,18.7178318502588
0.00884310209435826,18.7204453518816
0.00805900070199609,18.7232329447427
0.00728979187104833,18.7262147484793
0.00653929165916146,18.7294147565698
0.00581156242753501,18.7328607402042
0.00511088166400311,18.7365849787053
0.00444169202141626,18.740625142094
0.00380850612326977,18.7450255141041
0.00321573874764936,18.7498389711736
0.00266744380165079,18.7551306192307
0.00216699230968091,18.7609844606283
0.0017168476445005,18.7675141170037
0.00133559936825928,18.7745222088893
0.00102586219878568,18.7820907822177
0.000775664651353179,18.7907312685312
0.000608782979895013,18.7986665342068
0.000462041062594599,18.80812445943
0.00035281608428045,18.81812445943
0.000277678628494565,18.82812445943
0.000226755521858018,18.83812445943
0.000192833614178594,18.84812445943
0.000170748507477591,18.85812445943
0.000156913673140879,18.86812445943
0.000148890891505647,18.87812445943
0.000145036417062144,18.88812445943
0.000144243896058399,18.89812445943
0.000145772502730044,18.90812445943
0.00014913568136052,18.91812445943
0.000154028569468556,18.92812445943
0.000160279710949621,18.93812445943
0.000167818878460148,18.94812445943
0.000176656458182867,18.95812445943
0.000186871706117879,18.96812445943
0.000198608226280895,18.97812445943
0.000212075808314147,18.98812445943
0.000227558526091442,18.99812445943
0.000245429845213146,19.00812445943
0.000266176533828588,19.01812445943
0.000290434622674141,19.02812445943
0.000319042875841396,19.03812445943
0.000353122853035763,19.04812445943
0.000394200852862928,19.05812445943
0.000444398128188503,19.06812445943
0.000502408427806419,19.0774901984265
0.000568531282256077,19.0861382058874
0.000643804825848439,19.0941189826581
0.000729469577271474,19.1014844377972
0.000826944983633462,19.1082829563604
0.000937841189575945,19.114559485547
0.0010639812940165,19.1203557864013
0.00120742891533522,19.125710662186
0.00137052062228014,19.1306601626289
0.00155590201429284,19.1352377821072
0.00176657174398486,19.1394746524831
0.00200593223670758,19.1433997280102
0.00227785238707553,19.147039960429
0.00258674376387635,19.1504204759155
0.00293765698239205,19.1535647593935
0.00333640615119587,19.1564948463113
0.00378973191426232,19.1592315308007
0.00430552430984409,19.161794608103
0.00489313667960044,19.1642031715636
0.00556384595370308,19.1664760035886
0.00631195224748491,19.1685817766976
0.00713900776580675,19.1705306410513
0.00805714208505457,19.1723567163454
0.00908471507529942,19.1740947713769
0.0102519806342729,19.1757851726505
0.0116187695406673,19.1774892483331
0.0134224644455961,19.1794242498755
0.0152233788154144,19.1811198202288
0.0171994588012743,19.1828153905821
0.0189131898519787,19.1842167561961
0.0203953767747243,19.185426958351
0.0217208937221581,19.1865529317263
0.0229053906198611,19.187647691185
0.0239394478370182,19.1887498611533
0.0247965302554644,19.1899014965567
0.0254254990334874,19.1911680532152
0.0257087673172514,19.1927069566267
0.025378202023435,19.1945284815061
0.0244282477980746,19.1963500063855
0.023315425400704,19.1978220040928
0.0220671606807777,19.199213958478
0.0206768723559873,19.2006263794882
0.0191524579980785,19.202104075284
0.0175010116928299,19.2036847961886
0.0161177484947093,19.2050395452249
0.0148144098512739,19.2063942942612
0.0123174429185074,19.2092754520979
0.0101680410850466,19.2121660380291
0.00848055437230122,19.2148194890927
0.00712157122324573,19.2173038128215
0.00593798616892631,19.2198181526037
0.00489966669017777,19.2223951580721
0.00398684296105109,19.2250584218954
0.00321848890616257,19.2277011797131
0.00259811471559414,19.2302037946706
0.00208783598972781,19.2325969369515
0.00165820322750765,19.2349228128602
0.00128607468531666,19.2372375338892
0.000950821218717461,19.2396314540077
0.000625305816541035,19.2423178939087
0.000377796344340344,19.244666042235
0.000159329212646461,19.2470141905612
-3.14145614968052e-06,19.2489634074285
-0.000134253109638032,19.2506846025569
-0.000251038845727855,19.2523448443536
-0.000362064017122132,19.2540478763516
-0.000474627336369621,19.2559129396337
-0.000600741498947901,19.2581876223295
-0.000807654070433314,19.2624055253224
-0.000974356323943759,19.2663215401754
-0.00109928171793367,19.2696161248357
-0.00121803950441712,19.2730861917815
-0.00134819494302968,19.2773597656898
-0.00149620641437223,19.2831419031009
-0.00158863044893693,19.2880835805056
-0.0016310601203402,19.2925753727631
-0.00161600554639343,19.2966092673599
-0.00153640475373846,19.3002411872869
-0.00138541305177186,19.3035225077622
-0.00115580794126247,19.3065169883948
-0.000838508928681879,19.3092909929227
-0.000420479623382527,19.3119116763952
0.000119389073737232,19.3144530518542
0.000817784078130446,19.3170053090483
0.00175740254846723,19.3197340151385
0.00305070961072333,19.3227743800171
0.00468893459204709,19.3259691414969
0.00603555234509561,19.3282457364527
0.00755265600158109,19.3305223314085
0.00903489573967148,19.332489816851
0.0105728267821587,19.3342938154143
0.0121588364396794,19.3359308854116
0.0138931681016177,19.3374992262555
0.0157846606751485,19.3389894268838
0.0178835450159978,19.3404242453617
0.0202156006937466,19.3418029626673
0.0228175602486258,19.3431304956105
0.0257261795856689,19.3444094356093
0.0289756739702908,19.3456400218833
0.0326148559491006,19.346826759914
0.0366940187580837,19.3479722406406
0.0412696747969731,19.349078958712
0.046411464922797,19.3501505107761
0.052201241095149,19.351190513345
0.0587353116237648,19.352202540933
0.0661295946486403,19.3531904160818
0.0745253968246141,19.3541582880871
0.0840962467008507,19.3551106356883
0.0950634944379759,19.3560528498613
0.107711124002243,19.35699116821
0.12241604703654,19.3579333326598
0.139698415322749,19.3588895260489
0.160316446269872,19.3598741926205
0.184204151663149,19.360861441098
0.211957317099506,19.3618601663551
0.244397217548963,19.3628843797367
0.282716201815619,19.363956450522
0.327757405546805,19.3650915041068
0.369664670383023,19.3660776637627
0.404340763539405,19.3668769807509
0.434250466822668,19.3675818480349
0.460398925523446,19.3682391150519
0.482961611140492,19.3688761094757
0.501667627483396,19.3695149855487
0.515796037390476,19.3701797511287
0.523869945425106,19.3709049707109
0.522906719118838,19.3717099899685
0.510677144556067,19.3725327276962
0.485899963802627,19.3733897779759
0.446873918701438,19.3742934878656
0.391678310162755,19.3752525266528
0.346713103798105,19.3759043062057
0.296624428052642,19.3765560857586
0.252062275192427,19.3770985273266
0.21401743042416,19.3775489403902
0.180679653807656,19.3779434778988
0.150859798922022,19.3783035348977
0.123851233912597,19.3786420095548
0.0991774696250177,19.3789680206749
0.0764595755858134,19.3792894243125
0.0553189824411839,19.3796150113322
0.0352073607430423,19.3799590088435
0.0146059686702761,19.380362985677
0.00125820106121793,19.3806662450308
-0.00610617090292942,19.3808533431513
-0.012836856237814,19.3810404412718
-0.0187087643022199,19.3812193805697
-0.0247112396386189,19.3814214279968
-0.0305658057971088,19.381642497765
-0.0360876385171973,19.3818798645068
-0.0411732836213652,19.3821324144291
-0.0457678602973395,19.3824000855658
-0.0498455147502506,19.3826835457242
-0.0533929300334952,19.3829840331041
-0.0564731955044194,19.3833116882699
-0.0589242239148637,19.38364962363
-0.0608699066475037,19.38401106008
-0.0623255990711236,19.3843995682805
-0.0633053219322778,19.3848193900914
-0.0638213358411498,19.3852757981565
-0.0638825417484678,19.3857754375621
-0.0634925243832469,19.3863268486211
-0.0626449264715844,19.3869424592838
-0.061319246054414,19.3876387170248
-0.0594729760952336,19.3884395252076
-0.0570196155927231,19.389384306245
-0.0537564252387493,19.3905536987964
-0.0496732622914684,19.3919659076234
-0.0457062335134975,19.3933286282411
-0.0419119959703368,19.394649077659
-0.0383190703330936,19.3959302731628
-0.0349420246267842,19.397173428524
-0.031787582849512,19.3983788435531
-0.0288572974718588,19.399546369778
-0.026148939506743,19.4006756554948
-0.0236573753099491,19.4017662731748
-0.0213752225741114,19.4028177815923
-0.0192933979943386,19.4038297497348
-0.0174015985563911,19.4048017569353
-0.0156887295159248,19.4057333771364
-0.0141036891676424,19.4066476880577
-0.0125769895299932,19.4075853070157
-0.0111133687822468,19.4085476480553
-0.00971679497013152,19.4095367634308
-0.00839105047896292,19.410555055898
-0.00713967788361016,19.4116053678525
-0.00596592835265282,19.4126910946321
-0.00487270766020505,19.413816336519
-0.00386251978194233,19.4149861072681
-0.00293740760974987,19.4162066278326
-0.00209888965839456,19.4174857532219
-0.00134789046935039,19.418833616581
-0.000684660244001436,19.4202636468836
-0.000108674808469899,19.4217942731625
0.000372586337126227,19.4234176027566
0.000751195768137398,19.4250848975337
0.0010439237755111,19.4268144622047
0.00126555051745143,19.4286267228759
0.00142992702294477,19.4305487909336
0.00155037979802344,19.4326187279888
0.00164031242475119,19.4348943328062
0.00171432128502934,19.4374740318219
0.00179117215264568,19.4405615362053
0.00189258140659481,19.4442948408046
0.00202217510514755,19.4482242458152
0.00217480809875931,19.452125518793
0.0023416828567559,19.4559300171278
0.00251945582056211,19.4597143579633
0.00270591263299031,19.4635314007458
0.00290016452461802,19.4674212839659
0.00310254924708622,19.4714180258982
0.00331442654058787,19.4755529748621
0.0035379715038731,19.4798569185431
0.00377601239713658,19.4843615960908
0.0040319699429944,19.4891010910715
0.00430996834063463,19.4941132801451
0.00461519020148988,19.4994411109577
0.00494663920861708,19.5050020593567
0.00528335708560159,19.510389744058
0.0056343331311541,19.5157134581103
0.00599967118901744,19.5209281358346
0.00638391490329638,19.5260547722004
0.00679091880216806,19.5310992482244
0.00722516332455894,19.5360711479899
0.00769127417817044,19.5409762116516
0.00819422643088415,19.5458180544332
0.00873940579538996,19.5505979782604
0.00933273499177194,19.5553155130536
0.00998078494770454,19.5599688244397
0.0106935955406971,19.5645718699644
0.0114956055383934,19.5692054431691
0.0124017745975329,19.5738611541303
0.0134353270583414,19.5785562760772
0.0146293391234829,19.583325856029
0.0160396656303568,19.5882549132406
0.0177886766683669,19.5935772563567
0.0202562440639395,19.6000794380906
0.0218944193134911,19.6039979350574
0.0235922071641154,19.6079164320242
0.0250743402845582,19.611378149558
0.0263253403836883,19.6145023240387
0.0273691986573911,19.6174783542038
0.0281700074022427,19.6203335599297
0.0287034942865709,19.6230892063732
0.0289643267648123,19.6258658402129
0.0289136641633466,19.6288303536164
0.0284068856065721,19.6323950991715
0.0276087048179663,19.6354878078607
0.0265334003516534,19.6385805165498
0.0254536761999046,19.6411986491081
0.0243838237172163,19.6435552498244
0.0233130744486834,19.6457822832386
0.022241174373045,19.6479384610519
0.0211712075749581,19.650055698924
0.0201068852768869,19.6521545739639
0.0190518573585657,19.6542498415991
0.0180095329641695,19.6563528929568
0.0169830382827375,19.6584730427207
0.0159752140208295,19.6606182855472
0.0149886277150771,19.6627957731011
0.0140255854908181,19.6650121467066
0.0130881449603998,19.6672737799404
0.0121781299876723,19.6695869625988
0.0112971350521128,19.6719580789014
0.0104465408639586,19.6743937421956
0.00962752275774733,19.6769009421865
0.00883242905696575,19.6795166735951
0.00804850456317537,19.6823067448024
0.00727952255497343,19.6852913284173
0.00652930248065184,19.6884944649615
0.00580190998251293,19.6919439807505
0.00510162506790164,19.695672222034
0.00443289213489333,19.6997169387426
0.0038002238616786,19.7041225145397
0.00320803204664764,19.7089419620317
0.0026603636866055,19.714240587838
0.00216057833933901,19.7201027154048
0.00171112713663323,19.726642452796
0.00133078795449341,19.7336576806181
0.00102209391657093,19.7412347894481
0.000773800407917348,19.7498433139985
0.000606716213730192,19.7578138549352
0.000460624345115275,19.7672669693043
0.000351825459991131,19.7772669693043
0.000276992827557177,19.7872669693043
0.000226285185592579,19.7972669693043
0.000192513381449763,19.8072669693043
0.000170532229516711,19.8172669693043
0.000156769759189601,19.8272669693043
0.000148798045314851,19.8372669693043
0.000144980319198794,19.8472669693043
0.000144214918086902,19.8572669693043
0.00014576422688245,19.8672669693043
0.000149143948309115,19.8772669693043
0.000154050850603171,19.8872669693043
0.000160314685832957,19.8972669693043
0.000167866153169026,19.9072669693043
0.000176716388277554,19.9172669693044
0.000186945301680758,19.9272669693044
0.000198697125011262,19.9372669693044
0.000212182310135197,19.9472669693044
0.000227685690488363,19.9572669693044
0.000245581661384073,19.9672669693044
0.000266358185032446,19.9772669693044
0.000290652882342925,19.9872669693044
0.000308470716690643,19.9936334846522
0.00032825790143949,20
