ecg,time
0.00456722328256193,15.000291617026
0.00518697052890933,15.0026533004682
0.00589370087884562,15.0048838895617
0.00667443667830005,15.0069366237405
0.00753873421484233,15.0088458622429
0.00850125329145405,15.0106464644045
0.00958476198946226,15.0123754139906
0.0108293773972446,15.0140801787395
0.0123517246375897,15.0158760326212
0.0145686079624856,15.0181148894089
0.0161825336318005,15.0195668506246
0.0178987248754857,15.0210188118404
0.0194715400087922,15.0223174610913
0.0208696625395073,15.0234909655524
0.0221237242373695,15.0246062923996
0.0232356298156563,15.0257070229141
0.0241887253049399,15.0268315955044
0.0249480826099419,15.0280286904963
0.025444447768244,15.0293872894481
0.02547757495893,15.0311945158979
0.0249262167471581,15.0328430741165
0.0239212507395173,15.0344916323351
0.022775932114054,15.0359206142713
0.0214895691737418,15.037317183652
0.0200650961676548,15.0387503303906
0.018511638410744,15.0402595803364
0.0172503962667417,15.0414788992924
0.0160212880298071,15.0426982182485
0.0147801108703926,15.0440015527751
0.0123163045750323,15.0468698703785
0.0101941455976005,15.0497486527472
0.00852540889593028,15.0523953884408
0.00717775397219624,15.0548815331654
0.00600452211645035,15.0573990384413
0.00497961890965928,15.0599710240833
0.00411145518927014,15.0625271280617
0.0033486219052314,15.0651708125665
0.00264611017959479,15.0680678564334
0.00214490768728425,15.0705131116859
0.00171459366123028,15.0729583669384
0.00140664070650774,15.0749676037223
0.0011593367403986,15.0767819727581
0.000941819148382737,15.0785617831315
0.000738241025142627,15.080419811699
0.000534581772459043,15.0825095450987
0.000304545467910815,15.0852257709208
5.37894059753761e-07,15.0896239657046
-0.000203811804150972,15.0933631393297
-0.000352942726233903,15.0967191461784
-0.000486009266218894,15.1004294368437
-0.00061162636333196,15.1050778414175
-0.000702286803438917,15.1103940574591
-0.000730123151743412,15.1150862257143
-0.000701962692759463,15.1193699289354
-0.000617028867452655,15.1232551172715
-0.000472467648075983,15.1267898151161
-0.000263694851769904,15.1300232531159
1.53816492641365e-05,15.133003765111
0.000373624952510065,15.1357861886929
0.000824563840418188,15.1384307610886
0.00139126751725057,15.141011971625
0.00211428505884427,15.1436249373938
0.00307291774270687,15.1464153735322
0.00436554708325993,15.1494786695301
0.00595827103013456,15.1525913435962
0.00750754744110543,15.1551427024869
0.00896048557517575,15.1572038902122
0.0104166726859242,15.1590019103044
0.0119876125683436,15.1606911522192
0.0136800156577547,15.1622708603236
0.015547483947478,15.1637797409229
0.0176236323930569,15.1652275298752
0.019933277706426,15.1666148419133
0.0225179840878318,15.1679505965409
0.0254076742421484,15.16923463419
0.0286474550491623,15.1704723120153
0.0322816129573484,15.1716660426335
0.0363582255659805,15.1728178287463
0.0409401077294384,15.1739318631849
0.0460969863211966,15.1750113986492
0.0519114097891419,15.1760599097698
0.0584804926981926,15.1770808678617
0.0659255622269238,15.1780786036248
0.0743935175955728,15.1790575288301
0.0840677181927979,15.1800226187372
0.0951820607385666,15.1809796907142
0.108042511116873,15.1819358005274
0.123065762337753,15.1829001206816
0.140846387745389,15.1838852913772
0.161824792961643,15.1848894718964
0.186160279376152,15.1859001123311
0.214537604673519,15.1869297581324
0.247909081151731,15.1879969387604
0.287781574083869,15.1891341362737
0.322835111539887,15.1900533439511
0.359612757451961,15.1909725516284
0.392268319988048,15.1917787606124
0.420825262398785,15.192503379216
0.445784170431199,15.1931826345086
0.467189422519427,15.1938416351771
0.48471543198967,15.1945016104327
0.497616574384884,15.195185419875
0.504441008500298,15.1959245976814
0.50236310442048,15.1967462255453
0.489245117258515,15.1975824809811
0.463851412292746,15.1984484669219
0.424615410030227,15.1993553002062
0.36980448192779,15.2003122376836
0.327737824693977,15.2009301804797
0.281319038270331,15.2015481232758
0.239678747064972,15.2020701316964
0.203666011337851,15.2025108968314
0.171834536108709,15.2029012882624
0.14321192170058,15.2032601121726
0.117197738988351,15.2035991578595
0.0933714301767253,15.2039270775871
0.0713846153580133,15.2042516252185
0.0508701216467786,15.2045818974574
0.0312545779140085,15.2049335405406
0.0107363917266325,15.2053576430031
0.00021918669453286,15.2056078222224
-0.00704347908279233,15.2057986644909
-0.013676714531325,15.2059895067595
-0.0195032230823484,15.2061734756238
-0.0254285307964498,15.2063804256588
-0.0311870769505475,15.2066063563813
-0.0366040869025636,15.2068486413462
-0.0415823400728966,15.2071062452167
-0.0460707196249653,15.2073791702591
-0.0500411610028032,15.2076681414708
-0.0535989261290196,15.2079866571792
-0.0564606885172918,15.2083101089654
-0.0588094513048331,15.2086546725421
-0.0606598498503972,15.2090234030459
-0.062025810394269,15.2094198259137
-0.0629208495162067,15.2098482852693
-0.0633565939987513,15.2103141806669
-0.0633411866054608,15.2108243165526
-0.0628773275033423,15.2113874403134
-0.0619570605808884,15.2120165389955
-0.0605585286574311,15.2127283547468
-0.0586371696464658,15.2135475855423
-0.0561025027042396,15.2145153151066
-0.0527395652634056,15.2157171980483
-0.0486984114907996,15.2171176187486
-0.0447849375737068,15.2184693382735
-0.0410515457261617,15.2197784706704
-0.0375236071726774,15.2210479338825
-0.0342137630707497,15.2222789274687
-0.0311273275091705,15.2234717750979
-0.0282647193123382,15.2246263685375
-0.0256227712937017,15.2257424010448
-0.0231955809948993,15.2268194881525
-0.0209751568332039,15.2278572256358
-0.0189519588537956,15.2288552104954
-0.0171153710586925,15.2298130387923
-0.0154541176780645,15.2307302878962
-0.0138797261776377,15.2316529272671
-0.0123653439406879,15.2325992626582
-0.0109152906620922,15.2335710082428
-0.00953346419611303,15.2345703337545
-0.00822355290408477,15.23559978912
-0.00698898300228148,15.2366624005482
-0.00583286527519982,15.2377617961082
-0.00475793908474127,15.238902375454
-0.00376651334410943,15.2400895447382
-0.00286040355117224,15.2413300509899
-0.00204086297814694,15.2426324741909
-0.0013085043196948,15.2440079812154
-0.00066320461733684,15.245471540098
-0.000103978834430923,15.2470440041144
0.000352986403609233,15.2486810839805
0.000713818164837757,15.2503687101297
0.000994511604110537,15.2521252991266
0.00120964795175029,15.2539733403103
0.0013730607361567,15.2559432105166
0.00149833580572379,15.2580786450626
0.0015996194723765,15.2604484517437
0.0016933416365759,15.2631765982941
0.00180377440908374,15.2665499299216
0.00194060504500086,15.2703060607834
0.00210575178726284,15.2741966060412
0.00229063599753166,15.2780437903035
0.00249206247653404,15.2819059165113
0.00270685426925004,15.2858282281443
0.0029330068527059,15.2898476366216
0.00317001094270147,15.2939971371978
0.00341878134801332,15.2983084648397
0.0036814586544961,15.3028138358512
0.0039612313294013,15.3075474363742
0.00426228623437715,15.3125468379877
0.0045899982420082,15.3178542956056
0.00493965199954337,15.3233339482452
0.0052946677254318,15.3286750710088
0.00566268026838985,15.3339546367845
0.00604435847931872,15.3391359992584
0.00644411406237884,15.3442345450899
0.00686597172344764,15.3492557318497
0.00731456236858124,15.3542082487462
0.00779470963239216,15.3590976497523
0.00831160134345745,15.3639275393516
0.00887085494099682,15.3686993857739
0.00947864715121966,15.3734130146579
0.0101418433208057,15.3780670818042
0.010875905672995,15.3827064137939
0.0117014595083075,15.3873786233084
0.0126358625559465,15.3920851921596
0.0137047265266818,15.3968488524752
0.0149464701003274,15.4017185916483
0.0164307438431029,15.4068148158041
0.0183339674797447,15.4125060276307
0.0207548915900278,15.4188501627841
0.022293480616727,15.4225910343067
0.0238555373835544,15.4263319058293
0.0252139128019845,15.4296970470213
0.0263590970006125,15.4328065068891
0.0272985885997713,15.4358210634112
0.0279757611370396,15.4386899947028
0.0283865659557675,15.4415022894904
0.0285150782625345,15.4443930655966
0.0282967932568039,15.4475864771654
0.0274267842337565,15.4519217624634
0.0265572055329587,15.4547327373546
0.0254973626750574,15.4575437122458
0.0244230703447922,15.4600644274593
0.0233494964786264,15.4624066190686
0.02227490999318,15.4646522164363
0.0212014046776014,15.4668444732101
0.0201324867522688,15.4690095481391
0.0190718610363949,15.4711653765007
0.0180230729175583,15.4733253793912
0.0169894099617046,15.4755002791504
0.0159738803897277,15.4776991114389
0.0149792159602374,15.4799298455686
0.0140078842705002,15.482199790828
0.013062097547548,15.4845158957454
0.012143825769384,15.4868849681661
0.0112548076738694,15.4893138581174
0.0103965549530002,15.4918096373084
0.00957037057985572,15.4943797307462
0.0087773500544909,15.4970320981402
0.00800912385473093,15.499810308648
0.00725551025020345,15.5027782721543
0.00652036300083622,15.5059581523495
0.00580756043476959,15.5093762769635
0.00512116653907776,15.5130631254002
0.0044653832759748,15.5170541131117
0.00384445508664702,15.5213907282708
0.00326251945247932,15.526122293452
0.00272339690424211,15.5313089326151
0.00223028166682477,15.5370274394863
0.00178557440152632,15.5433798114055
0.00139709360786221,15.550378662758
0.00107954887728738,15.5579321277692
0.000872307285899395,15.5648154261112
0.000691575407130476,15.5728533582401
0.000543563865179994,15.5818249094226
0.000427559180554419,15.5918249094226
0.000349610110508451,15.6018249094226
0.000299039945255747,15.6118249094226
0.000268068894126844,15.6218249094226
0.000251129669006189,15.6318249094226
0.000244399875568,15.6418249094226
0.000245368657865444,15.6518249094226
0.000252467759267873,15.6618249094226
0.000264802879240267,15.6718249094226
0.000281984305357336,15.6818249094226
0.000304036729603613,15.6918249094226
0.000331369654095906,15.7018249094226
0.000364800617987938,15.7118249094226
0.000405636565627063,15.7218249094226
0.000455492702089152,15.7317618034326
0.000512532034361567,15.7409760321292
0.000577366277126512,15.7494958496657
0.000650930976047246,15.7573726751974
0.000734363775462277,15.7646551976617
0.000828982070472037,15.7713886992306
0.000936287439158967,15.7776153208018
0.00105798405146257,15.7833743133788
0.00119600361662698,15.7887022482175
0.0013525349062223,15.7936331974378
0.00153005644618681,15.7981989100013
0.00173137671483387,15.8024289815318
0.00195967991579702,15.8063510136682
0.00221858177696989,15.8099907608167
0.00251219727799848,15.8133722801002
0.00284522444846976,15.8165180881579
0.00322305169702952,15.8194493209035
0.00365189520157426,15.8221859036071
0.00413898304030859,15.8247467466845
0.00469280851030782,15.8271499779703
0.00532348992742186,15.8294132357952
0.00603939561845785,15.8315434557793
0.00682895228761612,15.8335031147996
0.00770127958790806,15.8353242541945
0.00867010177978158,15.8370388261195
0.00975621670676275,15.8386798665103
0.0109948798009528,15.8402877637603
0.0124933794438227,15.8419644702101
0.0145469198885569,15.8439378240486
0.0163083297488557,15.8454348753742
0.0182121250793882,15.8469319266997
0.0199394697814501,15.8482388902992
0.021458581634697,15.8493930830816
0.0228224993746802,15.8504768285514
0.0240418285128467,15.8515373749816
0.0251045247756927,15.8526121423797
0.0259806981465234,15.8537445711345
0.0266121308781448,15.8550069902754
0.0268539171440362,15.8565939971275
0.0264549442839991,15.858307403931
0.0254806300764774,15.8600208107345
0.0243437191727509,15.8614417369307
0.0230578380161306,15.8628083040388
0.0216203598263104,15.8642063182346
0.0200395873190008,15.8656782503684
0.018321482907461,15.867263000688
0.0164894778402309,15.8690113437856
0.0151158071940039,15.8704185077936
0.0124850045663793,15.8734289051434
0.0103190488172763,15.876336513089
0.00863472631780613,15.8789880798859
0.00728380344517666,15.8814659040138
0.00611001468138127,15.8839730847082
0.00508290340890557,15.8865426469618
0.00418709033059233,15.8891842435817
0.00344930364978872,15.8917525642716
0.0028265502303142,15.8943061699839
0.00227862350502759,15.8969597860899
0.00174468666272329,15.9000650145859
0.00141857137536191,15.9023147892133
0.00113549060559021,15.9045645638406
0.000918451810426637,15.9065326156586
0.000740827922292612,15.9083434248711
0.000583497943301591,15.9101352782422
0.000435638893214,15.9120193760051
0.000287153851020627,15.9141572510471
0.000117545753481273,15.916995533829
-0.000110750828406212,15.9218084464204
-0.000252842260866222,15.9257864960378
-0.000349289094313236,15.9293145551817
-0.000427780325356212,15.9332561584427
-0.000485448778073837,15.9383062399184
-0.000491233977212451,15.9432641370728
-0.000443126157001934,15.947739067478
-0.000341056811801924,15.9518075408633
-0.000182741382349247,15.9555011630164
3.56441166577445e-05,15.958864804408
0.000318895995909334,15.9619412428899
0.00067329354243165,15.9647762391003
0.0011077578828106,15.9674191767719
0.00163534893384811,15.9699215639355
0.00227817061898174,15.9723465914958
0.00306583494079501,15.9747483541331
0.00404443920266358,15.9771919066237
0.00525968715967974,15.9797030640592
0.00668326966192345,15.9821655954971
0.008236669854422,15.9844440455139
0.00983476454815612,15.9864550995736
0.0114870063416843,15.9882535619468
0.0132245080599484,15.9898947521491
0.0151187731255851,15.9914469954239
0.0172084763813379,15.9929291154741
0.0194986435766563,15.9943324046816
0.0220479037941091,15.9956802361168
0.0248958180912884,15.9969776300881
0.028073669532452,15.9982240656114
0.0316357339428113,15.9994266267882
0.0356333023597087,16.0005881059489
0.0401224230548256,16.001710780521
0.0451756352776508,16.0027988953992
0.0508742881734894,16.0038558338894
0.0573139391434533,16.0048850146627
0.0646129800248492,16.0058906363672
0.0729160278249298,16.0068771902156
0.0824028445853725,16.0078496594602
0.0933028644905414,16.0088139021904
0.105916413019639,16.0097770441917
0.120653711494494,16.0107484204962
0.138102972880239,16.0117410075995
0.158691047152286,16.0127526293342
0.182582529906492,16.013771077243
0.210458445341495,16.0148093418292
0.243272461659805,16.0158867218829
0.282546623988992,16.0170371682513
0.325751701402942,16.018193437803
0.36214786264249,16.0191225185626
0.393289748543253,16.0199157712396
0.420534628055889,16.0206366729056
0.444270645256519,16.0213186652483
0.46442457295928,16.0219848946809
0.48057478283365,16.0226560618473
0.491858197506552,16.0233554744125
0.496622495867989,16.0241163510378
0.491985969517463,16.0249458310669
0.476193809991952,16.0257917938599
0.447962101124573,16.0266680691134
0.405737314746521,16.027584800949
0.360963431574966,16.0283508913226
0.319636174749209,16.028961838651
0.274174383263335,16.0295727859794
0.233735134874844,16.0300860277196
0.198623120768789,16.030522031354
0.167476934120295,16.0309101575999
0.139406211128012,16.0312681400493
0.113853975893224,16.0316072720073
0.0904228711244159,16.0319359995347
0.0687764698218818,16.03226205786
0.0485493139845941,16.0325947735639
0.0291449346092182,16.0329507912346
0.00852871500155329,16.0333886900808
-0.000879613273310928,16.0336184889779
-0.00935972067810287,16.033848287875
-0.0157538606375604,16.0340399115614
-0.0216240361513825,16.0342335974584
-0.0274860816445914,16.0344486930517
-0.0331126943465664,16.034681773758
-0.0383602262631503,16.0349308072465
-0.0431499365734471,16.0351951428186
-0.0474416536394146,16.035475046417
-0.0514695232730717,16.0357945117332
-0.0546379875509688,16.0361076882775
-0.0572869237547725,16.0364403715222
-0.0594312510541178,16.036795426993
-0.0610841939455901,16.0371759534859
-0.0622595310981699,16.0375857581116
-0.0629700988945995,16.0380295428292
-0.0632262980504272,16.0385131735195
-0.0630344211075887,16.039044084331
-0.0623938646037138,16.0396323633842
-0.0612920075964545,16.0402922044844
-0.0597004663158078,16.0410425897299
-0.0575625667911587,16.041912591779
-0.054759658361577,16.0429535563872
-0.0509745264389466,16.0442881891288
-0.0469913587391685,16.0456656835458
-0.0431609599416117,16.0469975663383
-0.0395235409883517,16.0482879797409
-0.0360981686361525,16.0495390905976
-0.0328938947570661,16.0507517325198
-0.0299136362043211,16.0519260595708
-0.0271560394105906,16.0530618953118
-0.0246165667223981,16.0541589159262
-0.0222882520484529,16.0552167432157
-0.0201623006545697,16.0562349863008
-0.018228600500311,16.0572132524337
-0.0164761701297859,16.0581511379678
-0.0148694726038301,16.0590622731103
-0.0133200662891281,16.0599965441103
-0.0118328676994519,16.0609552430595
-0.0104118558390748,16.0619403790648
-0.00906082763016774,16.0629542995982
-0.00778334210528661,16.0639997771771
-0.00658266823116937,16.0650801180722
-0.00546172989841452,16.0661993076782
-0.00442304793638135,16.0673622092053
-0.00346867848861229,16.068574842352
-0.00260014628573238,16.0698447862466
-0.00181836993132866,16.0711817837434
-0.0011235736461342,16.0725986890912
-0.000515174486898714,16.0741130397316
3.2096220672303e-06,16.0757315527146
0.000416410349811748,16.077391373477
0.000741839366188204,16.0791108839817
0.000994650319170756,16.0809097584071
0.00118907701177592,16.082813941384
0.00133885523347343,16.0848595072247
0.00145786315978188,16.0871005209542
0.00156129984255722,16.0896272160838
0.00166872009259581,16.0926195516078
0.00180760408481018,16.0963562463436
0.00197191339203231,16.1002306802051
0.00216008685441682,16.1041213249221
0.0023651105132074,16.1079790635294
0.00258381376282415,16.1118607009964
0.00281382447946993,16.1158097195834
0.00305416266454745,16.1198621832655
0.00330529181529733,16.124050801278
0.00356895492530653,16.1284073397759
0.00384797511866118,16.1329642924709
0.00414613099749223,16.1377563603167
0.00446820005509417,16.1428217987856
0.00482028558151104,16.1482037295932
0.00518365165599274,16.1535587567469
0.00555783339685863,16.1588396741281
0.00594527896234974,16.1640384302297
0.00634906395624866,16.1691514905729
0.0067733170719284,16.1741853752843
0.007222623350993,16.1791476052574
0.00770192412121276,16.184044642985
0.00821650660381405,16.1888809054726
0.00877207000620195,16.1936586478512
0.00937482941936336,16.1983782328172
0.0100316434867333,16.2030386241577
0.0107557361290622,16.2076720315435
0.0115692793661141,16.2123400071195
0.0124885769622076,16.2170402557774
0.0135381723661763,16.2217936837978
0.0147540572164185,16.226643766234
0.0161995075097319,16.2316960795939
0.0180249461293843,16.2372584081297
0.0204455613129679,16.243697691035
0.0220103972563655,16.2475288360882
0.0236115967728232,16.2513599811414
0.0250084021593887,16.2547877623338
0.0261865398129593,16.2579259626503
0.0271594326391682,16.2609463995955
0.0278797680982791,16.263834813921
0.0283341079087054,16.2666476803771
0.0285109680145703,16.2695143459891
0.028357578557655,16.272633370144
0.0276552732726878,16.2766168190469
0.0268118560918787,16.2795656528206
0.0257454857100414,16.2825144865943
0.0246678821040165,16.2851020698978
0.0235944090967729,16.2874763765288
0.0225201646356141,16.289739160576
0.0214463488051607,16.2919405642605
0.0203762927421013,16.294109609533
0.0193137063370034,16.2962656794092
0.0182621884223474,16.2984230159536
0.0172250929733429,16.3005928336153
0.0162054960013817,16.3027844675671
0.0152061957583536,16.3050060606077
0.0142297232917942,16.3072650080277
0.013278351666502,16.3095682759811
0.0123541098301018,16.311922630751
0.0114587914431184,16.314334832263
0.0105939618229034,16.31681180718
0.00976097448875227,16.3193607824799
0.00896097211621845,16.3219894615695
0.00818985025444963,16.324724815628
0.00743243776708859,16.3276450497175
0.00669260251166887,16.3307713306838
0.00597417388728116,16.334129062166
0.00528117703920096,16.3377476122274
0.00461779006476361,16.3416610504968
0.00398825952924586,16.3459091782531
0.00339676686785069,16.3505390704564
0.00284722970005216,16.3556076716252
0.00234301272469671,16.3611867867412
0.00188671176809757,16.3673708689719
0.0014820210053994,16.3742514111688
0.00114235484497346,16.3816635563213
0.000880350456008314,16.3896009973127
0.000712466046586874,16.396675306072
0.000552153556489827,16.4057363696085
0.000435135726404884,16.4149865445851
0.000347137070577122,16.4249865445851
0.000288484237472463,16.4349865445851
0.000250879087395621,16.4449865445851
0.000228269010134758,16.4549865445851
0.000216382857393064,16.4649865445851
0.000212329411771197,16.4749865445851
0.000214225127093055,16.4849865445851
0.000220896350997248,16.4949865445851
0.000231673548579041,16.5049865445851
0.000246264885948131,16.5149865445851
0.000264688034702816,16.5249865445851
0.000287244470374678,16.5349865445851
0.000314529751067109,16.5449865445851
0.00034748201049659,16.5549865445851
0.000387479758955261,16.5649865445851
0.000436183631803819,16.5749245532539
0.000491858833925093,16.5841406895551
0.000555171034641299,16.5926630181556
0.00062708005257323,16.6005427538059
0.000708730523223738,16.6078284375698
0.000801438243594053,16.6145652447651
0.000906698437089499,16.6207952341741
0.00102620541985018,16.6265575892565
0.00116187775012306,16.631888823503
0.0013158875955144,16.6368229592685
0.00149069323297361,16.6413917005492
0.00168907856661028,16.6456245998096
0.00191419824049196,16.6495492155833
0.00216963250961052,16.6531912593333
0.00245945356717371,16.6565747440302
0.00278830760905402,16.6597221385034
0.00316151941623736,16.6626545251388
0.00358522614760588,16.6653917672526
0.00406655589450875,16.6679526997965
0.00461387224481441,16.6703553542902
0.00523712025049931,16.672617240516
0.00594666933978528,16.6747511499601
0.00672914425594848,16.6767123801699
0.00759323472338294,16.6785327009314
0.00855204765931773,16.6802437585697
0.00962521406392079,16.6818777721515
0.0108454061453227,16.6834730964989
0.0123064919612805,16.685119611585
0.0142622546337076,16.6870145765383
0.0160742712240694,16.6885613678902
0.018048983904268,16.690108159242
0.0198272303503702,16.6914395139134
0.0213789285950687,16.6926001190386
0.0227704733568032,16.6936830792812
0.0240170007683848,16.6947384270555
0.0251086285675681,16.6958037012465
0.0260176923013555,16.6969206866309
0.0266904104251824,16.6981560425698
0.0269998095139425,16.6996766538703
0.0266685087908061,16.7014307918115
0.0257108317833623,16.7031849297528
0.0245800430035582,16.7046139606465
0.0233007511492339,16.7059764107887
0.021867636042494,16.7073666911918
0.0202885240242212,16.7088287398088
0.0185695957613844,16.7104012952149
0.0178989548736895,16.7110193047791
0.0172416189920985,16.7116373143433
0.0147479482328525,16.7141587113009
0.0120246035864134,16.7173364121417
0.00993242170741294,16.7202165573449
0.00831015909456963,16.7228338956745
0.00699066116034005,16.725313178106
0.00584172666323838,16.7278284453751
0.00483530464308556,16.7304103538539
0.00398114324833172,16.7329880345405
0.00328902500314503,16.7354374226406
0.00271881538386705,16.7377873354431
0.00223868698519186,16.7400791686657
0.0018224759312555,16.7423744062549
0.00144438786699418,16.744789164258
0.00105802767415461,16.7476945753081
0.000828060207337122,16.7497036630341
0.000624051264112483,16.7517127507602
0.000460729110355906,16.7535114177158
0.000324229995028847,16.7551725755923
0.000201378035638709,16.7568146196856
8.40907423907444e-05,16.7585366483939
-3.56738126893389e-05,16.7604811174222
-0.000174623405701268,16.7630265035172
-0.000373390845543855,16.7673883386226
-0.000511286465444531,16.7711387108968
-0.000612071010330326,16.7744595731366
-0.000703355879211948,16.778144080758
-0.00079208734296208,16.7829114587198
-0.000851478797138738,16.7883049916586
-0.000859440874434977,16.7930532472422
-0.000817582072190345,16.7973586437925
-0.000722948716841784,16.8012395967486
-0.000571606835828003,16.8047411287909
-0.000358803472333178,16.8079131366252
-7.88638756724821e-05,16.8108068065089
0.000276258105619211,16.8134799906708
0.000718769444408054,16.8159940650282
0.00126755177198239,16.8184135083474
0.00195513628407976,16.8208178859816
0.0028461572491322,16.8233293761498
0.00407413155945874,16.8261444490416
0.00565970717978334,16.8291346740371
0.007035488407352,16.8313488741742
0.00861081080386895,16.8335630743113
0.0101895911780094,16.8354974040631
0.0117957773018039,16.8372169838807
0.0135317659736243,16.838838790301
0.0153883945434972,16.8403468831675
0.0174455163417655,16.8417955076336
0.0197277771796805,16.8431840941028
0.0222706203938034,16.8445179366669
0.0251167740643223,16.845803249644
0.0282998751787381,16.8470398758023
0.0318703651349295,16.8482329551145
0.0358782446565294,16.849384880859
0.0403782553425269,16.8504977045912
0.045441692807489,16.851575544909
0.0511483701735815,16.8526216779704
0.0575932590257044,16.853639621868
0.0648890886600652,16.8546329631577
0.0731766700369473,16.8556060800387
0.082628957033034,16.8565636267216
0.0934637705521777,16.8575109023844
0.105962336685192,16.858454217709
0.120498729393891,16.8594014384251
0.13759009919844,16.8603629221044
0.157996466500923,16.8613535943521
0.181630276617226,16.8623463758261
0.209100328425156,16.86335116068
0.241230231432323,16.8643824099192
0.279222251733164,16.8654632547182
0.323559227829751,16.8666002633562
0.364930280471451,16.8675916388469
0.399330215411653,16.868399108399
0.429046100928723,16.8691119997241
0.455025955922556,16.8697764596037
0.47743238167688,16.870419685465
0.495995902116958,16.8710636642694
0.510010054976666,16.8717319172186
0.518046046046266,16.8724575407448
0.517207625843195,16.8732667741997
0.505201342919472,16.8740922096352
0.480774787750429,16.8749501699958
0.442275446121025,16.8758528006767
0.387840810629637,16.8768088656743
0.343454993609922,16.8774587141704
0.293992539645178,16.8781085626666
0.249900424707064,16.8786502950797
0.212184132456687,16.879100845878
0.179091594432424,16.8794959000157
0.14946703545735,16.8798566310667
0.122620823863516,16.8801958470899
0.0980862358135925,16.8805226257602
0.0754909956392853,16.8808447974216
0.054462409805671,16.8811711217773
0.0344607294980866,16.8815157413973
0.0139996746654582,16.8819196868288
0.000428489970162828,16.8822303943923
-0.00690161082814024,16.8824183436534
-0.0135998881558344,16.8826062929146
-0.0194646696961646,16.8827867599206
-0.0254485675181819,16.8829902556304
-0.0312773208396951,16.8832127287207
-0.0367695619310136,16.8834514955909
-0.041823989676554,16.8837054736052
-0.0463870333200407,16.8839746249557
-0.0504335779877374,16.8842596379717
-0.0542056696814995,16.8845870912059
-0.0571163967757696,16.8849071770909
-0.0595082801083286,16.885248001155
-0.0613980366400459,16.8856127763257
-0.0627998570550214,16.886005008155
-0.0637275328155854,16.886429017248
-0.0641929706814725,16.8868901789451
-0.0642045724838273,16.887395274287
-0.0637652420952928,16.8879530309884
-0.062867329714562,16.8885763161118
-0.061488883792065,16.8892819305463
-0.059584895852251,16.8900946093175
-0.0570635777960299,16.8910556027596
-0.0537057257746622,16.8922513372712
-0.049627878815037,16.8936572869839
-0.0456730207224992,16.8950147817711
-0.0418952521134775,16.8963301590434
-0.0383212582109861,16.8976062768791
-0.0349645790231415,16.898844278256
-0.0318312477635885,16.9000444355005
-0.0289222945637343,16.9012065945259
-0.0262350736977022,16.9023304085349
-0.0237641164925617,16.903415459178
-0.021501776885397,16.9044613150098
-0.0194387734680644,16.9054675530691
-0.0175646656753273,16.9064337574011
-0.0158682764422672,16.9073595020919
-0.0142829717728223,16.9082771852483
-0.0127566231413313,16.9092183331353
-0.0112937920163926,16.9101844821928
-0.0098984126327933,16.9111777315251
-0.00857422284272308,16.9122005426471
-0.00732471030942275,16.9132558313296
-0.00615305985411654,16.9143470857433
-0.00506209819032943,16.9154785254316
-0.00405423583066348,16.9166553201863
-0.00313140544801807,16.9178838996532
-0.00229499511888882,16.9191724055472
-0.00154577336289647,16.9205313781976
-0.000883799991000993,16.9219748496681
-0.000308310745238862,16.923522192339
0.000169459128810598,16.9251508727235
0.000547288338775863,16.9268261740733
0.000841666589234677,16.9285664013316
0.0010673423428293,16.9303927831907
0.00123822031614822,16.9323336892867
0.00136781227636116,16.934429346399
0.00146993463861622,16.9367416917596
0.00156008934090408,16.9393785062726
0.0016594581522877,16.9425722925315
0.0017857170453207,16.9463096910434
0.00194362950435118,16.9503015987016
0.00214264010443678,16.9546652696766
0.00234400913890431,16.9586874885584
0.00254775881958772,16.9625574724057
0.0027543374479058,16.9663790103918
0.00296467056742358,16.9702146004741
0.0031803498021764,16.9741091288265
0.00340356808909594,16.9780991467442
0.00363702116969675,16.9822172942733
0.00388383540049034,16.9864948342612
0.00414755471215451,16.990963449074
0.00443221584084174,16.9956566792048
0.00474257551600382,17.0006113592674
0.00508455419731181,17.0058688135452
0.00544729910377677,17.0112042055584
0.0058214357329708,17.0164380691216
0.0062120695497411,17.0216053176932
0.00662103930344655,17.0266862864379
0.00705270749487299,17.0316901061531
0.00751165695726852,17.0366225254439
0.00800304533044704,17.0414899517012
0.00853241734986816,17.0462964797525
0.00910579539135506,17.0510441600676
0.00972975938642139,17.0557331125172
0.0104115837800027,17.0603621714102
0.0111740007444901,17.0650144380707
0.0120327716977484,17.0696953994528
0.0130084821908542,17.0744176120937
0.0141300300941634,17.0792095003506
0.0154434438242493,17.0841371602916
0.0170398972860935,17.0893708120914
0.0192026342236412,17.0955281505259
0.0209404406754487,17.099969062147
0.022777188759918,17.1044099737681
0.0243247404374432,17.1081348133388
0.0256140298128276,17.1114025909203
0.0266934463981401,17.1144663306926
0.0275540212790203,17.1174413028982
0.0281457216426951,17.1202788635995
0.0284690592667453,17.1230992911383
0.02849723685412,17.1260530755795
0.0281328131231475,17.1294418427871
0.0273530731130523,17.1329053617677
0.0262257636465401,17.1363688807482
0.0251262237125855,17.1391453616995
0.0240502013987188,17.1415946675589
0.0229761538227859,17.1438954341457
0.0219017358065843,17.1461174987122
0.0208296418776191,17.1482967134474
0.0197635165844177,17.1504556744228
0.018707031796239,17.1526103955753
0.0176636504323826,17.154773152455
0.0166365652597949,17.1569539386552
0.015628690356121,17.1591613041388
0.0146426664100364,17.1614028873313
0.0136808736583745,17.1636857700094
0.012745442244761,17.1660167410705
0.0118382612050109,17.1684025056251
0.0109609927640406,17.1708498455629
0.0101150749771573,17.1733657927753
0.00930173781367525,17.1759577597322
0.00852200651326412,17.1786337101002
0.00775832678230385,17.1814735810512
0.00701063953167676,17.1845100206823
0.00628273899860884,17.1877667666406
0.00557857707861576,17.1912714310377
0.00490227912469704,17.1950560030669
0.00425807919730223,17.1991577399428
0.00365021187908522,17.2036204405493
0.00308274219969504,17.2084965137543
0.00255930964049975,17.2138508303686
0.0020828617226225,17.2197673451873
0.00165554183409975,17.2263586378406
0.0012897715800982,17.2335330384835
0.000990671216808988,17.2412974479208
0.0008062394868434,17.2479907893848
0.000632759617226278,17.2564549499888
0.000497947388133253,17.2655611370102
0.000394538178566566,17.2755611370102
0.000325463398876352,17.2855611370102
0.000281166219685201,17.2955611370102
0.000254705022208065,17.3055611370102
0.000241127508463221,17.3155611370102
0.000237053110700284,17.3255611370102
0.000240290764583559,17.3355611370102
0.000249515088709333,17.3455611370102
0.00026403318704192,17.3555611370102
0.000283642884227652,17.3655611370102
0.000308566725904377,17.3755611370102
0.000339448219442112,17.3855611370102
0.000377408296730615,17.3955611370102
0.000424175357298904,17.4055611370102
0.00047930542322515,17.4150837874732
0.000542331698983303,17.4238894730307
0.000614101685202982,17.4320228974704
0.000695728699922294,17.4395358153504
0.000788522132481356,17.4464764982945
0.000893982605883001,17.4528896935738
0.0010138165928365,17.4588169333668
0.00114995977583283,17.4642968034783
0.00130460643073318,17.4693651668281
0.00148024233066656,17.4740553695945
0.00167968497510955,17.4783984369049
0.00190612982691231,17.4824232581745
0.00216320764458315,17.4861567562238
0.00245505233826944,17.4896240525983
0.00278638755579124,17.4928486393903
0.00316263607569052,17.495852557322
0.00359006158885927,17.4986565823679
0.00407595982504488,17.5012804394331
0.00462892227747403,17.5037430597852
0.00525921492708298,17.506062907631
0.00597463470576781,17.5082453203002
0.00676477400943274,17.5102554024191
0.00763945740983242,17.5121268046091
0.00861362120312763,17.5138934899913
0.00971052202459013,17.5155917230624
0.0109713054641832,17.5172684749185
0.012524927346922,17.519048344527
0.014808392904794,17.5212864904084
0.0164403706046083,17.5227123408789
0.0181725479039273,17.5241381913495
0.0197573178193535,17.5254136567442
0.0211683219432565,17.5265699970796
0.0224346840930172,17.5276716051884
0.0235573246578816,17.5287610330859
0.0245187036593083,17.5298766093224
0.0252824824084819,17.5310678778238
0.0257758880465815,17.5324276470961
0.0257784479283452,17.534272435107
0.0252068103836339,17.5358709206619
0.0242031913849832,17.5374694062168
0.0230486250473774,17.5388815745305
0.0217472284525883,17.5402701461744
0.0203042771502542,17.5416988509828
0.0187289900463443,17.543206653937
0.017438931523787,17.5444365052842
0.0161829078298831,17.5456663566314
0.0148920514370149,17.5470057040333
0.0123842595385679,17.5498942912213
0.0102298590713512,17.5527885467027
0.00854060927264028,17.5554436335138
0.00718238824236922,17.5579268854502
0.00600032339784221,17.5604397484388
0.00496868599715596,17.5630028732623
0.00412498731089306,17.5654527560519
0.00342417088850312,17.5678185915295
0.00282925191557455,17.5701447471499
0.00230819877577167,17.5725027921534
0.0018242641437037,17.5750523212425
0.00140375111361217,17.5776461874056
0.00112960613556894,17.5795869610242
0.000885389350700723,17.5815277346428
0.000688978642446315,17.5832666319714
0.000520403447367282,17.5849121845846
0.000365513907123142,17.5865727040566
0.000214387889545918,17.5883557799918
5.47075736052288e-05,17.5904495368711
-0.000152321175173272,17.5935645583543
-0.000353662026935265,17.5971650244784
-0.000497929261692755,17.6002165590528
-0.000621787567895528,17.6032656479735
-0.000743178144210461,17.606789118413
-0.000869121373518159,17.6113115809742
-0.000980973146861659,17.6168854814604
-0.00103380669899273,17.621728584867
-0.00103491909044374,17.6261383008789
-0.000981863885082235,17.6301147280534
-0.000870915640303,17.6337089741913
-0.000697369332410015,17.6369682972401
-0.00045522127815177,17.639947796998
-0.000136695099466275,17.6427024131037
0.000269849186655505,17.6452934688848
0.00078444146698347,17.647795969743
0.00144587804053227,17.6503149574613
0.00233654419811755,17.6530200804041
0.0035570870710592,17.6560241839953
0.00511055575789293,17.6591920901847
0.00638686540693208,17.6614402171273
0.00783210307754653,17.66368834407
0.00928467072724472,17.6656725024972
0.0107436723567186,17.6674211341316
0.0123166549759818,17.6690703523517
0.0140165485756472,17.670621322923
0.0158991206635413,17.6721099204462
0.0179899045285346,17.6735375208669
0.0203274178397802,17.6749125338098
0.0229396322884722,17.6762344113243
0.0258673380707287,17.6775081304129
0.0291462083002319,17.6787343397181
0.032823073711396,17.6799165909684
0.03695029395543,17.6810580111496
0.0415872911050906,17.6821615522646
0.046801656854807,17.6832300012212
0.0526781719308109,17.6842673164445
0.059315806280956,17.6852771723799
0.0668337046247628,17.6862634525164
0.0753775159729314,17.6872303884547
0.0851277343656245,17.6881826675062
0.0963127749981315,17.6891256959411
0.109229722804538,17.6900660215007
0.124274929483925,17.6910117862826
0.142000665496232,17.6919738459774
0.163074667231329,17.6929614042349
0.187482711404626,17.693952102348
0.215869870057353,17.6949565646033
0.249105747724382,17.6959899783551
0.288488302794212,17.697077492394
0.334016216791642,17.6982152064104
0.374219880799432,17.6991611545676
0.407806467337384,17.6999415737434
0.436933274803166,17.7006384586806
0.462380509647076,17.7012931019259
0.484227612851232,17.7019311823991
0.502132501580069,17.7025746376427
0.515280730415087,17.7032483122756
0.522009448767539,17.7039895706325
0.519218599298529,17.7047978961853
0.505012887530351,17.7056264149989
0.478043413550431,17.7064909932164
0.436573488530293,17.7074031191811
0.378689129568677,17.7083714183225
0.334945800046139,17.7089896487198
0.286820423249739,17.7096078791171
0.243880548650533,17.7101285034321
0.206926636480266,17.7105667136643
0.174374331926396,17.7109540848491
0.145169653803951,17.7113097693271
0.118667750040106,17.7116456985887
0.0944206323524914,17.7119705991651
0.0720593009567302,17.712292303025
0.0511948916521535,17.7126200778368
0.0312123637694685,17.712970177356
0.0100835723733066,17.7133984402
0.000153572941642087,17.7136300078058
-0.00877369723584459,17.7138615754115
-0.0152762077273161,17.7140483099654
-0.021238470126953,17.7142366543477
-0.0272112840647658,17.7144462638507
-0.0329578464722123,17.7146737046767
-0.0383275280408685,17.7149169118403
-0.0432372469474658,17.7151751953482
-0.0476442424944052,17.7154487797178
-0.051528162971339,17.7157385492715
-0.0551142397480342,17.716070916219
-0.0578646726065061,17.7163968815262
-0.0600998980592174,17.7167444258878
-0.061836892268612,17.7171169448374
-0.0630899583154634,17.7175181871174
-0.0638725099200373,17.7179527838241
-0.0641955698045256,17.7184265204175
-0.0640660581052328,17.7189467397148
-0.0634842481379872,17.7195232288288
-0.0624381773658582,17.7201701494315
-0.0608998408626622,17.7209062905232
-0.0588126773206413,17.7217604478496
-0.0560576884056514,17.7227834848134
-0.0523165648022419,17.724096852287
-0.048268898147585,17.7254859891164
-0.0443640812029613,17.7268301228688
-0.0406466944873478,17.7281334715515
-0.037138299495776,17.7293981643407
-0.033849683114847,17.7306249718182
-0.0307851431441991,17.7318139767957
-0.0279444811409101,17.7329649323567
-0.0253241255573613,17.734077450052
-0.0229178966661799,17.7351510961184
-0.0207176102416239,17.736185435577
-0.0187135952385629,17.7371800450712
-0.0168951521942235,17.7381345057197
-0.0152509599563642,17.7390483821706
-0.01368473517486,17.7399727046928
-0.0121789973521361,17.7409208225669
-0.0107379780701759,17.7418945137746
-0.0093655644353405,17.742895972723
-0.00806543160997812,17.7439277809992
-0.00684099076794562,17.7449930050424
-0.00569533591726914,17.7460953245287
-0.0046311881856542,17.7472392061976
-0.00365083726669358,17.7484301449385
-0.00275607917879207,17.7496750077765
-0.00194814853096749,17.7509825415305
-0.00122764177863645,17.7523641533289
-0.000594424609153214,17.7538351731535
-4.75094271207828e-05,17.7554170330136
0.00039539253474055,17.7570572016279
0.000743395030895118,17.7587493888616
0.00101224314573037,17.7605120752753
0.00121636313616973,17.7623682370482
0.00136943802497465,17.7643490382559
0.00148490303197863,17.7664996113542
0.00157674862436374,17.7688915601174
0.00166126008246974,17.7716556838159
0.00176283469839678,17.7751036181801
0.00188882173620081,17.7788701665292
0.00205321707416423,17.7830132664174
0.00223692983729326,17.7870644785187
0.00242812911837197,17.7909486682183
0.00262518239973202,17.7947728327988
0.00282751500763905,17.7986034053212
0.00303558775742087,17.8024871057117
0.00325077731174561,17.8064613905515
0.00347520509567888,17.8105593461526
0.00371158887700462,17.8148124106141
0.00396315051914877,17.8192522224745
0.00423361190916583,17.8239120993472
0.00452733718609283,17.8288284996941
0.00484968343920003,17.8340422984266
0.00519979059150843,17.839479044335
0.0055568324260402,17.844765934233
0.00592974050589885,17.8500030588247
0.00631840155998722,17.8551440405389
0.00672735582468737,17.8602052422176
0.00716065934629656,17.8651905879673
0.00762314706061588,17.8701083282764
0.00811990539058751,17.8749635187487
0.00865645552394762,17.8797593896411
0.00923879473377156,17.8844969831179
0.00987352707842375,17.8891757273352
0.0105685662527971,17.8937976260325
0.0113495637767359,17.8984584500678
0.0122304382105959,17.9031470279358
0.0132335969818138,17.9078813103338
0.0143903887785658,17.9126946852858
0.0157527614553734,17.9176668688418
0.0174305981586303,17.9230116490501
0.0198311842323157,17.9296367330379
0.021466422327408,17.9337214811411
0.0231669866019279,17.9378062292442
0.024640275641848,17.9413776796284
0.025879242620367,17.9445811101279
0.02691212750795,17.9476212570455
0.0277111616335459,17.9505541700763
0.0282432934932133,17.953376995215
0.0285041411847913,17.9562123484533
0.0284572410217767,17.9592266777068
0.0279685730032923,17.9628128690956
0.027165223777017,17.9660301521691
0.0260745190632455,17.9692474352427
0.0249864470698316,17.9719472703969
0.0239116825465464,17.9743700137292
0.0228374314169774,17.976658068852
0.0217629746781594,17.9788733913014
0.0206912713308133,17.98104939229
0.0196259959540775,17.9832075741007
0.0185707976820211,17.9853633642685
0.0175291036763393,17.9875286962007
0.0165040673396376,17.9897133607111
0.0154985637128037,17.9919257915578
0.014515196334486,17.9941735693955
0.0135563084379202,17.9964637666391
0.0126239968657306,17.9988031952928
0.0117201178325438,18.0011986199295
0.010846299952221,18.0036569219741
0.0100039542870362,18.0061852543557
0.0091942809415177,18.0087912026267
0.00841828060593657,18.0114829380357
0.00765653097799645,18.0143487612725
0.00691129621861918,18.0174141748072
0.00618636725493773,18.0207035203886
0.00548571937467768,18.0242450040727
0.00481349665019619,18.0280713213223
0.00417394020101068,18.0322206014574
0.00357127279857351,18.0367377694087
0.00300951965331887,18.0416767909297
0.00249224250581918,18.0471048905185
0.00202228463424576,18.0531096362631
0.00160169137553531,18.0598089309355
0.00124493061615352,18.0670601953793
0.000962497002144229,18.0749164854856
0.000779386011154621,18.0820692049004
0.000616793679398546,18.0906055214414
0.00049205586635087,18.0996689690935
0.000396647231798287,18.1096689690935
0.000334034757091645,18.1196689690935
0.000295144641799704,18.1296689690935
0.000273386359206758,18.1396689690935
0.000264137486425082,18.1496689690935
0.000264324360060009,18.1596689690935
0.00027203338234253,18.1696689690935
0.000286201049608853,18.1796689690935
0.000306409062612235,18.1896689690935
0.000332778406071212,18.1996689690935
0.000365947435475361,18.2096689690935
0.00040712861124996,18.2196689690935
0.000458176044900331,18.2296542144957
0.000516957589046966,18.2389047862589
0.000584036650844756,18.2474491883202
0.000660354996202716,18.2553411530229
0.000747086185314906,18.2626313506407
0.0008456032917681,18.2693666999234
0.000957479028770371,18.2755907022106
0.00108450298767556,18.2813437488047
0.00122870687082772,18.2866633737513
0.00139239540084577,18.2915844669681
0.0015781809299213,18.2961394780034
0.00178902683797071,18.3003586100082
0.0020282972657315,18.3042699997845
0.00229981854806935,18.3078998820226
0.00260795452544971,18.3112727570286
0.00295770096455868,18.3144115667197
0.00335480817215776,18.3173378752217
0.00380594049673309,18.3200720646616
0.00431889417018759,18.3226335663512
0.00490290373850093,18.3250411441537
0.00556908912315607,18.3273132675357
0.00631477240520397,18.3294263154721
0.00713881816323989,18.331380758312
0.00805300187460086,18.3332104643242
0.00907518077298148,18.3349499680853
0.0102345313114386,18.3366388687381
0.0115869546109343,18.3383349434445
0.013353010067018,18.3402415408934
0.0152103838159041,18.3419963516187
0.0172586142185161,18.343751162344
0.0189883261941522,18.3451604361531
0.02047669000925,18.3463706262398
0.0218072250949221,18.3474956513708
0.0229965194204698,18.3485891378875
0.0240353740017585,18.3496897267499
0.0248974378519429,18.350839348569
0.0255318933893467,18.35210307538
0.0258222577091079,18.3536367162535
0.0254991836015184,18.3554588754086
0.0245531041353049,18.3572810345637
0.0234420691897724,18.3587526132145
0.022195173888923,18.360143446575
0.0208058948291759,18.3615545329635
0.0192821871099171,18.3630307734484
0.017631242119176,18.3646099009091
0.0162597988200241,18.3659513252834
0.0149667604191196,18.3672927496578
0.0124731506929608,18.3701630233265
0.0103139570639558,18.3730601911244
0.00862057859195835,18.3757191137237
0.00726033301776647,18.3782044369941
0.00607802543688988,18.3807170514205
0.00504228866371226,18.3832915958492
0.00417218024018165,18.3858285883471
0.0034262003165894,18.3883809966367
0.00275446937293277,18.3910937876452
0.00212843269218222,18.394121327311
0.00175672216320652,18.3962348180859
0.00143071181296052,18.3983483088608
0.00117221367348826,18.4002444253195
0.000955817882589287,18.4020196789147
0.000761139496250912,18.4037973628485
0.00057510675855716,18.4056926682863
0.000383459628315253,18.4078954830226
0.000147849280070407,18.4110582289189
-9.2249616231968e-05,18.4150084236662
-0.000254940808204544,18.4183091087325
-0.000386341323594044,18.4215392252031
-0.000507596425890132,18.4252327064943
-0.00062174933612407,18.4299049480408
-0.000699874447619875,18.4351939590914
-0.000717656387967407,18.4398691861109
-0.000680430469284471,18.4441330418487
-0.00058700962583705,18.4479994961034
-0.000434279354764283,18.4515156066479
-0.000217660725330859,18.4547285680696
6.92042857228575e-05,18.4576897864593
0.000435267967318231,18.4604529425788
0.000894173001637137,18.4630773630725
0.00146798256549742,18.4656318868631
0.00219354718408353,18.468200096259
0.00314884826259158,18.4709289761821
0.00445243643850528,18.4739603292122
0.00605979003646401,18.4770380515576
0.00763355232310811,18.4795748040263
0.00910908447411726,18.4816230662602
0.0106121296305117,18.4834382457516
0.0121988980077213,18.4851062272782
0.0139361411777111,18.4866916845792
0.0158326224435364,18.4881895058752
0.0179427149983128,18.4896283927323
0.0202890635923407,18.4910069611102
0.0229145032646971,18.4923344673626
0.0258511509281661,18.4936114290059
0.0291424447248825,18.4948420163602
0.0328348686433614,18.4960292075493
0.0369780595966936,18.4971751217553
0.041635288586615,18.4982836669069
0.0468784738636944,18.4993582448187
0.052792229517031,18.5004023376327
0.0594770429624281,18.5014195521107
0.0670560906974227,18.502414015325
0.0756813359286907,18.503390302736
0.0855421037548483,18.5043534749907
0.0968806118645534,18.505309477323
0.11001557455647,18.5062656092495
0.125381456215443,18.507231298952
0.143604782633354,18.5082198149173
0.165018642329594,18.5092236737784
0.18987249996008,18.5102353567141
0.218878599270027,18.5112679549482
0.253037746590012,18.5123410850662
0.293955472841739,18.5134897411697
0.328464637163137,18.5143841768806
0.364471511770823,18.5152786125916
0.396570515626331,18.516070320788
0.424681638468587,18.5167865735852
0.449221500774206,18.5174611795804
0.470184857298063,18.518118397604
0.487199488854955,18.518779402362
0.499451518694122,18.5194677405934
0.505350597902562,18.5202170654091
0.501973879452601,18.5210390930857
0.487415573403305,18.5218779256527
0.460389806183232,18.5227482646471
0.419295115571002,18.5236607915566
0.362377435900222,18.5246250383445
0.320879383530443,18.5252218911845
0.275476813395359,18.5258187440245
0.234715589797399,18.5263264975035
0.199308170473266,18.5267588804996
0.167921710906159,18.5271440854674
0.139652729277475,18.5274995831897
0.113932327512687,18.5278365745411
0.0903537090284238,18.5281634823498
0.0685709665470746,18.5284880923277
0.0482041021175367,18.5288199442782
0.0286169609415331,18.5291765329867
0.00748673014921985,18.5296237226564
-0.00130608906397342,18.5298378889186
-0.00927838182813393,18.5300520551807
-0.0156530360059189,18.5302407542345
-0.0215596673133504,18.5304331895118
-0.0274575809982233,18.5306468912886
-0.0331178493008546,18.5308784413465
-0.0383967207760895,18.5311258425455
-0.0432153514411718,18.5313884612138
-0.0475335131620773,18.5316665699583
-0.0513691059133232,18.5319648331782
-0.054592597723554,18.532274615866
-0.0572967422371073,18.5326039558636
-0.0594933054687445,18.5329554070668
-0.0611955490250199,18.533332019551
-0.0624174333742868,18.5337375469213
-0.0631720666812807,18.5341766261136
-0.0634701994504721,18.534655041794
-0.0633185505194392,18.5351801234678
-0.0627172257910733,18.5357616892814
-0.0616543538594375,18.5364137969818
-0.0601024979053354,18.5371550772048
-0.0580065847241013,18.5380139550047
-0.0552516548793156,18.539040251797
-0.0515352580817077,18.5403508454052
-0.0475252279066625,18.5417346603832
-0.0436618573506918,18.5430728174599
-0.0399883306570171,18.5443695962086
-0.0365251958558718,18.5456272351554
-0.0332824539541868,18.5468465893568
-0.0302637277264639,18.5480278095003
-0.027468227312824,18.5491707045716
-0.0248918720094015,18.550274932324
-0.0225280597378054,18.551340096485
-0.0203682734903865,18.5523657910943
-0.0184025984285931,18.5533516131381
-0.0166201761485073,18.5542971549186
-0.0150064111498734,18.5552038308981
-0.0134489826846149,18.5561334499531
-0.0119530454389462,18.5570871414104
-0.0105226105526468,18.5580668552583
-0.00916151967102479,18.5590748650414
-0.00787338804358876,18.5601138513919
-0.00666155312772534,18.5611870049131
-0.00552902047094845,18.5622981632388
-0.00447840684221972,18.5634519975106
-0.00351188011925502,18.564654272519
-0.0026310947809224,18.5659122204504
-0.00183712066918888,18.5672350970833
-0.00113036050446744,18.568635045736
-0.000510447301385147,18.5701285129484
2.38967617389239e-05,18.5717387335511
0.000450123680392535,18.573388921593
0.000785413314403584,18.5750954683649
0.00104509805353868,18.5768771702447
0.00124349366533568,18.5787585396306
0.00139429954687489,18.5807732505004
0.00151116763000834,18.5829709508902
0.00160868625764344,18.5854324944649
0.0017047162817385,18.5883122756384
0.00182943734562556,18.5920168205984
0.00197622669973022,18.5958285197105
0.00214936193012991,18.5997115051896
0.00234052483530927,18.6035564928483
0.00254634275706828,18.6074208966359
0.00276405642602634,18.6113489418698
0.00299224810911376,18.6153770154073
0.00323096077326151,18.619537886326
0.00348155511396713,18.6238632389675
0.0037465016338209,18.6283853631201
0.00402922600854048,18.6331386340066
0.00433410409483446,18.6381609180602
0.00466671219571167,18.643494875437
0.00501828840927026,18.6489408945022
0.00537693622434466,18.6542671100009
0.00574871942857278,18.6595245606591
0.00613502512925642,18.6646872494269
0.00654015442542037,18.6697679274687
0.00696828664081602,18.6747729683803
0.00742411102379245,18.6797103728907
0.00791256021359664,18.6845854111913
0.0084389413974599,18.6894012965776
0.00900901683675783,18.6941591793344
0.00962913093004701,18.6988586185455
0.010306346005562,18.7034981203456
0.0110606785707979,18.7081466773511
0.0119097457521571,18.7128253316098
0.0128729687481378,18.7175426667444
0.0139780878391241,18.7223251045139
0.0152684154528413,18.727232643759
0.0168271610604581,18.7324170559849
0.0188942048456474,18.7383947348217
0.0206931108578747,18.7430451896934
0.0226095199086995,18.7476956445652
0.0241913645270767,18.7514948236281
0.0255009230406185,18.7547908734319
0.0265984242935263,18.7578656473666
0.0274828881912211,18.7608588042623
0.0280973269006125,18.7637040121315
0.0284440417993583,18.7665212559807
0.0284994433083422,18.7694565274842
0.0281763897776621,18.7727866487355
0.0271798927638689,18.7771452878442
0.0262859847710504,18.7798472447434
0.0252278247691378,18.7825492016426
0.0241551602816459,18.7850115528385
0.0230814101330913,18.7873236788457
0.0220068412895603,18.7895526597533
0.0209341709817998,18.7917359495154
0.0198670224923862,18.7938971037485
0.0188090796431486,18.7960526810226
0.0177638288056528,18.7982152949092
0.0167344886779876,18.80039516636
0.0157239987244887,18.802601009608
0.0147350238583795,18.8048405897721
0.0137699674971971,18.8071210928568
0.0128309815351316,18.8094494010584
0.0119199764699564,18.8118323070923
0.0110386352508495,18.814276682429
0.0101884162939724,18.8167896555264
0.00937057056411687,18.8193787454364
0.0085861439808209,18.8220520414074
0.00782117281161792,18.8248753556297
0.0070717887548058,18.8278934789984
0.00634181483037166,18.8311296783025
0.00563517993450032,18.8346112361968
0.0049559903293497,18.8383697545854
0.00430846831342019,18.8424420246621
0.00369684966064962,18.8468712515127
0.0031252142412529,18.8517090754315
0.00259725949855681,18.857019015158
0.00211599106188453,18.8628831371689
0.00168361178650743,18.8694112065374
0.00131147514073924,18.8765379065721
0.00101245024275361,18.8842447000674
0.000782961237226215,18.8926972908038
0.000629060558264625,18.9005049621516
0.000494676654531834,18.9097593073265
0.000393637345229766,18.9197593073265
0.000326289450418831,18.9297593073265
0.000283200402989938,18.9397593073265
0.000257478331781753,18.9497593073265
0.00024423082908809,18.9597593073265
0.000240137500762246,18.9697593073265
0.000243046423371372,18.9797593073265
0.000251641087473123,18.9897593073265
0.00026520661396478,18.9997593073265
0.00028348821003059,19.0097593073265
0.000306621336606336,19.0197593073265
0.000335117685153944,19.0297593073265
0.000369902600794792,19.0397593073265
0.000412412719718697,19.0497593073265
0.000463580371443786,19.059547350654
0.000522038771821464,19.0686174837808
0.00058847394018477,19.077003342332
0.00066386982327982,19.0847559051182
0.000749404983502799,19.091923247604
0.000846437218116466,19.0985500795596
0.000956512043595539,19.1046780100997
0.00108138264900308,19.1103457921849
0.00122303597491179,19.11558952657
0.00138372271943037,19.1204428429303
0.0015659917309279,19.1249370757461
0.00177273106586828,19.1291014337957
0.00200721630338844,19.1329631575561
0.00227316803512599,19.1365476666201
0.00257482344387479,19.1398787119936
0.00291702433268777,19.1429785348048
0.00330533039397779,19.1458680278663
0.00374616585627884,19.1485669112074
0.0042470164450601,19.1510939358141
0.00481670284502449,19.1534671274126
0.00546577307459268,19.1557041004544
0.00619697366096727,19.1577960810957
0.00700359852725418,19.1597246100414
0.00789566932832927,19.1615217162397
0.00888815893311162,19.1632193349971
0.0100042543973835,19.1648515266797
0.0112846323406188,19.1664621549822
0.0128701495361852,19.1681814119018
0.0151678421309607,19.1703145785684
0.0168604034229072,19.171713516481
0.0186625990217544,19.1731124543935
0.0203176182637945,19.1743644477911
0.0217904563218645,19.1754952725536
0.0231145021302026,19.1765703303141
0.0242926571022492,19.177632138899
0.0253083332917409,19.1787182871892
0.0261260514598007,19.1798766755661
0.026674991806244,19.1811956791282
0.026747452341441,19.182966531282
0.0262077423294568,19.1845621637658
0.0252017779754674,19.1861577962495
0.0240392064826545,19.1875513949247
0.0227227260529517,19.1889202706513
0.0212560845264459,19.1903310704116
0.0196481276979791,19.1918234029739
0.0179035877951733,19.1934373651961
0.0160562103689859,19.1952282648889
0.0132062508101827,19.1983362870665
0.0108461268777292,19.2013611262045
0.00904148031094715,19.2040813526751
0.00760974996275485,19.2066001167378
0.00639100427919898,19.2090966056164
0.00532587475915888,19.2116474255482
0.00439240402009504,19.2142779714122
0.00362395771583107,19.2168306083735
0.00298271000962791,19.2193331831903
0.00243068721020175,19.2218624926356
0.00192703430964151,19.2245895160831
0.00142295208821659,19.2278888792764
0.00116518898417173,19.2298832741767
0.000937405610290438,19.2318776690769
0.000751601121107149,19.233707511885
0.000591513825749715,19.2354661328907
0.00044459852670165,19.2372628031692
0.000301512522089177,19.2392206020643
0.000149566310578287,19.2415839308845
-6.68716547042307e-05,19.245647653942
-0.00022763189738112,19.2494757554726
-0.000336434205268725,19.2527161113184
-0.000426984724566476,19.2561052993362
-0.000506721327224664,19.2601417203234
-0.000567243105908092,19.2655150313233
-0.0005717038071514,19.2703730487296
-0.000523382020722865,19.2747959720294
-0.000421371121608421,19.2788055768322
-0.000262841703538182,19.2824440493087
-4.37948355539881e-05,19.2857543079144
0.000241045755324172,19.2887835635725
0.000598592103165521,19.2915799127811
0.00103864017303413,19.2941942780662
0.00157641333198269,19.2966834242006
0.00223563112837908,19.2991094507479
0.0030494090969977,19.3015306065013
0.00408144979129007,19.3040443152274
0.00538753182942774,19.3066730528848
0.006902788462773,19.3092237928563
0.00849433687108253,19.3114991748485
0.0100952481678588,19.3134691919876
0.0117372114278045,19.3152219547296
0.013503132686449,19.3168599341584
0.0154027003237809,19.3183885321992
0.0174971650809572,19.3198480163675
0.0198202213266134,19.321246288153
0.0223986599558318,19.3225845806157
0.0252804953316789,19.3238730106344
0.0285012041625546,19.325112459195
0.0321123925021068,19.3263083834617
0.036165596631299,19.3274634571189
0.0407184663922354,19.328580189546
0.0458439401954785,19.3296626350356
0.0516246429105502,19.3307141895736
0.0581578565765225,19.3317383024663
0.0655638807108616,19.3327391516888
0.0739900487770963,19.333721247201
0.0836195509175799,19.3346895816591
0.0946863102312372,19.3356500218254
0.107497434115964,19.3366097585634
0.122470029589813,19.3375780286047
0.140204717121682,19.3385678587935
0.161106083712832,19.3395756725376
0.185360935880773,19.3405905074962
0.213659690965016,19.3416252780609
0.246968437765511,19.3426991861952
0.28683276397866,19.3438462395613
0.321440342397483,19.3447630852313
0.357686041675936,19.3456799309014
0.389966308996628,19.3464876817092
0.41823475217266,19.3472156281296
0.442936411937993,19.3478988105235
0.464091065851535,19.3485618984444
0.481360514510201,19.3492259085255
0.493991897504289,19.3499134746827
0.500534137707153,19.3506556027867
0.49818427045622,19.3514803466748
0.484833944051516,19.3523191997273
0.459255348745353,19.353186976117
0.419906089255996,19.3540945964917
0.365084234828756,19.3550515582626
0.32358406172947,19.3556623648669
0.277892349720965,19.3562731714712
0.236845990147518,19.3567907150969
0.201255271885969,19.3572292674979
0.169741859369573,19.3576186337963
0.141374719899131,19.3579770880442
0.115574103205985,19.3583161865879
0.0919304038123187,19.358644485136
0.0701009495352327,19.3589697263239
0.0497196668995924,19.3593011053017
0.03020355367016,19.3596546983702
0.0096539686998568,19.3600847317261
-0.000335236548651614,19.3603251689431
-0.00754479517879307,19.3605164523133
-0.0141288214720212,19.3607077356834
-0.0199533624489455,19.3608935284691
-0.0258602294878674,19.3611021134938
-0.0315898757022029,19.3613295610792
-0.0369725247357923,19.3615733255852
-0.0419139552565486,19.3618324259266
-0.0463648283010009,19.3621069028218
-0.0502966497634987,19.3623975115652
-0.0537471928342911,19.3627109469855
-0.056583065681719,19.3630357279894
-0.058908127636482,19.3633818212697
-0.0607360922231435,19.3637522118478
-0.0620808077282124,19.364150446364
-0.0629556778928418,19.3645808958797
-0.0633721791835108,19.3650489933703
-0.0633382678670236,19.3655615859649
-0.0628564172923363,19.366127477645
-0.0619182450411347,19.3667598036591
-0.0605015122062662,19.3674753952826
-0.0585610304357079,19.3682991822866
-0.0560050434167108,19.3692727475598
-0.0526145518387791,19.3704833117172
-0.0485819483860133,19.3718809707208
-0.0446796758779903,19.3732301321311
-0.0409590802129573,19.374536671182
-0.0374448206228715,19.3758034702056
-0.0341491063798925,19.3770317182303
-0.0310769411020014,19.3782217399353
-0.0282284982178831,19.3793734333627
-0.0256004107004398,19.3804864999725
-0.0231866149315204,19.3815605635537
-0.0209789937708684,19.3825952270434
-0.0189679153319028,19.3835900927314
-0.0171427029286275,19.3845447595087
-0.015492048571873,19.3854588046179
-0.0139192860631457,19.3863832924943
-0.0124068724640137,19.3873315659735
-0.0109590364821197,19.3883054054865
-0.00957965883259094,19.3893070076712
-0.00827240528632751,19.3903389562082
-0.00704067425355394,19.3914043195827
-0.00588754304380462,19.3925067795643
-0.00481571132210611,19.3936508051447
-0.00382744134026415,19.3948418937696
-0.00292449390852106,19.3960869155275
-0.00210805797921636,19.3973946211169
-0.00137866972653964,19.398776422868
-0.000736113112602954,19.4002476581812
-0.000179285527474987,19.4018297704283
0.000273738522904884,19.4034701592253
0.000632045345743566,19.4051625870405
0.000911484173789295,19.4069255448768
0.00112660672208953,19.4087820240937
0.00129126288524225,19.4107632110873
0.00141912703779162,19.4129142756102
0.00152456772771195,19.4153068935795
0.00162456236682345,19.4180720373394
0.00174517130375706,19.4215219697828
0.00189158276962178,19.4252891575104
0.00206954957469859,19.4292543108656
0.00226434102717497,19.4331241781218
0.00247293902010252,19.4369734404561
0.00269266893901592,19.4408564954273
0.00292204998373196,19.4448146470094
0.00316100290596418,19.448882857009
0.00341073436515739,19.4530933711191
0.00367353501681519,19.4574778678831
0.0039526035295282,19.4620690448098
0.00425198171097271,19.4669020936027
0.00457668119883562,19.472016019741
0.00493311594625039,19.4774549764753
0.00529561625761982,19.4827714148499
0.00567167540791322,19.4880405326558
0.00606121944509622,19.4932165277767
0.00646841759857578,19.4983107089203
0.00689723031663609,19.5033264658292
0.00735240341458069,19.508272243197
0.00783893406113132,19.5131538496975
0.00836221098421272,19.5179753173934
0.00892804992357412,19.5227384430348
0.00954281381532402,19.5274432347734
0.0102135432777982,19.5320884341814
0.0109581401496279,19.5367317732831
0.0117956137589257,19.5414064597233
0.0127443800944861,19.546117678343
0.0138310545660254,19.5508897535641
0.0150963208767575,19.5557766659175
0.0166159290458868,19.5609128217645
0.0185932841744552,19.5667294276965
0.0204655909756194,19.5716301455285
0.0220478928390578,19.5755020800281
0.0236658575049384,19.5793740145278
0.0250558822986082,19.5827917897904
0.0262267919663587,19.5859235377742
0.0271923531779212,19.5889423925427
0.0279032176230719,19.5918262125122
0.0283480630716157,19.5946385841111
0.0285144766598425,19.5975099722094
0.0283473379759909,19.6006439178986
0.0276127538453128,19.6046923889906
0.0267639200645786,19.6076108096133
0.0256993271740837,19.6105292302359
0.0246225577885781,19.6131025815281
0.0235490899400622,19.6154701834115
0.0224747733540036,19.6177293451948
0.0214010118886064,19.6199287358033
0.020331176933941,19.62209678193
0.019268979110632,19.6242525684184
0.0182180080705599,19.6264101665158
0.0171816052071135,19.6285806871366
0.0161628345190122,19.6307733978101
0.0151644818405643,19.632996398937
0.0141890661918253,19.6352570597298
0.0132388504024386,19.6375623287923
0.0123158511336564,19.6399189698717
0.0114218528549181,19.642333741215
0.010558411386319,19.6448135757968
0.00972686961493044,19.6473657175456
0.00892836147431505,19.6499978889517
0.00815774347183161,19.6527409722305
0.00740100598450593,19.6556697982263
0.00666201189933314,19.6588057213388
0.00594459923023306,19.6621743137138
0.00525280333840306,19.6658051286334
0.00459080703270924,19.6697324740639
0.00396285785663033,19.6739964437262
0.00337313092248007,19.6786444988592
0.00282552772614016,19.6837341300551
0.00232338354365147,19.6893379973355
0.00186925957094735,19.6955518530399
0.00146760758420171,19.7024533972317
0.00113069064598845,19.7098906748392
0.000906359208283401,19.7166649148492
0.00071708423039108,19.7244631783801
0.000559845080418034,19.7332890499139
0.000439772167824576,19.7426900614462
0.000351398148246441,19.7526900614462
0.00029264483750668,19.7626900614462
0.000255137258085905,19.7726900614462
0.000232781611934232,19.7826900614462
0.000221288713489313,19.7926900614462
0.000217763388327798,19.8026900614462
0.000220328165525002,19.8126900614462
0.000227824799786646,19.8226900614462
0.000239609569020996,19.8326900614462
0.000255429159187919,19.8426900614462
0.000275356242327732,19.8526900614462
0.000299769794685902,19.8626900614462
0.000329374956865445,19.8726900614462
0.00036526688960662,19.8826900614462
0.000409053650224879,19.8926900614462
0.000460944275688266,19.9023272298691
0.000520144534413838,19.9112517393038
0.000587440032101448,19.9195025836227
0.000663872799618303,19.9271302004937
0.000750665705937963,19.9341819742141
0.000849217403879414,19.9407019818134
0.000961115847314435,19.9467312503006
0.00108816024683581,19.9523079903202
0.00123238830317073,19.957467793201
0.0013961067547733,19.9622438116012
0.00158192734229331,19.9666669336465
0.0017928085646264,19.9707659503417
0.00203210606074007,19.9745677106776
0.00230363184132725,19.9780972703968
0.00261172878687867,19.9813780456419
0.00296136265665262,19.9844319720511
0.00335824008603857,19.9872796678094
0.00380896326207465,19.9899406134549
0.00432123806963872,19.9924333611176
0.0049041645302739,19.9947757871192
0.00556865747957648,19.9969854225225
0.00610077815479099,19.9984927112612
0.00670969424706882,20
