ecg,time
0.000183970866371808,15.0070957412636
0.000175958025636155,15.0170957412636
0.000173490881561151,15.0270957412636
0.000175235363627961,15.0370957412636
0.000180336562882206,15.0470957412636
0.000188277082890269,15.0570957412636
0.000198788496782718,15.0670957412636
0.00021179768086334,15.0770957412636
0.000227396938630082,15.0870957412635
0.000245832499351148,15.0970957412635
0.000267509633376894,15.1070957412635
0.000293015262550386,15.1170957412635
0.000323161671580327,15.1270957412635
0.00035905872570515,15.1370957412635
0.000402228056764469,15.1470957412635
0.000454783036240729,15.1570957412635
0.000518164161693047,15.1668771848934
0.000590711086949828,15.1759049764681
0.000673457434830931,15.1842189445699
0.000767767545293255,15.1918768896932
0.000875224522976921,15.198932853972
0.000997631785072558,15.2054367103859
0.00113703491997323,15.211434538897
0.0012957530834051,15.2169689715028
0.00147641775487953,15.2220794829902
0.00168201755706204,15.2268026563371
0.00191595239210973,15.2311724380221
0.00218209925901199,15.2352203851791
0.00248489491608722,15.2389758988846
0.00282943892610262,15.2424664590906
0.0032216313639289,15.2457178811836
0.0036683564869106,15.2487546040554
0.00417773908511335,15.2516000263667
0.00475951758393092,15.2542769420022
0.00542561251030166,15.2568081518295
0.00617316355894446,15.2591659390862
0.00700585984742785,15.2613632025419
0.00794075202479558,15.2634445520197
0.00900659924849448,15.2654618305585
0.0102604846793827,15.2674922031387
0.0118652493922033,15.2697221470455
0.0133906011357979,15.2715887941802
0.0150548442407371,15.2734554413149
0.0165185438006409,15.2750262001312
0.0177841595844439,15.2763866534053
0.018909451403847,15.2776500459142
0.0199060744460306,15.2788743144067
0.0207644673244871,15.2801011573291
0.0214600697088416,15.2813746303155
0.0219467920800891,15.2827606113147
0.0221229328644078,15.2844076849551
0.0215754345402199,15.2869008428264
0.0207884979975866,15.2884729663942
0.0197432744471819,15.290045089962
0.0185842424884604,15.2915305970633
0.0173142228130372,15.293019966766
0.0159424407421808,15.2945575763072
0.0149629355758895,15.2956406746102
0.0139979146601973,15.2967237729131
0.0131518056641592,15.2977173935588
0.0110125295742203,15.300469427347
0.0091626675876916,15.3032149082505
0.00766881127327679,15.3057809076789
0.00639955388482425,15.3083013497432
0.00530144763235328,15.3108275671838
0.00438376172046655,15.31327279458
0.00360111036530603,15.3156815010032
0.00291231638605808,15.3181294056176
0.00226814964867608,15.3207889645294
0.00163038238333645,15.3238985877758
0.00128840015338295,15.3258231776763
0.00098082214161652,15.3277477675768
0.000725775673062809,15.3295098875507
0.000502164019993814,15.3312006202472
0.000292868757171762,15.3329260589424
8.41081718677894e-05,15.3348055665954
-0.000144670685453437,15.3370751692514
-0.000488350589320304,15.3409743763672
-0.000774716976651204,15.3447676297323
-0.000989840982399198,15.3480062345723
-0.00119121477092816,15.3513857797889
-0.00140870662854397,15.3554685257639
-0.00167236675532069,15.3611680048814
-0.00186581547958198,15.3662678567734
-0.0019947430450888,15.3709007702195
-0.00205331573578123,15.3750860239757
-0.00203468017066144,15.3788726542894
-0.00193220810002351,15.3823103141273
-0.00173982082348247,15.3854577151737
-0.0014508330997256,15.3883754849371
-0.00105492385304368,15.3911332938327
-0.000531335943898983,15.393822652637
0.000172077974233894,15.3966040010163
0.0011435521051439,15.3996551742301
0.00241339362351604,15.4029430935955
0.0039882462051657,15.4064466541234
0.00514260294967613,15.4087519122598
0.00640703808967268,15.4110571703963
0.00768303438315962,15.4131549004161
0.00892649661325384,15.4149820586577
0.0102629982575712,15.4167239097073
0.0116981453753492,15.4183673956115
0.0132856531019689,15.4199535784399
0.0150440592949028,15.421477618651
0.0170076768830127,15.4229482785934
0.0191955021312504,15.4243607518861
0.0216420850114241,15.4257206421491
0.024376854862688,15.4270284917351
0.0274310106762709,15.4282850833803
0.0308481574306712,15.4294949469526
0.034673818193419,15.4306609170727
0.038960856868261,15.4317861052833
0.0437697953514019,15.4328735282355
0.0491740583311124,15.4339268504823
0.0552604799330603,15.4349497676077
0.0621320017586295,15.435945973539
0.0699128276144467,15.4369193737261
0.0787543742056723,15.4378741490697
0.0888452246772689,15.4388150150924
0.100423568871863,15.4397473434035
0.113797514840558,15.4406775222208
0.129377766027237,15.4416135255752
0.147733829683677,15.442565901567
0.169523058923498,15.4435423112156
0.194751217876537,15.4445218547991
0.224077336711405,15.4455147607629
0.258385816681033,15.4465356768515
0.298999228459568,15.4476092632986
0.346425745374375,15.4487442813482
0.386874200698183,15.4496581159701
0.42049444775355,15.4504112904077
0.449654486697136,15.4510868334642
0.475128305354839,15.4517246579241
0.496967905971203,15.4523499533876
0.514785370378139,15.4529850911618
0.52767162027553,15.4536568973764
0.533702577859932,15.4544091947942
0.529585994834024,15.4552106547809
0.513733747179849,15.4560372344185
0.484682201952906,15.4569050191231
0.440552862731689,15.4578254751513
0.379300734510946,15.4588068975076
0.335033392869521,15.4594109964562
0.286683374279593,15.4600150954047
0.243637517730176,15.4605254322461
0.206583628390641,15.4609566701044
0.173939407610168,15.461338972249
0.1446546196531,15.4616907749488
0.118082301811607,15.4620236898173
0.0937689832205551,15.4623463324398
0.0713357180782461,15.4626666073333
0.0503715725777442,15.4629941998597
0.0301890303510946,15.4633470692672
0.00818374367480833,15.4637957888818
-0.00046916043547177,15.4639991633018
-0.00833658616211002,15.4642025377217
-0.0147629437385344,15.4643852030626
-0.020767396719683,15.4645728827835
-0.026773750179064,15.4647815568793
-0.0325459155070373,15.4650078264784
-0.0379358328699494,15.4652497175272
-0.0428618682193839,15.4655065922184
-0.0472820999272806,15.4657787047756
-0.0511785652645396,15.4660669575848
-0.0545417657186189,15.4663727873095
-0.057395910859963,15.466701678351
-0.059675555321202,15.4670462158381
-0.061453962982787,15.467415437075
-0.0627462126817208,15.4678131297236
-0.063566014517395,15.4682438885996
-0.0639247308666022,15.4687134551295
-0.0638296621804733,15.4692291188571
-0.0632816197144283,15.4698005154438
-0.0622692066465437,15.4704417591456
-0.0607649944243333,15.4711714936594
-0.0587132028507229,15.4720182703903
-0.0559962656715281,15.4730324277081
-0.0523007275721388,15.474333576436
-0.048243700319522,15.4757276271163
-0.0443242415998299,15.4770768089152
-0.0405889578059314,15.4783854443897
-0.0370605774264682,15.4796556657305
-0.0337506686590137,15.4808882281658
-0.0306641378949991,15.4820831914603
-0.0278012933891225,15.4832402833885
-0.0251589900785106,15.4843590909512
-0.0227314006146767,15.4854391584358
-0.020510620929036,15.4864800328005
-0.0184871901249145,15.4874812775259
-0.0166505525671498,15.4884424663494
-0.0149894697722656,15.4893631631631
-0.0134253582866121,15.4902835437164
-0.0119210570928826,15.4912275304017
-0.010480996324109,15.4921967598615
-0.00910910602807158,15.4931933694893
-0.0078091172551429,15.4942198693852
-0.00658450981861884,15.4952792365188
-0.00543846047082912,15.4963750370099
-0.00437378889322032,15.4975115911009
-0.00339290143898775,15.4986942009916
-0.00249773214665978,15.4999294742776
-0.00168967986234656,15.5012257983972
-0.000969539111714232,15.5025940646902
-0.000337420099053602,15.5040488287587
0.000207351455022008,15.5056102892497
0.000651192769892973,15.5072435205165
0.000997083906893373,15.5089256050561
0.00126101709554538,15.5106748868713
0.00145741087934122,15.5125132930723
0.00159982580337217,15.5144703027905
0.00170139305839171,15.5165880759868
0.00177546728388858,15.5189323127406
0.0018369259486035,15.5216195604442
0.0019060599408557,15.5249110255336
0.00199848736804618,15.5286568306382
0.00211573475875498,15.5324530805325
0.00225432580966056,15.5362188385834
0.00241074578557502,15.5400077832215
0.00258129933136639,15.5438616542731
0.00276334319543488,15.5478151914528
0.0029556484578475,15.5518999128807
0.00315835548737525,15.5561464461979
0.00337278014150134,15.5605861492348
0.00360120508551454,15.5652524588519
0.0038467696777569,15.5701823434382
0.00411355725983153,15.5754176627378
0.0044069962815216,15.5810066666661
0.00471586746103658,15.5866647024049
0.00503103582642295,15.5921711947522
0.00535773930084718,15.5975757211027
0.00569797615761823,15.6028655884667
0.0060557341767487,15.6080599623329
0.00643468641337003,15.6131693363647
0.00683876027071143,15.6182037760027
0.00727198615052433,15.6231696256571
0.00773867719406256,15.628070964909
0.00824353564696187,15.6329098747403
0.0087917641942705,15.6376867443252
0.00938916559472867,15.6424004982025
0.0100422429282336,15.6470489253395
0.0107619416108595,15.6516512782878
0.0115721765462103,15.6562826244364
0.0124883822857554,15.6609360808563
0.0135343046249844,15.6656296090971
0.0147441527907027,15.6704005230183
0.016176556898039,15.6753396708833
0.0179636112934103,15.680701663982
0.020438851192271,15.6871428207764
0.0220611328191522,15.6909894397891
0.0237364203086039,15.6948360588018
0.0252038905578317,15.6982574567564
0.0264440846041139,15.7013600903587
0.0274773857368709,15.7043249387827
0.0282630708610507,15.7071631154608
0.0287816763420194,15.7099093572188
0.0290265282239949,15.7126850992722
0.028955593116387,15.7156627825618
0.0284093026875696,15.7192917638543
0.0276040933648869,15.7223197724795
0.0265356994082928,15.7253477811047
0.0254592570353512,15.7279362401812
0.0243902559716715,15.730277162813
0.0233198011592325,15.7324934196937
0.0222480934777509,15.7346411511556
0.0211783108508213,15.7367513299441
0.0201141773014341,15.7388440800541
0.0190593332207727,15.7409339052128
0.0180171699539476,15.7430320499201
0.0169907930257283,15.7451477444001
0.0159830214083612,15.7472889412572
0.0149964000373739,15.7494627841292
0.0140332137705896,15.7516759321305
0.0130954983359663,15.7539348063202
0.0121850575123742,15.7562457700059
0.0113034674489555,15.7586153103499
0.0104520902261315,15.7610501844539
0.00963208786126174,15.7635575586499
0.00883523392237658,15.7661765519014
0.00804958251958057,15.7689707034339
0.00727891200383498,15.7719604086479
0.00652705980036994,15.775169949545
0.00579811378182769,15.7786274553884
0.0050963780953589,15.7823656690986
0.00442632619366889,15.7864228453867
0.0037925027512231,15.7908440279591
0.00319935397091716,15.7956831030917
0.00265095782823224,15.8010066083085
0.00215069310642852,15.8069007621206
0.00170289235224117,15.8134519609195
0.00141863880577217,15.8185596960644
0.00119248532524295,15.8236674312093
0.000953884574791154,15.8306667632905
0.000745874813519478,15.8387661794792
0.00057770826590881,15.8476244599625
0.000442736536113222,15.8576244599625
0.000350422990630547,15.8676244599625
0.00028841055043557,15.8776244599625
0.000247703531086376,15.8876244599625
0.000221876446048016,15.8976244599625
0.00020647787428333,15.9076244599625
0.000198494449713378,15.9176244599625
0.000195911492881444,15.9276244599625
0.000197394498520208,15.9376244599625
0.000202077257266972,15.9476244599625
0.000209426489816495,15.9576244599625
0.000219156193376413,15.9676244599625
0.000231174277411763,15.9776244599625
0.000245552026516223,15.9876244599625
0.000262511893682788,15.9976244599625
0.000282432140953874,16.0076244599625
0.000305869252037728,16.0176244599625
0.000333601847672199,16.0276244599625
0.000366703901898767,16.0376244599625
0.000406661605683509,16.0476244599625
0.000455559543858894,16.0576244599625
0.000512264611710648,16.0670067283279
0.000577036192247802,16.0756705336525
0.000650931142924491,16.0836658726621
0.000735213670302987,16.0910447747607
0.000831327742622898,16.0978557399887
0.000940908429227631,16.1041438128614
0.00106580427774611,16.1099508396901
0.0012081052079072,16.1153157028949
0.00137017505795914,16.1202745325748
0.00155468846549034,16.124860905829
0.00176467497204486,16.129106037966
0.00200357078367779,16.1330389664423
0.00227528225287212,16.1366867289885
0.00258426365007437,16.140074542167
0.00293561554136103,16.1432259860822
0.00333521180301762,16.1461631989831
0.00378986729196078,16.1489070908906
0.00430756723062643,16.1514775924784
0.00489779166945599,16.1538939630988
0.00557199426930128,16.1561752012549
0.00632309182659021,16.1582861472296
0.00715419421414812,16.1602419344956
0.00807800898655942,16.16207726994
0.00911392691870705,16.1638278931129
0.0102944962972266,16.1655363763326
0.0116900149686953,16.1672747898839
0.0135713563299811,16.1692890542913
0.0152606472578565,16.1708850199609
0.0170959458650653,16.1724809856305
0.0187636741437803,16.1738701281229
0.0202202312487997,16.1750842193721
0.0215236507306901,16.1762169244897
0.0226869063352257,16.1773197414631
0.0236997150990251,16.1784313200804
0.0245348136092776,16.1795943462771
0.0251397664361643,16.1808761335672
0.0253922442736484,16.1824418945626
0.0250316965244301,16.1842614282597
0.0240699793891019,16.1860809619568
0.0229542146826275,16.1875560809605
0.0217052805500248,16.1889539934009
0.0203168666010738,16.1903728659249
0.0187969277914058,16.1918569841538
0.0171524861469926,16.1934439849459
0.0154137347520054,16.1951807656302
0.0140155309124859,16.1966840776959
0.0115774281549737,16.1996136527191
0.0095672174747361,16.2024323626514
0.00797749589076964,16.2050314505076
0.00666498193566516,16.2075225569911
0.00551742061823167,16.2100537889469
0.00450820581416879,16.2126545610864
0.0036187876528827,16.2153481630433
0.00283415029751139,16.2181580241241
0.00214155532587727,16.2211093581353
0.0015610544969553,16.2240566242137
0.00108558354770715,16.2269120653066
0.000681103989202464,16.2297601965101
0.000331657912536757,16.2326250814297
3.63096502374029e-05,16.2354161108568
-0.000208805340404128,16.2380457930705
-0.000415994888824885,16.2405274450976
-0.000597452121984758,16.2429189639747
-0.000762994886585924,16.245291989276
-0.000922512708887119,16.2477575978206
-0.00109533960672371,16.2506256987451
-0.00121590293453749,16.252741343156
-0.00133187167241989,16.2548569875669
-0.00143034889714337,16.2567081794519
-0.00151817609065409,16.2583953710198
-0.00160298963466204,16.2600517100274
-0.00169030041504986,16.2617792095652
-0.00178718087076186,16.2637163069313
-0.00191088539247548,16.2662108445289
-0.0021280598728469,16.2706188493466
-0.00231521166105789,16.274435847747
-0.00247731525776398,16.2777681075226
-0.00265204826971784,16.2814291505858
-0.00286419354786197,16.2861202547582
-0.00306370014398882,16.2912814644374
-0.00318380522144948,16.2959797680026
-0.00320928623198058,16.2999122266199
-0.00314791213524595,16.3034933048095
-0.00298828140638928,16.3069782610602
-0.00270769838549325,16.3104567379434
-0.00232719613976788,16.3136077612656
-0.00185069059993313,16.3165087124826
-0.00127436709635682,16.3192332579938
-0.000580785914089032,16.3218696502303
0.000273748805495918,16.324543446727
0.00142465126670087,16.3275498291768
0.00282709353897996,16.3306789442157
0.00436440347347466,16.3337180164719
0.00604393553405616,16.336727149485
0.00726939078612835,16.3387405445727
0.00860467479153736,16.3407539396605
0.00999346489036808,16.3426454808274
0.0113975902999019,16.3443531991099
0.0129261580645998,16.3459985134947
0.014585224937947,16.3475646621732
0.0164264988244261,16.3490790769128
0.0184677483885249,16.3505344523067
0.0207465254847319,16.3519383786824
0.0232899601581339,16.3532895652888
0.0261302864873663,16.3545893171402
0.0293077287239484,16.3558412426986
0.0328644484878169,16.3570477241667
0.0368468024075037,16.3582109508435
0.0413142710412341,16.3593349905965
0.0463341193814267,16.3604233157794
0.0519855718525562,16.3614795011122
0.0583631075258544,16.3625073030403
0.0655801263355394,16.3635106481632
0.0737768627855122,16.36449401758
0.0831266936917335,16.365462272372
0.0938494612422826,16.3664210236578
0.106231074571835,16.3673770211313
0.120656433078663,16.3683388488289
0.13766792258763,16.3693181564383
0.157882511780174,16.3703229714743
0.181309025116069,16.3713318434269
0.208585925763371,16.3723563998988
0.240586888163768,16.3734134360965
0.278638418230905,16.3745308481971
0.321779860293927,16.3756797206179
0.360456606488086,16.3766506474958
0.393223360746536,16.377462188332
0.421755769121693,16.3781884586104
0.446686677652856,16.3788690272309
0.468065558230074,16.3795291435195
0.485567726096486,16.3801900070159
0.498450824610444,16.3808743885157
0.505272529956033,16.3816135716905
0.50322088709065,16.38243588329
0.490148356795818,16.3832725581826
0.464824402477501,16.3841386654312
0.425690040209184,16.3850453119951
0.371020582118633,16.3860017885072
0.32902309050729,16.386619890872
0.282673090311706,16.3872379932368
0.24108446237824,16.387760197256
0.205108701557313,16.3882011783864
0.173304922359973,16.3885917900325
0.14470399214007,16.3889508304171
0.118707285760212,16.3892900864285
0.094895361348035,16.3896182095765
0.0729206627150419,16.3899429524053
0.0524168593568553,16.3902734064027
0.0328122224668639,16.390625193961
0.0123144708157438,16.3910491999863
0.00175877091972482,16.3913004897007
-0.00550531328761947,16.3914915494853
-0.0121399291885427,16.3916826092699
-0.017962240313389,16.3918666057681
-0.0238847821715737,16.3920736157428
-0.0296418989005582,16.392299632693
-0.035058608722585,16.3925420219155
-0.0400375491209489,16.3927997427507
-0.0445275087184925,16.3930727939681
-0.0485036176499806,16.3933618980902
-0.0522198105959332,16.3936957169573
-0.0550659908485448,16.3940204494891
-0.057398367014222,16.3943662089509
-0.0592337019683219,16.3947362788556
-0.0605860139986247,16.3951342189411
-0.0614688453490028,16.3955644132361
-0.0618938078608731,16.3960323129929
-0.0618689888720811,16.3965447920638
-0.0613969834021534,16.3971106949709
-0.0604695178589873,16.3977432311638
-0.0590644105906963,16.3984593370741
-0.0571363687492789,16.3992841618452
-0.0545930005004642,16.4002598019851
-0.0512120615196154,16.4014752194216
-0.0472066648959553,16.4028729656312
-0.0433304799097415,16.4042224959568
-0.0396348035752046,16.4055295748449
-0.0361443031030069,16.4067970296559
-0.0328712251636377,16.4080260163491
-0.0298206227242754,16.409216838337
-0.0269927224899385,16.4103693791752
-0.0243842103632883,16.4114833300089
-0.0219890722739914,16.4125583070967
-0.0197992353868817,16.4135939078868
-0.0178051055102208,16.4145897308281
-0.015996036292954,16.415545372423
-0.0143607422389231,16.4164604089022
-0.0128061425926085,16.4173843026315
-0.0113120644666054,16.4183319545574
-0.00988278188025475,16.4193051241269
-0.00852220431415861,16.4203059993124
-0.00723403307279263,16.4213371529812
-0.00602171003832422,16.4224016401197
-0.00488836567922976,16.4235031253877
-0.00383676484822846,16.424646055713
-0.00286925026057965,16.4258358995098
-0.00198768308517199,16.4270794877391
-0.00119337935196656,16.428385516805
-0.000487039567902643,16.4297653209232
0.00013133358718912,16.4312341198202
0.00066253986533963,16.4328131685712
0.00109001554115052,16.4344524901116
0.00142211649585456,16.4361433791802
0.00167450054885848,16.4379043005708
0.00186145418695708,16.4397580849667
0.00199646573047145,16.4417356592429
0.00209268248531389,16.4438817323209
0.00216362897269013,16.4462670552019
0.00222471429372809,16.4490203257041
0.00229812095009858,16.4524454227815
0.0023956344741334,16.4562088384432
0.002519041255566,16.460011157894
0.00266363494332325,16.463772630728
0.00282579873293783,16.4675498882924
0.00300215565474169,16.471386121342
0.0031905413327827,16.4753167121436
0.00339024445475386,16.4793733630486
0.00360192047819905,16.4835865922601
0.00382739787821863,16.4879873918029
0.00406949315793135,16.4926085637052
0.00433193913321378,16.4974861411955
0.00461952296275415,16.5026607370475
0.00493855287459061,16.5081789157587
0.00526733638665582,16.51360001922
0.00560945039191439,16.518944635841
0.00596609154213797,16.5241865902667
0.00634094485052112,16.5293356868188
0.00673789464507709,16.5343998515659
0.00716129877537079,16.5393886128565
0.00761573085697895,16.5443086426353
0.00810608698622208,16.5491642853862
0.00863764903167329,16.5539574445035
0.00921620084436185,16.5586880576972
0.00984813857253342,16.5633545200309
0.0105405942658528,16.5679542761693
0.0113182527308277,16.5725787188577
0.0121958744950607,16.5772231727072
0.0131948430443106,16.581900979959
0.0143449753747133,16.5866402600652
0.0156943754651914,16.5915085340945
0.0173400608501043,16.5966820883214
0.0195956299382252,16.6028213667011
0.021341515432424,16.6070858526618
0.0231836514382407,16.6113503386224
0.0247522769121754,16.6149674463595
0.0260652596817477,16.618155001229
0.0271673516887376,16.6211495456858
0.0280436098856856,16.6240438776845
0.0286502701431759,16.6268077221045
0.0289879369524985,16.629558064199
0.0290296440653204,16.6324414807969
0.0286773468036436,16.6357546351835
0.0279118807083774,16.6391200050513
0.0267986169989705,16.6424853749191
0.0257066368411038,16.6451888068585
0.0246360444289489,16.6475719999132
0.0235660868374314,16.6498088264115
0.0224945696535226,16.6519674608957
0.0214242664043303,16.6540827675753
0.0203588624543703,16.6561766315157
0.019302041389368,16.658264503525
0.0182572599488378,16.6603581741199
0.0172276926032784,16.662467194412
0.016216226692681,16.664599693527
0.0152254734657095,16.6667628901114
0.0142577795977659,16.6689634444053
0.0133152426334004,16.6712077063115
0.0123997217525449,16.6735019153993
0.0115128466896909,16.6758523718325
0.0106560338571974,16.6782655699095
0.009830488601209,16.6807483617138
0.00903141455643532,16.6833275327684
0.00824269494082012,16.6860772991557
0.00746809984058243,16.6890171853854
0.00671141222289474,16.6921705996403
0.00597666836257432,16.6955646340821
0.00526813400497948,16.6992307622803
0.00459025645827661,16.7032057119906
0.00394758256021397,16.7075326085586
0.00334461021967396,16.7122627538277
0.00278553721002827,16.7174589186858
0.00227394486101182,16.7232013507615
0.00181252024986194,16.7295980481911
0.00141826549484633,16.736496957893
0.00109430502470953,16.743935345592
0.000872405877782389,16.7509686281046
0.000677908746759823,16.7592295026587
0.000520272785902966,16.7683829157457
0.000398587720928903,16.7783829157457
0.000315253150244874,16.7883829157457
0.000259225902908936,16.7983829157457
0.000222479055329828,16.8083829157457
0.000199258014366601,16.8183829157457
0.000185561281857448,16.8283829157457
0.00017867736422292,16.8383829157457
0.000176798303714091,16.8483829157457
0.000178734546542291,16.8583829157457
0.000183723281373397,16.8683829157457
0.000191305815823884,16.8783829157457
0.000201250528212348,16.8883829157457
0.000213505567142604,16.8983829157457
0.000228172574101628,16.9083829157457
0.000245497344001464,16.9183829157457
0.000265876207943877,16.9283829157457
0.000289879197139051,16.9383829157457
0.000318293670335586,16.9483829157457
0.000352195878882841,16.9583829157457
0.000393064031322781,16.9683829157457
0.00044295688056019,16.9783829157457
0.000502231667862745,16.9880036845633
0.000570059243201416,16.9968864291871
0.000647462577880497,17.0050747696586
0.000735737466405454,17.0126238386252
0.000836377680339366,17.0195851512694
0.000951080992917621,17.0260063831416
0.00108177084318863,17.0319316867887
0.00123062537325114,17.0374019830719
0.00140011239239969,17.0424552147316
0.00159302921873373,17.0471265812339
0.00181255071081932,17.0514487624849
0.0020622861915367,17.0554521334855
0.00234635026764111,17.059164968324
0.00266944983804115,17.0626136444546
0.00303699697878063,17.0658228574477
0.00345525641298722,17.06881585193
0.00393154452503338,17.0716146803673
0.00447450869004733,17.0742405168515
0.00509453390288649,17.0767140652416
0.00580059796860709,17.0790447988901
0.006582922393801,17.0811952306355
0.00745265510407147,17.0832033537266
0.00842725919049426,17.0851087551273
0.00953552779303449,17.08695670941
0.0108334924740879,17.0888137328878
0.012508128156567,17.0908728255303
0.0141934335527698,17.0926912867155
0.0160432021740214,17.0945097479007
0.0176345041589343,17.0960013332778
0.0190062292192506,17.0972865489853
0.0202289867265463,17.0984802584976
0.0213169143559596,17.0996384783879
0.022260627267099,17.100801412107
0.0230346761816744,17.1020120050302
0.0235906732842785,17.1033355286405
0.0238200327832089,17.1049231029808
0.0234711234411867,17.1068375694013
0.0225288047867616,17.1087520358218
0.0214415905261215,17.1102890459223
0.0202374661633388,17.1117284707499
0.0189084405507125,17.1131780242473
0.0174622919730027,17.1146836675263
0.0159069609746849,17.1162819391224
0.0142835918992847,17.1180162354299
0.0123428447635735,17.1202964026358
0.0102295110832695,17.1231277405124
0.00851547920194318,17.1257968580636
0.00713005490902432,17.1282973493789
0.00592362140045735,17.1308201616866
0.00486251109608991,17.1334037943718
0.00392659368169097,17.1360723376212
0.00309991528058978,17.1388491113256
0.00242597688276994,17.1415135012339
0.00187871670893632,17.1440355036349
0.00142455495056445,17.1464502798212
0.00103841326439722,17.1487988706926
0.000701152931543577,17.1511300355923
0.000396678015048335,17.1535119570467
0.000106286678206766,17.1560830682562
-0.000224944928278558,17.1594505832843
-0.000392808141395909,17.1613656155289
-0.000548331338188134,17.1632806477735
-0.000680996151078741,17.1650291302798
-0.00079998350830797,17.1666920601599
-0.00091410543687752,17.1683739562232
-0.00103084835255346,17.1701841592137
-0.00116160881794155,17.1723196118241
-0.00134871698109066,17.1755690082791
-0.00154145011915528,17.1791423565381
-0.00169645543042069,17.1821715441332
-0.00184662721826084,17.1852306039692
-0.00201358751701069,17.188775791375
-0.00221621478956119,17.1933193198549
-0.002437661230725,17.1988195951322
-0.00259644611505623,17.2037915898615
-0.00267855313199796,17.2082605198257
-0.00267257037910819,17.2122706099343
-0.00257184200347113,17.2158771490608
-0.00237324034862818,17.2191497736129
-0.00207437983172773,17.2221578374426
-0.00166998040314669,17.2249737200149
-0.00114879055396425,17.2276692501332
-0.000486925274897188,17.2303318698361
0.000376570469581842,17.2331198771448
0.00153452222094822,17.2361976940815
0.00301885544176119,17.2395519703873
0.00466289555067247,17.242833889908
0.00589980276828328,17.2450865603421
0.00724641291859441,17.2473392307763
0.00852636641258074,17.2492802942999
0.00985500118392072,17.2510895517747
0.0112483909127813,17.2527750249072
0.0127681620006825,17.2543933164072
0.014441745302186,17.2559495682476
0.016298512351944,17.2574486825557
0.0183670080419035,17.2588929322069
0.0206771701794443,17.2602842595702
0.0232532989356007,17.2616206953506
0.0261335498595496,17.2629070256219
0.0293546795025751,17.2641451991295
0.0329564724103162,17.2653370030327
0.0369903567610253,17.2664863734168
0.0415141849214646,17.2675966922775
0.0465951010300531,17.268671319968
0.0523123746855995,17.2697137625899
0.0587592888387152,17.2707275165412
0.066050181555312,17.2717166145859
0.0743230299620724,17.2726851930367
0.0837480300598384,17.2736377912032
0.0945389811048637,17.2745795583546
0.106970112504057,17.2755165326971
0.12140424955728,17.2764562006303
0.13833831246948,17.2774082787398
0.158489679617369,17.2783863775742
0.181949224607955,17.2793714283579
0.209184839274966,17.2803662636695
0.240982238907974,17.2813840654882
0.278460862686105,17.2824453437212
0.32304736531801,17.2835786430733
0.357488467051797,17.2843947472773
0.39297371800806,17.2852108514813
0.424555186788487,17.2859416213031
0.452214829196941,17.2866122855435
0.476280968159606,17.2872530495046
0.496645593964373,17.287887096471
0.512784956245021,17.2885369749779
0.52358759812389,17.2892316942553
0.526672996559564,17.2900220572259
0.518965076645479,17.2908347947356
0.499242884715845,17.2916761343928
0.465944216200038,17.2925603060775
0.417189674867345,17.2934970832585
0.370012816918629,17.2942294450879
0.315799970962929,17.2949618069173
0.267815140097542,17.2955554498124
0.227557836582803,17.2960337562544
0.192689970189003,17.2964444374806
0.161699645920641,17.2968144463623
0.133738692599349,17.297159003842
0.108267178248064,17.2974881961488
0.0848816702900342,17.2978100928866
0.0632141007174641,17.2981328648736
0.0428056652988038,17.2984679842832
0.0226878216240269,17.2988416253174
0.00804327596069168,17.2991532779417
-0.000240382371614504,17.2993503341646
-0.00779810116243584,17.2995473903875
-0.0142311765556518,17.2997314885642
-0.0202041324922654,17.2999194120975
-0.0261885786276469,17.3001285878399
-0.0319458870451908,17.3003555411558
-0.0373256686555871,17.3005982244476
-0.0422449667845249,17.3008559573057
-0.0466610791868949,17.301128968528
-0.0505555473267091,17.3014181440187
-0.0539883214574924,17.3017323577072
-0.0567791766235348,17.3020562377712
-0.0590558744838212,17.3024017400243
-0.0608332488789843,17.3027719958618
-0.0621257020616896,17.303170705189
-0.0629468671568139,17.3036024412611
-0.0633080883703669,17.3040729146418
-0.0632167257278288,17.3045893676053
-0.0626737803603047,17.3051613540174
-0.0616682437856057,17.3058028740295
-0.0601734493357472,17.3065323437814
-0.0581352157523865,17.3073778484104
-0.0554399713157097,17.3083885304759
-0.0517896722550387,17.3096791116727
-0.047750614506451,17.3110723073812
-0.043848936718205,17.3124201706906
-0.040131490047984,17.3137271563295
-0.0366209758211547,17.3149954923994
-0.033328854404319,17.3162259944352
-0.0302598927231089,17.3174187626164
-0.0274142533457949,17.3185735534377
-0.0247886544857461,17.319689975184
-0.0223771496388499,17.3207675882251
-0.0201717379096571,17.3218059515517
-0.0181628858163663,17.3228046371901
-0.0163399892859859,17.3237632241623
-0.0146917841882176,17.3246812784053
-0.0131330650153288,17.3256032200335
-0.011634505252036,17.3265488398795
-0.0102004628015986,17.3275198301974
-0.00883485896192181,17.3285183507751
-0.00754141242135942,17.3295469396959
-0.006323587510161,17.3306086088573
-0.00518454237038239,17.3317069686141
-0.00412707497685974,17.3328463961688
-0.00315356693887946,17.3340322685096
-0.00226592459490748,17.3352712937457
-0.00146551622744268,17.3365719982834
-0.000753103016004907,17.3379454724597
-0.000128759063215721,17.339406569808
0.00040822892777484,17.3409759617685
0.000842930735019948,17.3426118803054
0.00118083840470107,17.3442978850586
0.00143776997513867,17.3460523648568
0.0016280617007299,17.3478976495914
0.00176521219381389,17.3498638621057
0.00186231884135485,17.3519942920372
0.00193274880750968,17.3543568654619
0.0019915017148626,17.3570734302161
0.00205942591966854,17.3604233836695
0.00215071054896008,17.3641761528257
0.00226727825765887,17.3679738986855
0.00240517304025606,17.3717371730673
0.00256075987254838,17.3755207841316
0.00273042446422672,17.3793670227293
0.00291168181096413,17.3833108761194
0.00310347694176422,17.3873839398684
0.00330611659664972,17.3916168125804
0.00352107129306903,17.3960407319014
0.00375077220489964,17.4006889197656
0.00399851159763134,17.4055980295234
0.00426854340198127,17.4108095091199
0.00456650010549386,17.4163710703352
0.00487886709939547,17.4219604835772
0.00519953081921699,17.4274192519258
0.0055327056202362,17.4327769232077
0.00588076428185337,17.4380264965958
0.00624763658243449,17.4431838243267
0.0066371487718388,17.4482590348671
0.00705338263542225,17.4532612635401
0.00750058324153363,17.4581963311707
0.00798330582993008,17.463067721242
0.00850652574003834,17.4678769113725
0.00907575358769619,17.4726237332459
0.00969713180459304,17.4773066067509
0.010377544107252,17.4819229949869
0.0111369633468481,17.4865406455771
0.0119932640003154,17.4911807826564
0.0129658077908049,17.4958501795146
0.0140822152298078,17.5005730518618
0.0153854135044566,17.5054056003764
0.0169571386247586,17.5104900785393
0.0190271160174881,17.5162992981662
0.0208865508599742,17.5209456591331
0.0228780635594808,17.5255920201
0.0245107606314172,17.5293450292121
0.0258612832817572,17.5325843041465
0.0269965530613681,17.5355990131643
0.0279169757773225,17.5385262906723
0.0285656813211674,17.5413039117726
0.0289465678909425,17.5440484292896
0.0290386283661805,17.5468984995495
0.0287622143094701,17.5501075221661
0.0277981261892215,17.5544246571249
0.0269187938485627,17.5570762231817
0.0258683196395797,17.5597277892386
0.024801248407145,17.5621351397224
0.0237318883219186,17.5643892762227
0.0226604072641583,17.5665582555734
0.021589512145554,17.5686796095125
0.0205228547442634,17.5707766789242
0.019464141144257,17.5728657263186
0.0184168676380089,17.5749590391768
0.0173842511013183,17.5770664969969
0.0163692203455465,17.5791964585809
0.015374425289651,17.5813563133876
0.014402249023631,17.5835528549203
0.0134548243475451,17.5857925411597
0.0125340421685617,17.5880817107787
0.0116415650658511,17.590426751037
0.0107788390007511,17.5928342492275
0.00994709979011514,17.5953111515274
0.00914681596745262,17.5978667964524
0.00835630172627159,17.6005905079256
0.00757935178506583,17.6035012108282
0.00681970528244162,17.6066218479666
0.00608135688308503,17.60997896302
0.00536853544331697,17.6136033826169
0.00468565965765966,17.617531069165
0.00403726279203231,17.6218042218972
0.00342786298351566,17.6264728892255
0.00286171494802182,17.6315980734438
0.00234251303116181,17.6372571594976
0.00187308233422323,17.6435536628461
0.00146844221831931,17.6503805715888
0.00114085019387278,17.6577326116167
0.00088642628665875,17.6656934090957
0.000700349287138368,17.6735675898065
0.000541225900616299,17.682653635252
0.000417515731292412,17.692653635252
0.000333152432315313,17.702653635252
0.000276774517468583,17.712653635252
0.000240098614324507,17.722653635252
0.000217217385550564,17.732653635252
0.000204050893335569,17.742653635252
0.0001978483117262,17.752653635252
0.000196781153882106,17.762653635252
0.000199650608030748,17.772653635252
0.000205694417394454,17.782653635252
0.000214464676703559,17.792653635252
0.000225751759945168,17.802653635252
0.000239538693962409,17.812653635252
0.000255977826236979,17.822653635252
0.000275386387855028,17.832653635252
0.000298260655774029,17.842653635252
0.00032531124931892,17.852653635252
0.000357525776432294,17.862653635252
0.000396270751267676,17.872653635252
0.00044345433866405,17.882653635252
0.000499628189136232,17.892314946184
0.000563873395725659,17.9012426465196
0.000637153301893608,17.9094777149208
0.0007206989577419,17.9170741973748
0.000815930824166019,17.9240827653174
0.000924462514765971,17.9305504068762
0.00104812042334822,17.9365207097616
0.00118897079495281,17.9420341274152
0.00134935211833334,17.9471282141021
0.00153191206938972,17.9518378420729
0.00173965123273484,17.9561954079697
0.00197597484269293,17.9602310311616
0.00224475607255426,17.9639727435532
0.0025504133020719,17.9674466778331
0.00289800863316818,17.9706772618515
0.00329337450560567,17.9736874241022
0.0037432816891072,17.9764988182659
0.00425566943414556,17.9791320849287
0.00483997170829383,17.9816071771503
0.00550760066319647,17.9839437955426
0.0062535952015097,17.9861113846952
0.00707987466985732,17.9881203617092
0.00799952258553553,17.9900069782385
0.00903280126575295,17.9918091380811
0.0102143670733354,17.9935730354278
0.0116166564174889,17.9953743536996
0.0135531724053503,17.9975099464855
0.0152082091410262,17.9991247626263
0.0169937335139112,18.000739578767
0.0185732425032173,18.0021190448767
0.0199598334114355,18.0033403307439
0.0212008347584196,18.0044891426307
0.022303416136575,18.0056138663886
0.023254375085983,18.0067533223777
0.0240235619279659,18.0079528646725
0.0245528408820575,18.0092882054508
0.0246965726217262,18.0109636911976
0.0242421299684731,18.0127425665814
0.0232608087815971,18.0145214419652
0.0221433552155686,18.0159976245638
0.0208960491594986,18.0174113086161
0.01951619041473,18.0188491221994
0.018012384549244,18.020353239636
0.0163915291763985,18.0219610996401
0.0147807354780528,18.0236288804043
0.0123749308481175,18.0263996035988
0.0102038327622936,18.0292965116857
0.00848888985013468,18.0319660339698
0.00710814758979066,18.0344604785137
0.00590644434481927,18.0369782303014
0.00485026072962368,18.0395571647677
0.00391940851731407,18.0422212248146
0.00309789529329272,18.044993641625
0.00237232394579589,18.0478989381012
0.00176119860766607,18.0508072325377
0.00126721180508942,18.0535797836856
0.000855254721998033,18.0562763122973
0.00050315128186488,18.0589398351359
0.000200044540000908,18.0615661546595
-6.04989014017036e-05,18.064124852614
-0.000287328971953991,18.0666203562945
-0.000492105023602002,18.0691177330096
-0.000689787804104442,18.0717714667899
-0.000922179123789547,18.075215857328
-0.00104490350299512,18.0771786896964
-0.0011620136677695,18.0791415220648
-0.00126494612217276,18.0809352086762
-0.0013599879987053,18.0826439607581
-0.00145381713857492,18.0843757240419
-0.00155280364911554,18.0862452928747
-0.00166783504883961,18.0884646795048
-0.00184442094365454,18.0919485597552
-0.00202449891761517,18.0955738837981
-0.00217491597797837,18.0986501800378
-0.00232617227434103,18.1017945468411
-0.00249775675036119,18.1054577812189
-0.00270521907906884,18.110166975299
-0.00289862273221099,18.11533753467
-0.00301527137187967,18.1201208136955
-0.00303569919346709,18.1240968920281
-0.00296697023136979,18.127695267653
-0.0027961923401264,18.1311780962074
-0.00251030414773648,18.1345353986988
-0.002118640614163,18.1376351243804
-0.00162371463169446,18.1405213481192
-0.0010203137650018,18.1432567572301
-0.000288333871264336,18.145928100049
0.000626753382242786,18.1486804214284
0.00185914162584939,18.1517815880253
0.00331453903764024,18.1549234986864
0.00490423795988775,18.1579652930645
0.00621072708646415,18.1602403129982
0.00763884846027619,18.1625153329319
0.00903635298267078,18.1645279507162
0.0104309174240847,18.1663290244995
0.0119062309883125,18.1680234939204
0.0134995555201798,18.1696364115864
0.0152450690586256,18.1711823235971
0.0171793110321795,18.1726723652683
0.0193267305434192,18.1741052230765
0.0217209516693412,18.1754851971526
0.0243944768301139,18.176814001396
0.0273778190481839,18.1780915321025
0.0307151209730625,18.1793224206303
0.0344515049449471,18.180509285889
0.0386386777202936,18.1816549748874
0.043336871274278,18.1827626189195
0.0486197615370417,18.1838361491147
0.0545728432558668,18.1848792057657
0.0612985256155757,18.1858956353273
0.0689204877348214,18.1868895037744
0.0775917785129916,18.187865395546
0.0875040877474915,18.1888284770766
0.0989026493645042,18.1897847790963
0.112110737808688,18.190741721889
0.127570757888903,18.191708956928
0.145922008017087,18.1927000571152
0.167445960738699,18.1937049353811
0.192432597923045,18.1947183228545
0.2216056292563,18.195753644815
0.255987786711477,18.1968311522245
0.296995121097268,18.1979809172037
0.331264146850684,18.1988697177193
0.366946906164475,18.1997585182349
0.398774432503967,18.2005472244339
0.426663057367691,18.2012625397288
0.450993783422071,18.2019373801681
0.471740383709187,18.2025956648065
0.488513289417806,18.2032585065341
0.500475980678944,18.2039495923752
0.505996456657319,18.2047030299977
0.502142618624107,18.205526308704
0.487079555007737,18.2063668280985
0.459510275527788,18.207239070687
0.417832663453313,18.2081535390252
0.36029587138839,18.2091199967943
0.319145307345571,18.2097087379729
0.274262978254846,18.2102974791514
0.233940562931868,18.210799837093
0.198841926806947,18.2112291593729
0.16768631312814,18.2116125832638
0.139601910923686,18.2119670486818
0.114034965522604,18.2123035222032
0.0905857900593908,18.2126303379825
0.0689104750067509,18.2129553024752
0.0486242452214161,18.2132881561657
0.0290635396298538,18.2136472427041
0.007637209993796,18.2141061830065
-0.000623096060905077,18.2143100751913
-0.00814493140729884,18.2145139673761
-0.0144503769846559,18.214701827474
-0.0203595013304714,18.2148956301269
-0.0262463803119983,18.2151105152958
-0.0318866056002804,18.2153431171607
-0.0371407918050594,18.2155915229316
-0.0419326840685885,18.215855154056
-0.0462235874172499,18.2161343212825
-0.0499918643860524,18.2164299832946
-0.0532910910877844,18.2167507327749
-0.0559650841271568,18.2170819059068
-0.0581319914627641,18.2174352674513
-0.0598063546715551,18.2178140350283
-0.0610021920923966,18.2182220183025
-0.0617325761864372,18.2186639235167
-0.0620081422198286,18.2191456263201
-0.0618354044307547,18.2196745801276
-0.0612139939519694,18.2202608849939
-0.0601314603244302,18.2209188086152
-0.0585594168910492,18.2216674596656
-0.0564408302792246,18.2225361881446
-0.0536555323056543,18.2235770921293
-0.0498783941344067,18.2249161542705
-0.0459086731130711,18.2262958334576
-0.0420892939535197,18.22763024878
-0.0384609484089354,18.2289234905505
-0.0350431035273835,18.2301776624532
-0.0318451315493336,18.2313935522694
-0.028870227630534,18.2325712791716
-0.0261172839276254,18.2337106392097
-0.0235819758881459,18.2348112866101
-0.0212575159134765,18.2358728258773
-0.0191352516801791,18.2368948531204
-0.0172051774159458,18.2378769667925
-0.0154563829470412,18.2388187587744
-0.0138642189530989,18.2397275738487
-0.0123291328723787,18.2406594266296
-0.0108561689022253,18.2416155253095
-0.00944934256638068,18.2425978480138
-0.00811249809259957,18.243608703595
-0.00684925313088242,18.2446508166465
-0.00566294826622451,18.2457274331635
-0.00455659419654958,18.2468424615627
-0.0035328166830572,18.2480006649761
-0.00259379900889157,18.2492079302044
-0.00174122116448615,18.250471655321
-0.000976194058895452,18.2518013286445
-0.000299185414086499,18.2532094322076
0.000290069244256253,18.2547129308429
0.000790577289140207,18.2563281522535
0.00118398249346023,18.2579829169933
0.00148772763672249,18.2596956799552
0.00171681545385874,18.2614856246866
0.00188523000934532,18.263377945955
0.00200630072931847,18.2654074561579
0.00209322877895634,18.2676258866593
0.00215998699536957,18.2701184747851
0.00222347019871046,18.2730513540794
0.00230983664707379,18.2767938043083
0.00241826917950298,18.280566486559
0.00255105852333946,18.2843325132063
0.00270617356589645,18.2881394621657
0.00287989004157802,18.2920255789596
0.00306894651631732,18.2960239230078
0.00327143628110989,18.3001653840071
0.00348701953619141,18.304480597504
0.00371683528145295,18.3090014765305
0.00396333284401779,18.3137625551404
0.00423018907757929,18.318802421345
0.0045224489350421,18.3241650079284
0.00484118166635985,18.3297984183191
0.00516374894568515,18.3352392547069
0.00549987958683254,18.3406143675662
0.0058494684180605,18.3458733597398
0.00621705673459002,18.3510406680678
0.00660629681025126,18.3561226817779
0.00702144345413808,18.3611301049646
0.00746682421488105,18.366069220936
0.00794708122893876,18.3709441972646
0.00846723179698941,18.3757568524913
0.0090328021955988,18.3805072551923
0.00964992991690928,18.3851939977166
0.0103254714058403,18.3898146216662
0.011078022397762,18.3944297420431
0.0119263264379466,18.3990681853728
0.0128891134103303,18.4037346549728
0.0139932803022626,18.4084520338418
0.0152800897955195,18.41327284648
0.0168265886439746,18.418328856763
0.0188400915150235,18.4240427113929
0.0207472943320433,18.42884726079
0.0223629239598968,18.4326445636666
0.0240184940300934,18.4364418665432
0.0254435342519118,18.4397916214679
0.0266470548948202,18.4428589995979
0.0276437323272357,18.4458140088134
0.0283815865661688,18.4486275359065
0.02885266722809,18.4513692030619
0.0290457943118423,18.4541649652435
0.0289085960813454,18.4572079793826
0.0282239250617293,18.4610948363537
0.0273921052801176,18.4639680164818
0.0263350339258472,18.4668411966099
0.0252637750547086,18.4693611595252
0.0241950339458145,18.4716711883956
0.0231242453035655,18.4738707730423
0.0220527194898521,18.4760088862018
0.0209838472371312,18.4781137566686
0.0199213642607024,18.4802041617236
0.0188688732516241,18.4822938372883
0.0178297160160664,18.4843935490382
0.01680694658257,18.4865122119779
0.0158033356624883,18.4886575589478
0.0148213813119169,18.4908365792158
0.0138633248937625,18.4930558175311
0.0129311619282404,18.4953216064826
0.0120266534516116,18.4976402515
0.0111513404859104,18.5000181805285
0.0103065477624545,18.5024621091315
0.00949340168543504,18.5049791656385
0.00869820747053346,18.507627661747
0.00791492019257942,18.5104545578072
0.00714729412947147,18.5134809986922
0.00639921675747235,18.5167318759395
0.00567482207595929,18.5202360413044
0.00497845512728942,18.5240270849291
0.00431461515870732,18.5281442897637
0.00368785050959468,18.5326339745639
0.00310256668592905,18.5375517953192
0.00256274696861855,18.5429669389207
0.00207161650944401,18.5489699111128
0.0016366233646478,18.5555961431483
0.00135976063509688,18.5607934288634
0.00113764600040425,18.5659907145785
0.000908562862104289,18.573000313724
0.000707750407178647,18.5811962049857
0.00054533736249729,18.5902157021
0.000417718852314849,18.6002157021
0.000330345051346592,18.6102157021
0.000271591706101661,18.6202157021
0.000233004019389737,18.6302157021
0.000208531683458802,18.6402157021
0.000193975189842732,18.6502157021
0.000186490271239276,18.6602157021
0.000184178023070489,18.6702157021
0.000185785063057826,18.6802157021
0.000190502958521244,18.6902157021
0.000197839951727787,18.7002157021
0.000207540050637043,18.7102157021
0.000219532956183875,18.7202157021
0.000233905771112879,18.7302157021
0.00025089220865317,18.7402157021
0.000270877940614157,18.7502157021
0.00029442304089446,18.7602157021
0.000322305156177581,18.7702157021
0.000355590898731168,18.7802157021
0.000395749154952264,18.7902157021
0.000444830667837029,18.8002157021001
0.000502640903743036,18.8097488379864
0.000568763522131986,18.8185519513714
0.000644225941582911,18.8266708442455
0.000730301948148772,18.8341593326976
0.000828454938792431,18.8410676749838
0.000940345941347593,18.8474424546522
0.00106785536909793,18.853326870087
0.00121311133670252,18.8587610006893
0.00137852332250396,18.8637820421841
0.00156682038230737,18.8684245259947
0.00178109707157428,18.8727205284132
0.00202486751974571,18.8766998713142
0.00230213230901372,18.8803903142351
0.0026174603951804,18.8838177465889
0.00297609410881278,18.8870063877323
0.00338408543869292,18.8899789995693
0.00384847782641379,18.8927571219534
0.00437755801607708,18.8953613519705
0.00498121712994368,18.8978116977467
0.00567149290098825,18.9001280621678
0.00643680818063115,18.9022631935178
0.0072854149972851,18.9042484513094
0.00823214938080431,18.9061208844417
0.00930036209608892,18.9079202490532
0.0105319046475671,18.9096985041089
0.012039366339282,18.9115714478336
0.0142994804059995,18.9139714900978
0.0158420918709373,18.9154347325646
0.0174715030531879,18.9168979750313
0.0189567481612368,18.9182084805797
0.0202797150362356,18.9194030055463
0.0214637209548514,18.9205443968948
0.0225070504373931,18.9216753033794
0.0233908566677908,18.9228352063727
0.0240775483127494,18.9240762379549
0.0244913047179715,18.9254983781975
0.0243897385717726,18.9274622603549
0.0237727510768579,18.9290695051134
0.0227683799983349,18.9306767498718
0.0216231965038909,18.9321167576741
0.020341924194902,18.9335349020991
0.0189312367145139,18.9349911477634
0.0174005544719335,18.9365235916134
0.0164495235254539,18.9374725343974
0.0155172756634703,18.9384214771814
0.0144079750200455,18.9396058609831
0.0120396432888642,18.9423913071829
0.00994254394446118,18.9452504319752
0.00827972844626477,18.9478922574809
0.00692726810876105,18.9503848053643
0.00574608755719487,18.9529102449368
0.00470724221139435,18.9555003333543
0.0037913202800175,18.9581786804123
0.00298276030653744,18.9609686177044
0.00227148617002675,18.9638813917725
0.00170497209915662,18.9666246152659
0.00124279935449083,18.9692377671507
0.000855144255718865,18.9717699545468
0.000522828975666784,18.9742556179981
0.000234306176016075,18.9767066036479
-1.87728307336106e-05,18.9791277601459
-0.000246064155329884,18.9815568522556
-0.000461298909900518,18.9841119932377
-0.000698783822897526,18.9872533627401
-0.00083599146316454,18.989233980255
-0.000965275868329903,18.9912145977699
-0.00107645915948131,18.9930064349154
-0.00117618293092098,18.9946815197658
-0.00127225437781663,18.996353409496
-0.00137094015785779,18.9981265994157
-0.00148108130986646,19.0001668076817
-0.00162890869397048,19.0029941004427
-0.00182849255513034,19.0069438105424
-0.0019888455884274,19.0102081516225
-0.00213749719942101,19.0132997010639
-0.00230201923873172,19.0168040947737
-0.00250202163794638,19.0212433041497
-0.00271861809132662,19.0265569735008
-0.00287631687699667,19.0315705536431
-0.00294626117550928,19.0360153072465
-0.00292235924543406,19.039857606535
-0.00280155883363075,19.0434070654488
-0.00257431770656605,19.0467461235428
-0.00224136804922071,19.0498382413136
-0.0018027066946845,19.052723309541
-0.00125395708881428,19.0554540754012
-0.000577659275969503,19.0581117488764
0.000276034892481714,19.0608380408063
0.00142945125927356,19.063889679588
0.00288655708396119,19.0671685567058
0.00445698407173965,19.0702936929681
0.00614323528514966,19.0733268890439
0.00763660670761515,19.0757548211902
0.00896467285611026,19.0777027344198
0.0103221909440365,19.0794893836479
0.0117573934701364,19.0811671643806
0.013315949931373,19.0827708891699
0.0150363449429037,19.0843170643751
0.0169418214498482,19.0858041784551
0.0190663346682335,19.0872383962898
0.0214368428856776,19.088619073346
0.0240820204102899,19.0899464612478
0.0270395466585665,19.0912243376743
0.0303476453553922,19.0924547707093
0.0340474596850542,19.0936395393481
0.038193465302818,19.0947829134526
0.0428455405415892,19.0958881485026
0.048073954594734,19.0969586611935
0.0539614911030917,19.0979979556608
0.0606073106619311,19.0990097749368
0.0681321475151434,19.0999982276028
0.0766829379273667,19.1009676396468
0.0864423689128622,19.1019228341442
0.0976420466077284,19.1028693670633
0.110583251543584,19.1038139282948
0.125671201689928,19.1047650081673
0.143474717145125,19.1057340362287
0.164578119342195,19.1067261295094
0.18903100121586,19.1077225258485
0.217493035027324,19.1087344482866
0.25086187644314,19.1097780949183
0.290502186661463,19.1108807972104
0.335802613997084,19.11202449186
0.374924501631639,19.1129585664691
0.407817623487082,19.1137371817483
0.436419250971361,19.1144366902677
0.461386077067477,19.1150957695197
0.482747655520256,19.115739328312
0.500129590116409,19.1163890987857
0.512682607838621,19.1170699437705
0.518690573846362,19.1178193335208
0.515079113093284,19.1186324683882
0.500055154792117,19.1194658030479
0.472262827032678,19.1203346267154
0.429990390360353,19.1212499087325
0.371368084750273,19.1222205853903
0.328627994882521,19.1228218950542
0.281874227996793,19.1234232047181
0.240050669859243,19.1239329965149
0.203871713827888,19.1243654355372
0.171892968764248,19.1247497146815
0.143143932949403,19.125103806394
0.117019877986229,19.1254391297715
0.093092732759506,19.1257642074562
0.0710019901001351,19.1260868734041
0.0503551556491264,19.1264166943099
0.0304990233800003,19.1267712100455
0.00904121963564487,19.1272168760292
0.000201585369887532,19.1274282484
-0.00781663296982323,19.1276396207708
-0.0142300942710933,19.1278258297255
-0.0201794539804812,19.1280158500715
-0.026128374905136,19.1282270636909
-0.0318437443735563,19.1284560482287
-0.0371788976037016,19.128700797054
-0.0420531503714554,19.1289606614597
-0.0464251655749251,19.1292358966277
-0.0502764006692473,19.1295274123681
-0.0538391742798316,19.1298627575927
-0.0565600791022908,19.1301907604188
-0.0587679124295554,19.1305405027202
-0.0604797582307255,19.1309154248011
-0.061709892865529,19.1313193136188
-0.0624716525170639,19.1317568472558
-0.0627759422656183,19.1322338708576
-0.0626295286523554,19.1327578056461
-0.0620323758884495,19.1333386303024
-0.0609722142032802,19.1339906211085
-0.0594206222970247,19.1347328443987
-0.0573202121547354,19.1355946182422
-0.0545496905749892,19.1366280665468
-0.0507797772869337,19.1379596468149
-0.0467738915851049,19.1393447914921
-0.0429139822851827,19.1406850474858
-0.039242688314511,19.1419845031475
-0.0357806112063092,19.1432452267679
-0.0325379336119271,19.1444679660734
-0.0295185077374885,19.1456528002184
-0.0267217809409029,19.14679948782
-0.02414389543516,19.1479076497626
-0.0217784444147858,19.1489768623463
-0.0196170713988517,19.1500066994891
-0.0176499842231919,19.1509967442831
-0.015866409136149,19.1519465808932
-0.0142549924333128,19.152855772813
-0.012708770592208,19.1537827774361
-0.0112237926427665,19.1547337106324
-0.0098041772358964,19.1557104464458
-0.00845380826979153,19.1567152188879
-0.0071763545960653,19.1577506592995
-0.00597521946761429,19.1588198965444
-0.00485348824880556,19.1599266897319
-0.00381387397799948,19.1610756083649
-0.00285866062248371,19.1622722829333
-0.00198964341551029,19.1635237637199
-0.00120806488476315,19.1648390525691
-0.000514543797275504,19.166229924716
9.10084379840271e-05,19.1677122668536
0.000609495051039531,19.1693084063546
0.00102166015899613,19.1709535489502
0.001340757889713,19.1726529058964
0.00158212162786538,19.1744250980677
0.00175988442080835,19.1762938632497
0.00188742713715809,19.1782916040491
0.00197785424726358,19.1804656684301
0.00204476086274861,19.1828921564143
0.00210391852709217,19.1857131415999
0.00217919868292365,19.1892837246097
0.00227787861656007,19.1930705318553
0.00240101797856593,19.1968513088927
0.00254503249261869,19.2006143517656
0.00270616763604371,19.2044104472137
0.00288105688834563,19.2082792952483
0.0030675971408995,19.2122546248476
0.00326513605450552,19.2163675209228
0.00347436498183731,19.2206485853602
0.00369711441660259,19.2251294224928
0.00393617462607172,19.2298439940249
0.00419524919783482,19.2348300685821
0.00447914275574371,19.2401305538994
0.00479430090371499,19.2457949234959
0.00511252123792822,19.2512504357777
0.00544465271861741,19.256649897883
0.00578972234649463,19.261929124412
0.00615231178789265,19.2671150894251
0.00653593221377152,19.2722133389846
0.00694479235683545,19.2772353275735
0.00738314939636718,19.2821878213534
0.00785556563594575,19.2870754974112
0.00836695665869382,19.2919005707403
0.00892272817383477,19.2966634433937
0.00952887926280284,19.3013629766605
0.0101921072564538,19.3059968763031
0.0109272310595244,19.3106058125663
0.0117554669438603,19.3152405986622
0.0126938954479078,19.3199003302548
0.0137677300963954,19.3246051002856
0.0150144369672578,19.3293992010908
0.0165008738328304,19.3343917388473
0.0183904101770444,19.3399071977232
0.0208678999293445,19.3462111344657
0.0224533266203801,19.3499271636625
0.0240734577929326,19.3536431928593
0.0254880950676315,19.3569749637734
0.0266842706350534,19.3600358279004
0.0276736108782937,19.3629893726071
0.0284020187187567,19.3657986074164
0.028863647712951,19.3685399332812
0.0290463937171138,19.3713403953195
0.0288956161748258,19.3743979977275
0.0281791099341853,19.3783480032405
0.0273417259023612,19.3811918283211
0.026286261964048,19.3840356534016
0.0252158163819655,19.3865417785709
0.0241470747072202,19.3888453177097
0.0230762066595091,19.391041426052
0.0220047249503113,19.3931776339891
0.020936058907779,19.3952815913569
0.0198739439075083,19.39737178688
0.0188219722167368,19.3994617933744
0.0177834723993698,19.401562278593
0.0167614856460214,19.4036820957196
0.0157587692813425,19.4058289415911
0.0147778093924251,19.4080097842356
0.0138208359143973,19.4102311595309
0.0128898321701597,19.4124994044119
0.011986550628487,19.4148208299159
0.0111125206521863,19.4172018868914
0.0102690570751521,19.419649319681
0.00945727831062258,19.4221702905229
0.00866257706755665,19.4248264815844
0.00787995412192714,19.427661948543
0.00711316180988404,19.4306980204936
0.00636609868749894,19.4339597586323
0.00564290959509221,19.4374762135766
0.0049479454934306,19.4412812308689
0.00428571095420187,19.4454143907693
0.00366075268995841,19.4499223962191
0.00307746274119774,19.4548614484681
0.00253979760608303,19.4603015552228
0.00205094162903298,19.4663345459555
0.00161922316873753,19.4729809171865
0.0013443112639624,19.4782008021817
0.00112597483629402,19.483420687177
0.000894978592590685,19.4906343152927
0.000697258020093954,19.4988898978982
0.000538242511611774,19.5079365632779
0.000413948874780069,19.5179365632779
0.000329092821914121,19.5279365632779
0.000272269370448221,19.5379365632779
0.000235185044560212,19.5479365632779
0.000211926129310361,19.5579365632779
0.00019840363876557,19.5679365632779
0.00019185672618902,19.5779365632779
0.000190447851392519,19.5879365632779
0.000192970454977478,19.5979365632779
0.000198655130989536,19.6079365632779
0.00020704641165118,19.6179365632779
0.000217925695512518,19.6279365632779
0.000231264596290472,19.6379365632779
0.000247200373661074,19.6479365632779
0.000266029801032266,19.6579365632779
0.000288220851960303,19.6679365632779
0.000314444251870701,19.6779365632779
0.000345630297480754,19.6879365632779
0.000383061445390515,19.6979365632779
0.000428519656421159,19.7079365632779
0.000483687666542529,19.7178001425143
0.000546882549933709,19.7269197290201
0.000619000806166698,19.7353296319383
0.000701242396419397,19.7430852448306
0.000795002042018651,19.7502387178069
0.000901867928323208,19.7568383651248
0.00102363898225892,19.7629289634812
0.00116235113271128,19.7685520395939
0.00132030917613433,19.7737461217813
0.00150012361154903,19.7785469680624
0.00170475337412866,19.7829877822148
0.00193755725671381,19.7870994210684
0.00220235585609941,19.7909105921637
0.00250350775324784,19.7944480473176
0.00284600621907093,19.7977367817305
0.00323560326758474,19.8008002447425
0.00367897463491424,19.8036605687348
0.00418394482467164,19.8063388344117
0.00475980603749375,19.8088554001754
0.0054177903746889,19.8112303406
0.00615584814559388,19.8134405037257
0.00697362822007864,19.8154877218907
0.00788401685216753,19.8174090058433
0.00890708243345938,19.8192431904039
0.010077151146236,19.8210374621127
0.0114654808296387,19.8228683120354
0.013374636488427,19.8250293989173
0.0149959646255444,19.8266537402652
0.0167446196128494,19.8282780816132
0.0183040512318122,19.829676504137
0.01967273196905,19.8309137251064
0.0208968843930062,19.8320762520336
0.0219838802568719,19.8332132462613
0.0229208554804901,19.8343638181698
0.0236782636378083,19.8355732130715
0.0241993498801039,19.8369161112694
0.0243440315570195,19.8385900531665
0.023897018904894,19.8403939673949
0.0229206834330398,19.8421978816233
0.0218106507062142,19.8436882695027
0.0205745870791494,19.8451109566949
0.0192091805602793,19.8465551066028
0.0177229954890591,19.8480632809324
0.0161231865455906,19.8496725970995
0.014681913820097,19.8511818022591
0.012325372809673,19.8539129294432
0.0101710700124495,19.856800210541
0.00846382546932775,19.8594671935311
0.00708758130402999,19.8619609498734
0.00588759753706801,19.8644817071179
0.00483248954279042,19.8670641819319
0.0039022582079938,19.869732230906
0.00308099388503977,19.8725091295821
0.00235534896715326,19.8754194728188
0.00177049473516344,19.8781956074322
0.00129477045530405,19.8808373303074
0.00089694298683405,19.8833937609997
0.000556261843026773,19.8859044146225
0.000259882996266543,19.8883891972333
-1.30286237520871e-06,19.8908605727921
-0.000237601955642186,19.8933654615134
-0.000465334968018447,19.8960582582934
-0.000669570931135973,19.8987332181901
-0.000813260905898288,19.9007732915313
-0.000948303287625291,19.9028133648726
-0.00106219661056204,19.9046265053925
-0.00116487573632668,19.9063321284048
-0.00126428031661034,19.9080449018623
-0.00136696876308683,19.9098740798121
-0.00148276169469703,19.9120035844647
-0.00164436138324807,19.9150793223685
-0.00183530425539571,19.918843083515
-0.001990283767209,19.9219854957857
-0.0021391315270584,19.9250734934675
-0.00230469058552798,19.9286028324846
-0.0025037011363261,19.9330534874418
-0.0027137608512329,19.9383251769809
-0.00286120063922562,19.9432935010962
-0.00291819636827346,19.9476478530616
-0.0028824485416012,19.95142636686
-0.00274930074158708,19.9549514028465
-0.00250819033037096,19.9582848503087
-0.00216058251049517,19.961376456436
-0.00170597752732831,19.964268889651
-0.00113955609614119,19.9670139888199
-0.000442881867050806,19.9696929905822
0.000437079717333477,19.9724522158434
0.00162189645147782,19.9755372882534
0.00309537498606231,19.9788046581419
0.00467868604894815,19.9819030391958
0.00598737729240551,19.9842328063885
0.00741805077824695,19.9865625735811
0.0087636803985547,19.9885449675274
0.0101416670407114,19.9903679849095
0.0115777395006176,19.9920579769825
0.0131422986809795,19.9936814292029
0.0148530583226255,19.995234217417
0.0167512895111604,19.9967325754173
0.0188577471645159,19.9981723701833
0.0203664227750323,19.9990861850916
0.0220305598645712,20
