ecg,time
0.000174008446724822,15.000272703495
0.000187451408723183,15.010272703495
0.000202686172351553,15.020272703495
0.000220042438195304,15.030272703495
0.000239935803706012,15.040272703495
0.00026289576204041,15.050272703495
0.000289605562154442,15.060272703495
0.000320959941862859,15.070272703495
0.000358150495262605,15.080272703495
0.000402794960501704,15.090272703495
0.000457138464687018,15.100272703495
0.000519354155760323,15.1095888051732
0.000589922357159305,15.1181863205944
0.000669902866721352,15.1261181887396
0.000760551506356031,15.1334367751999
0.000863304273762998,15.1401907214713
0.000979790359616081,15.14642513355
0.00111185525911276,15.1521818655518
0.0012615891864061,15.1574997638132
0.00143136085847456,15.1624148732312
0.0016238539007304,15.1669606485374
0.00184211346101591,15.171168164536
0.00208959833722728,15.1750663137457
0.00237024604435538,15.178681980359
0.00268855206894297,15.1820402224931
0.00304967010723963,15.1851644682819
0.00345954329752029,15.1880767135698
0.00392507485748957,15.1907977345578
0.00445436408684801,15.1933473441609
0.00505704167233551,15.1957447065552
0.00574476365371809,15.198008753685
0.00650767892718901,15.2000980450818
0.00735118127056948,15.2020353200943
0.00828841793049383,15.2038551445809
0.00933943331393849,15.2055931867671
0.0105381258373796,15.2072924893355
0.0119641848326473,15.2090336923854
0.0139067820831597,15.2110718850634
0.015569302157248,15.2126149937954
0.0173676546067517,15.2141581025273
0.0190339646691861,15.2155308951496
0.0204958395009279,15.216737387388
0.021805202310385,15.217864997688
0.0229740441666945,15.2189641110851
0.0239917236292243,15.220073199978
0.0248305728148561,15.2212352429099
0.0254372756625795,15.2225188102819
0.0256858609310833,15.2240953942585
0.0253194984443066,15.2258984969542
0.0243615856875683,15.2277015996499
0.0232495032032857,15.2291697848196
0.0220025223278568,15.2305649917767
0.0206155078891381,15.231982808524
0.0190967802022877,15.2334670899486
0.0174534985242563,15.2350556050469
0.015715954954478,15.2367957737781
0.0143095260891247,15.2383138299134
0.0124988054992478,15.2404576560087
0.0109025578891213,15.2425761180681
0.00946617417619817,15.2447253928977
0.00810735526457362,15.2470415448251
0.00684573815165795,15.2495262117527
0.00605203116762699,15.2513101769848
0.00534230858681018,15.2530941422169
0.00476974521444685,15.2546967179374
0.00428104932399714,15.2562080215036
0.00383521573150033,15.2577284227054
0.00340442945960506,15.2593555292051
0.00295605701450582,15.2612557165121
0.00239606023544167,15.2640209665963
0.00186568271491721,15.2672132370755
0.00148412279794542,15.2700297043587
0.0011666077522474,15.2728818122078
0.000865837638126563,15.2762565901089
0.000587285839509761,15.2804176506177
0.000376834868470063,15.2850229705716
0.000245702359437393,15.2901692860364
0.000217964655753898,15.2947489546173
0.000271465057007019,15.2988824905216
0.000396355839833067,15.3026002301138
0.000588211258137515,15.3059494914576
0.000846124191148533,15.3089787463765
0.00117193475191175,15.3117373619109
0.00157042441088874,15.3142756336567
0.00205063169028498,15.3166467267902
0.00262815370646296,15.3189080178726
0.00333044542904033,15.3211281483812
0.00420703312671722,15.3233972282723
0.0053701755889997,15.325884520947
0.00694643052709378,15.3286856186978
0.00886559467759301,15.3315475486262
0.0102993202278804,15.333400309153
0.0119209253104424,15.3352530696799
0.0135825593063466,15.3369177521002
0.0153582954268141,15.3384716911027
0.0172721447590664,15.3399274251232
0.0193913177858862,15.3413222990401
0.0217418286192184,15.3426559106841
0.0243753698505826,15.3439406142887
0.0273239414773965,15.3451753004741
0.0306385385990425,15.3463658857882
0.0343666437661771,15.3475143360973
0.0385571869153519,15.3486217786537
0.0432770188844754,15.3496924556842
0.0485977854461351,15.3507291950192
0.0546026411930587,15.3517349110568
0.0613896613909203,15.3527127186446
0.0690796458387835,15.3536664185231
0.0778162246365282,15.3545997198052
0.0877749768356055,15.3555166523823
0.0991728061220174,15.3564216259275
0.11228440141637,15.3573197688802
0.127463174360415,15.3582171021224
0.145174716398729,15.359120952179
0.166054840583397,15.3600407992953
0.190741649294355,15.3609801502551
0.219313544270238,15.3619224987382
0.252494531467783,15.36287720576
0.291268569402027,15.3638586682128
0.337210213260519,15.3648946674323
0.374445931549357,15.3656695581146
0.413218222659404,15.3664444487969
0.447574455017723,15.3671287537863
0.477603457960283,15.3677499770999
0.503935104211661,15.3683420237404
0.526595055143528,15.3689293195191
0.545126877716363,15.369535569369
0.558435657777903,15.3701932825647
0.563907392871943,15.3709552932174
0.558000408015626,15.3717335694441
0.53959663554309,15.3725489444184
0.506929426691083,15.3734194280904
0.458826878126498,15.3743385899808
0.396563619992146,15.3752737548864
0.348697142954547,15.3758925409687
0.296460293255767,15.3765113270511
0.250552978233265,15.377027801045
0.211537736322746,15.377459223557
0.177440539718514,15.3778391058171
0.147002122997978,15.3781873610002
0.119472382201676,15.3785161863619
0.0943394456988643,15.3788344566476
0.0711848362743525,15.3791502203265
0.0495623614554903,15.3794733090453
0.0287286516711703,15.3798221137029
0.00576848937158583,15.380271971128
-0.00280317878446107,15.3804659216969
-0.0106134567967116,15.3806598722659
-0.0170882143502131,15.380836365627
-0.0231948059915976,15.3810192704393
-0.0293121350952331,15.3812228455656
-0.0351972979685489,15.3814437295437
-0.0406982151092911,15.3816799852984
-0.0457305800072725,15.3819309791439
-0.0502508142021964,15.3821969519914
-0.0542400206557673,15.3824787830632
-0.0576944883098222,15.3827778794241
-0.0606150299773519,15.3830961436044
-0.0630653381209358,15.3834463660845
-0.0649057140294918,15.3838083858085
-0.0662520722732915,15.3841983243589
-0.0671194769081218,15.3846208952791
-0.0675196973612862,15.3850818153923
-0.0674603182394088,15.3855883586554
-0.0669423850599802,15.3861500390712
-0.0659543181321897,15.3867810701604
-0.0644677095645961,15.3875002186526
-0.0624243638788017,15.3883363867553
-0.059700494082237,15.3893410152778
-0.0559595409568058,15.3906389996619
-0.051804678835246,15.3920427736731
-0.0477794662641514,15.3934026606054
-0.0439335710219541,15.3947229796164
-0.0402918686744949,15.396005703143
-0.0368675524459802,15.3972514580028
-0.0336669160353814,15.3984601967164
-0.0306914889587825,15.3996315555514
-0.0279391893150792,15.4007650433296
-0.0254050869874945,15.4018601387074
-0.0230820031297163,15.4029163357647
-0.0209610301417485,15.4039331586488
-0.0190320003410352,15.4049101564532
-0.0172839101484135,15.4058468845206
-0.0156795662003584,15.406757930803
-0.0141325675538066,15.4076921588769
-0.0126478000657121,15.4086508685794
-0.0112292357275076,15.40963606771
-0.00988066695064553,15.4106501042265
-0.00860565058048378,15.4116957529432
-0.00740745551165898,15.4127763245012
-0.00628900764568562,15.4138958111898
-0.00525283206142389,15.4150590863703
-0.00430099178047938,15.4162721843245
-0.00343502175980226,15.4175427051115
-0.00265585538377624,15.4188804220952
-0.0019637382170709,15.4202982353332
-0.0013581186496987,15.4218137542154
-0.000843068272254344,15.423432234876
-0.000433053521254977,15.4250922767319
-0.00011078199034634,15.4268122247223
0.000138800082027972,15.4286118002292
0.000329806177109224,15.4305170263934
0.000475813901867042,15.4325641167689
0.000590471558637334,15.4348074023187
0.000688602665839275,15.4373377010814
0.000789038743897256,15.4403366412103
0.000917375393967001,15.4440718302512
0.00106868555008326,15.4479493790899
0.00126036094873642,15.4522532025423
0.00147107855475567,15.4565730433665
0.00170643307405158,15.461177523627
0.00196562862553395,15.4661700961165
0.00221929425722345,15.4710596395747
0.0024793962198997,15.4761054429398
0.00269664624019045,15.480322682561
0.00289892746007808,15.4842384992762
0.00309668892427292,15.4880361182641
0.00329543709880333,15.4918032887755
0.00349904630796006,15.4955952726957
0.00371077870726592,15.4994533400252
0.003933707341373,15.5034118042778
0.00417096188888366,15.5075016293483
0.00442592961372576,15.5117529626943
0.0047024214709176,15.5161965468285
0.00500489117107104,15.5208649903182
0.00533878873816584,15.5257941279481
0.0057111341779734,15.5310241360583
0.00610046939177513,15.5361966747234
0.00650919858127349,15.5413106588691
0.00693914147088768,15.5463485047066
0.00739403635234186,15.5513099805863
0.00787859292616104,15.5561989596532
0.00839828723851225,15.5610204700218
0.00895925083544903,15.5657787972974
0.00956817513541122,15.570476043861
0.0102323752392703,15.5751123698836
0.0109699300623523,15.5797466213652
0.0117996842092108,15.5844109966251
0.0127399697213643,15.5891104404633
0.0138169966457226,15.5938679737254
0.0150704247266777,15.5987346700725
0.016572988989684,15.603837026494
0.0185140918875803,15.6095713588865
0.0204274572134582,15.614586184105
0.0220216214749677,15.6184774888191
0.023656428940557,15.6223687935332
0.0250622920159785,15.6257966416816
0.0262468733027507,15.628927969774
0.0272259369379463,15.6319394462
0.027952408038484,15.6348183876264
0.0284127345072452,15.6376202332685
0.0285959294073047,15.6404732874297
0.0284503620252911,15.6435728500528
0.0277644504433182,15.6475100095955
0.0269243257423029,15.6504615879915
0.0258573604171185,15.6534131663875
0.0247794675723971,15.6559964977981
0.0237061124067545,15.6583631514986
0.0226320142325159,15.660616750459
0.0215582695847033,15.6628079526078
0.020488193715672,15.6649659039922
0.0194255018781758,15.667109982562
0.018373803377152,15.6692543663597
0.0173364634038255,15.6714101691429
0.0163165701672703,15.6735865925224
0.015316932880751,15.6757916173781
0.014340093612213,15.6780324432249
0.0133883361427615,15.6803158022517
0.0124637094712662,15.6826481862577
0.01156806827771,15.6850360233795
0.0107029839404455,15.6874858467422
0.00986980557040061,15.6900044185349
0.00906967097666768,15.6925988825077
0.00829409642286515,15.6953111645175
0.00753188097146962,15.6982059509576
0.00678682862427897,15.7013043112661
0.00606276802932122,15.7046312942222
0.00536373456972191,15.7082158306707
0.00469392332485329,15.7120914821768
0.00405761422407506,15.7162974026859
0.00345904171674113,15.7208798030167
0.00290219234015369,15.7258944625029
0.00239053262782018,15.7314112993198
0.00192675826577546,15.7375219917528
0.0015135034852219,15.7443363109878
0.00116605080808152,15.751670781896
0.000877586160101872,15.7596295728117
0.000648468737046695,15.7683528927588
0.000475349502160403,15.7780250282424
0.000362056674872739,15.7870981301686
0.00027294654125766,15.7970981301686
0.000210955741660418,15.8070981301686
0.000168380765679349,15.8170981301686
0.0001396607145857,15.8270981301686
0.000120695945027794,15.8370981301686
0.000108542030001493,15.8470981301686
0.000101154124198964,15.8570981301686
9.71426775539723e-05,15.8670981301686
9.557014944624e-05,15.8770981301686
9.58037516339064e-05,15.8870981301686
9.74175052157994e-05,15.8970981301686
0.000100128914087029,15.9070981301686
0.000103757408292317,15.9170981301686
0.000108196296426771,15.9270981301686
0.000113393592816606,15.9370981301686
0.000119339118130565,15.9470981301686
0.000126056250602582,15.9570981301686
0.000133597213329374,15.9670981301686
0.000142041133710939,15.9770981301686
0.00015149440954773,15.9870981301686
0.000162093185107919,15.9970981301686
0.000174007991113009,16.0070981301686
0.000187450858286092,16.0170981301686
0.000202685512086891,16.0270981301686
0.000220041649274116,16.0370981301686
0.000239934862308647,16.0470981301686
0.000262894637714293,16.0570981301686
0.000289604215465823,16.0670981301686
0.000320958320977766,16.0770981301686
0.00035814853085898,16.0870981301686
0.000402792558004057,16.0970981301686
0.000457135492065155,16.1070981301686
0.000519350726942464,16.1164142652972
0.000589918423542705,16.1250118130116
0.000669898363030044,16.1329437110885
0.000760546357060215,16.1402623252214
0.000863298392936587,16.1470162970508
0.000979783649926142,16.153250732709
0.00111184761042735,16.1590074864395
0.00126158047406409,16.1643254046984
0.00143135094133417,16.1692405324954
0.00162384261883946,16.1737863246667
0.001842100632863,16.1779938561128
0.00208958375629304,16.1818920194414
0.00237022947520593,16.1855076989259
0.00268853324197443,16.1888659527565
0.00304964871217499,16.1919902091305
0.00345951897483895,16.1949024639458
0.00392504718676855,16.1976234934445
0.00445433257063437,16.2001731105678
0.0050570057126488,16.2025704794973
0.00574472251627271,16.2048345321539
0.00650763342667694,16.2069238317743
0.00735113078683303,16.2088611131257
0.00828836149800906,16.2106809419638
0.0093393693907977,16.2124189862549
0.0105380516081712,16.2141182877984
0.0119640900294333,16.2158594795608
0.0139066360272322,16.2178976359085
0.0155691972634753,16.2194407923902
0.0173676022961386,16.2209839488719
0.0190339279025333,16.2223567530929
0.0204958099366465,16.2235632485108
0.0218051785360427,16.2246908596717
0.0229740261492798,16.2257899726321
0.0239917119092625,16.2268990598729
0.0248305685254178,16.2280610995255
0.0254372811040774,16.22934466053
0.0256858828765982,16.230921228137
0.0253195368963686,16.2327243450449
0.02436162691536,16.2345274619529
0.0232495455886967,16.2359956505838
0.0220025665898729,16.2373908572942
0.0206155538078578,16.2388086727682
0.0190968274033369,16.2402929523317
0.0174535466926345,16.2418814649544
0.0157160026287411,16.2436216303279
0.014309630131461,16.245139619046
0.0124988880299042,16.2472834577601
0.0109026284290733,16.2494019233188
0.00946624641161423,16.2515511817398
0.00810745560175663,16.2538672645284
0.00684582636743981,16.2563519261398
0.00605206747981239,16.2581359917969
0.00534230288264166,16.259920057454
0.00476972555695544,16.2615226747963
0.00428102798486533,16.2630339884922
0.00383519913613652,16.2645543784025
0.00340442365885753,16.2661814466987
0.00295607287894387,16.2680815366902
0.00239615208269106,16.2708463560131
0.00186576210680473,16.2740385830499
0.00148418715727311,16.2768550490274
0.00116667162051282,16.2797070305583
0.00086590879935788,16.2830815106005
0.000587339374959587,16.2872424689192
0.000376868453092087,16.2918476692219
0.000245710437487402,16.2969938328772
0.000217943599415289,16.3015736988204
0.000271419074196562,16.3057073860011
0.000396286741969,16.3094252657046
0.000588119539330833,16.3127746500323
0.000846009400655461,16.3158040101709
0.00117179545353072,16.3185627122825
0.00157025821202658,16.3211010531277
0.00205043443466819,16.3234721963631
0.00262791788574169,16.3257335145232
0.00333015704628336,16.3279536413803
0.00420666540277414,16.3302226728086
0.00536966706372322,16.3327098321554
0.00694579953092111,16.3355108887289
0.00886485183634988,16.3383728184386
0.0102985802301038,16.340225688251
0.0119201906658691,16.3420785580634
0.0135818029168648,16.3437433118972
0.015357492831214,16.3452972999281
0.0172712699479872,16.3467530657915
0.0193903554938781,16.3481479679439
0.0217407599550922,16.3494816031468
0.0243741781656404,16.3507663288086
0.0273226070338863,16.3520010347772
0.0306370434137838,16.3531916393978
0.0343649637839979,16.3543401071211
0.0385552996106615,16.3554475664343
0.0432748963119059,16.3565182590147
0.0485953949251277,16.3575550125939
0.054599939628865,16.3585607407495
0.0613866065021739,16.3595385596292
0.0690761829629589,16.3604922693142
0.0778122872980573,16.3614255787906
0.0877704833382616,16.362342517801
0.0991676516605663,16.3632474955885
0.112278458595483,16.3641456407007
0.127456275228406,16.3650429734139
0.145166636763536,16.3659468195862
0.166045268760288,16.3668666583461
0.190730587579434,16.3678060102028
0.219300728598051,16.3687483563839
0.252479619420874,16.3697030565745
0.291251072278202,16.3706845046237
0.337189250186682,16.3717204727058
0.374426841024686,16.3724954265468
0.413201806870775,16.3732703803879
0.447560235081103,16.373954725164
0.477590913657383,16.3745759682171
0.503924102011111,16.3751680224509
0.526585689570539,16.3757553159072
0.54511945957971,16.3763615520465
0.558430876711334,16.3770192331115
0.563906992426716,16.3777812422154
0.558004718986972,16.3785595080999
0.539606237282491,16.3793748647102
0.506945161139332,16.3802453234951
0.45884829424964,16.3811644790845
0.396589486365772,16.3820996521566
0.348720274973262,16.3827185069348
0.296479209767993,16.383337361713
0.250568556087135,16.3838538800214
0.211551137037048,16.3842853274634
0.177452406844616,16.38466522456
0.147012806411036,16.3850134889664
0.119482102222418,16.3853423198307
0.0943483663086907,16.3856605926123
0.0711931080117672,16.3859763556753
0.0495701764126025,16.3862994392552
0.0287364308059193,16.3866482280376
0.00577906128820065,16.387097996173
-0.0027962042852518,16.3872920103885
-0.0106095537620407,16.3874860246041
-0.0170849279072391,16.387662526033
-0.0231914270210406,16.3878454184447
-0.0293088220246837,16.3880489833298
-0.0351941594116588,16.3882698585995
-0.0406953125556478,16.3885061063025
-0.0457279465543803,16.3887570921778
-0.0502484658892974,16.3890230567381
-0.0542379630802999,16.3893048788964
-0.0576927206237077,16.3896039654441
-0.0606135538765429,16.3899222186398
-0.0630643343273435,16.3902724579097
-0.0649049440180997,16.3906344659452
-0.0662515270774843,16.3910243905781
-0.0671191504371166,16.3914469452207
-0.0675195850352456,16.3919078460844
-0.0674604178916073,16.392414366277
-0.0669426989972171,16.3929760179576
-0.0659548551269116,16.3936070131175
-0.0644684883078596,16.394326115124
-0.0624254223115218,16.3951622196048
-0.0597019179238508,16.3961667509125
-0.0559616130043321,16.3974645364328
-0.0518067037653569,16.3988683352558
-0.0477814115812387,16.4002282428535
-0.0439354198485919,16.4015485809773
-0.0402936120655516,16.402831323016
-0.0368691857730184,16.4040770962668
-0.0336684374640533,16.4052858534842
-0.030692898697304,16.4064572310398
-0.0279404891617194,16.4075907377913
-0.025406280000239,16.408685852397
-0.0230830933509612,16.4097420689243
-0.0209620223530263,16.4107589115062
-0.019032899840869,16.4117359292279
-0.0172847225523674,16.4126726774357
-0.0156803508365175,16.4135837123079
-0.0141333217691307,16.4145179284486
-0.0126485218153787,16.415476625276
-0.0112299230442038,16.4164618104358
-0.00988131797363224,16.4174758316925
-0.0086062635814469,16.4185214636194
-0.00740802892194277,16.4196020165531
-0.0062895400848602,16.4207214823928
-0.00525332236739323,16.4218847339913
-0.00430143904159462,16.423097804953
-0.00343542534996643,16.4243682944126
-0.00265621500240817,16.4257059744301
-0.00196405393759503,16.4271237431505
-0.0013583909839716,16.4286392070098
-0.000843283923613596,16.4302576709963
-0.000433221768568197,16.4319176872507
-0.000110910603342301,16.4336376010093
0.000138703880223479,16.4354371311377
0.000329735543445755,16.4373422969042
0.000475762129864672,16.4393893053114
0.000590431695685891,16.4416324751172
0.000688566717348269,16.4441625979266
0.000788995241874011,16.4471612271406
0.000917327022239073,16.4508964359432
0.0010686203884239,16.454773804976
0.00126028765005862,16.4590776613182
0.00147099717926386,16.4633974607625
0.00170633911064954,16.4680017524917
0.00196553880136742,16.4729944179379
0.00221920488037117,16.4778839589062
0.00247930195255366,16.4829296545036
0.0026965609191796,16.4871470686934
0.00289884561566871,16.4910629609946
0.00309660767957009,16.4948606074605
0.00329535461464347,16.4986277777849
0.00349896114573932,16.5024197422832
0.00371068957434719,16.5062777748927
0.00393361296612454,16.5102361910998
0.00417086093294195,16.5143259555794
0.00442582060107571,16.5185772158243
0.00470230271221085,16.5230207138394
0.00500476065119565,16.5276890571385
0.00533864393031809,16.5326180789036
0.00571097174358355,16.5378479534576
0.0061003029107402,16.543020565272
0.00650902254787495,16.548134564022
0.00693895622788898,16.5531724471835
0.00739383962829321,16.5581339535854
0.007878382679987,16.5630229623403
0.00839806098550872,16.5678444999168
0.00895900589274181,16.5726028531289
0.00956790856677161,16.5773001251739
0.0102320838246771,16.5819364769164
0.0109696026806539,16.5865707122697
0.011799314998418,16.5912350762461
0.0127395492773841,16.5959345015148
0.0138165119248844,16.6006920027282
0.0150698543928971,16.6055586350082
0.0165722891859257,16.610660843505
0.0185131190551105,16.6163947130923
0.0204267735021401,16.6214105120286
0.0220209972396435,16.6253020349364
0.0236558946970575,16.6291935578443
0.0250618439197497,16.6326215547155
0.0262464973839107,16.6357529513926
0.0272256335676953,16.6387644451482
0.0279521989712643,16.641643433608
0.0284126196752079,16.6444452853532
0.0285959178526307,16.647298294248
0.0284504853096614,16.6503977132929
0.0277648778042106,16.6543342721114
0.0269248054793565,16.657286156404
0.025857819670122,16.6602380406966
0.0247799171719592,16.6628215120938
0.0237065613047833,16.665188230458
0.0226324634403869,16.6674418640025
0.0215587179983255,16.6696330852543
0.0204886398093449,16.671791046051
0.0194259441066944,16.6739351272156
0.0183742402790733,16.6760795084236
0.0173368936312959,16.6782353044268
0.0163169924885375,16.6804117174717
0.0153173461788647,16.6826167288439
0.014340496880663,16.6848575383108
0.0133887284789283,16.6871408782086
0.0124640900516176,16.6894732403927
0.0115684363938754,16.6918610529943
0.0107033389842685,16.694310849068
0.00987014702366457,16.6968293906727
0.00906999840626604,16.6994238213738
0.0082944190347602,16.7021360308574
0.00753219716312694,16.7050307367273
0.00678713683761436,16.7081290066912
0.00606306661392816,16.711455888031
0.00536402179609195,16.7150403098211
0.00469419740949059,16.7189158315043
0.00405787337087006,16.7231216044212
0.00345928418596315,16.727703836002
0.00290241654536418,16.7327183008334
0.00239073726652571,16.7382349097424
0.00192694238497712,16.7443453298952
0.00151365904219608,16.7511594555896
0.00116618074456558,16.7584936948182
0.000877693285081446,16.7664522034565
0.000648550538485764,16.7751751757596
0.000475310364105163,16.7848533655918
0.000362058964846877,16.7939238083891
0.000272948811469006,16.8039238083892
0.000210957595031083,16.8139238083892
0.00016838206221728,16.8239238083892
0.00013966153988356,16.8339238083892
0.000120696448855447,16.8439238083892
0.000108542333551247,16.8539238083892
0.000101154301440135,16.8639238083892
9.7142768734377e-05,16.8739238083892
9.55701772318527e-05,16.8839238083892
9.58037306262141e-05,16.8939238083892
9.74174457965846e-05,16.9039238083892
0.00010012882362691,16.9139238083892
0.000103757291648901,16.9239238083892
0.000108196156398432,16.9339238083892
0.000113393430600417,16.9439238083892
0.000119338933697471,16.9539238083892
0.000126056042945876,16.9639238083892
0.000133596980594244,16.9739238083892
0.000142040873230859,16.9839238083892
0.000151494117808066,16.9939238083892
0.000162092857644766,17.0039238083892
0.000174007622343753,17.0139238083892
0.000187450441258453,17.0239238083892
0.000202685038122843,17.0339238083892
0.000220041107471401,17.0439238083892
0.00023993423884214,17.0539238083892
0.000262893914847555,17.0639238083892
0.000289603370131749,17.0739238083892
0.000320957322701958,17.0839238083892
0.000358147338653665,17.0939238083892
0.000402791115602678,17.1039238083892
0.000457133720395769,17.1139238083892
0.000519348711985272,17.1232399661824
0.000589916140930014,17.1318375356601
0.000669895778094809,17.1397694538067
0.000760543429392799,17.1470880864098
0.0008632950764467,17.1538420752279
0.000979779892331467,17.1600765265028
0.00111184335251109,17.1658332945782
0.00126157564873979,17.1711512260037
0.00143134547261149,17.1760663658754
0.00162383642057469,17.1806121691093
0.00184209360731871,17.1848197106789
0.00208957579231208,17.1887178832587
0.00237022044619979,17.1923335711839
0.00268852300316867,17.1956918327001
0.00304963709724575,17.1988160960539
0.00345950579150959,17.2017283571862
0.00392503221080944,17.2044493923753
0.00445431553762933,17.2069990145898
0.00505698630606159,17.2093963880282
0.00574470034933974,17.2116604446135
0.00650760894532012,17.2137497495548
0.00735110368137422,17.2156870351994
0.00828833129081737,17.2175068672812
0.00933933532900377,17.2192449136778
0.0105380123343576,17.220944215811
0.0119640404367973,17.2226854030931
0.0139065614967892,17.2247235433718
0.0155691412455912,17.226266722967
0.0173675700749132,17.2278099025623
0.0190339021019488,17.2291827128161
0.0204957867266602,17.230389210237
0.0218051573086972,17.2315168222695
0.0229740069329516,17.2326159354665
0.0239916950017439,17.2337250223583
0.0248305545104459,17.2348870608898
0.0254372711332306,17.2361706193159
0.0256858802686987,17.2377471796005
0.0253195419109806,17.239550303855
0.024361633273971,17.2413534281096
0.0232495526943459,17.2428216188061
0.0220025749219638,17.2442168257289
0.0206155633944203,17.245634640867
0.0190968382018219,17.2471189197572
0.017453558697701,17.2487074313467
0.0157160154101767,17.2504475951759
0.0143096667527655,17.2519655561783
0.01249892043925,17.2541093953674
0.0109026571599834,17.2562278611224
0.00946627229881165,17.2583771187975
0.00810747995435394,17.2606931983488
0.00684584765706517,17.2631778592215
0.00605208447307779,17.2649619297976
0.00534231622830728,17.2667460003737
0.00476973693106732,17.2683486197323
0.00428103815992784,17.2698599339291
0.00383520851246637,17.2713803233131
0.00340443255646013,17.2730073897934
0.00295608177345545,17.2749074751397
0.00239616330225197,17.2776722739017
0.001865771822354,17.2808644966508
0.00148419540165518,17.2836809609254
0.00116667915858339,17.2865329348703
0.00086591601527254,17.2899073984686
0.000587345110941196,17.2940683478206
0.000376872600246095,17.298673537255
0.000245712644325813,17.3038196870984
0.000217943660080171,17.3083995657234
0.000271417358490368,17.312533262271
0.0003962834270987,17.3162511506888
0.000588114695270717,17.3196005426451
0.000846003022379418,17.3226299092913
0.00117178746992825,17.3253886167898
0.00157024848704414,17.3279269619637
0.00205042272560916,17.3302981084028
0.00262790375024628,17.3325594284191
0.00333013964593106,17.334779555315
0.00420664319280629,17.3370485842977
0.0053696366357452,17.3395357367299
0.00694576161509431,17.3423367913
0.00886480699764673,17.345198721564
0.0102985349870296,17.3470515978454
0.0119201450316072,17.3489044741268
0.0135817554519495,17.3505692324031
0.0153574418336598,17.3521232233575
0.0172712139509759,17.3535789912341
0.0193902934806553,17.3549738951523
0.021740690770075,17.3563075318635
0.0243741007425269,17.3575922589426
0.0273225201332947,17.3588269661976
0.0306369458564143,17.3600175720671
0.0343648540347916,17.3611660409244
0.0385551761838463,17.3622735013226
0.0432747573770281,17.3633441949075
0.0485952383391131,17.3643809494047
0.054599762599881,17.365386678344
0.0613864062303465,17.3663644979482
0.0690759558517599,17.3673182082591
0.0778120289703996,17.3682515182543
0.0877701884090509,17.3691684576663
0.0991673132277155,17.3700734357106
0.112278068231307,17.3709715809393
0.127455821813955,17.3718689135883
0.145166105424703,17.3727727594701
0.166044638763576,17.3736925976369
0.190729859405027,17.3746319495229
0.219299884776621,17.3755742955169
0.252478637247733,17.3765289952138
0.291249919271894,17.3775104422578
0.33718786767606,17.378546408209
0.374425584487049,17.3793213662159
0.413200729875628,17.3800963242229
0.447559305567066,17.3807806716115
0.477590096835062,17.381401915945
0.503923388953394,17.3819939706533
0.526585086573954,17.3825812639268
0.545118987344685,17.3831874991289
0.558430581110878,17.3838451780371
0.563906989198741,17.3846071870126
0.558005029834756,17.3853854521879
0.539606900420321,17.386200807561
0.506946232107258,17.387071264683
0.458849747178528,17.3879904197746
0.396591237213036,17.3889255933669
0.348721839400886,17.389544452771
0.296480488073771,17.3901633121752
0.250569608001051,17.390679833465
0.211552041292682,17.3911112825817
0.177453207056334,17.3914911806731
0.147013526300046,17.3918394456965
0.119482756728896,17.3921682769275
0.0943489665445522,17.3924865498737
0.0711936641558477,17.3928023128923
0.0495707014063071,17.3931253961242
0.0287369529097461,17.3934741838383
0.00577977005940622,17.3939239459834
-0.00279573707929773,17.3941179644678
-0.0106092928036862,17.3943119829521
-0.017084708349459,17.3944884849183
-0.0231912013262124,17.394671376495
-0.0293086008250408,17.3948749406897
-0.0351939499941854,17.3950958153716
-0.0406951190437174,17.3953320625307
-0.0457277711653251,17.3955830478674
-0.0502483096950448,17.3958490118677
-0.0542378264517946,17.3961308334238
-0.0576926034992693,17.3964299193087
-0.0606134563787117,17.3967481717629
-0.0630642689576317,17.3970984122167
-0.0649048943011439,17.3974604194682
-0.0662514924056006,17.3978503431672
-0.0671191303999675,17.3982728967182
-0.067519579323712,17.3987337962916
-0.067460426357877,17.3992403149388
-0.0669427217922292,17.3998019646956
-0.0659548928330852,17.4004329574513
-0.064468542168919,17.4011520563491
-0.0624254948540975,17.401988156578
-0.0597020148580135,17.4029926813936
-0.055961753168844,17.4042904536468
-0.0518068407426291,17.4056942541318
-0.047781543196197,17.4070541631156
-0.0439355449702271,17.4083745025224
-0.040293730093735,17.4096572458047
-0.0368692963968665,17.4109030202915
-0.0336685405601433,17.4121117787527
-0.0306929942794083,17.4132831575671
-0.0279405773505121,17.4144166655943
-0.0254063610011318,17.4155117814931
-0.0230831674356116,17.4165679993298
-0.0209620898428562,17.4175848432365
-0.0190329610921219,17.4185618622979
-0.0172847779426654,17.4194986118603
-0.0156804043566304,17.4204096459649
-0.0141333732403695,17.4213438613028
-0.0126485710999679,17.422302557264
-0.0112299700095735,17.4232877414839
-0.00988136249437597,17.4243017617141
-0.00860630554106547,17.4253473925115
-0.00740806821466437,17.4264279441924
-0.00628957661756946,17.4275474086296
-0.00525335606164501,17.4287106586417
-0.00430146983578086,17.4299237277878
-0.00343545320166533,17.43119421514
-0.0026562398910678,17.4325318926709
-0.00196407586778789,17.4339496583968
-0.00135840998971048,17.4354651185548
-0.000843299109962313,17.4370835814197
-0.00043323375957704,17.438743595952
-0.000110919921500253,17.440463507408
0.000138696749232437,17.442263034484
0.000329730139555665,17.4441681961879
0.000475758002269239,17.4462151990816
0.000590428377133242,17.4484583611022
0.000688563670686271,17.4509884720769
0.000788991696725307,17.4539870803798
0.000917323160369775,17.4577222905144
0.00106861540701535,17.4615996474542
0.00126028213175266,17.4659035060379
0.00147099112450087,17.4702233026897
0.00170633221078904,17.4748275816612
0.00196553218619202,17.4798202534163
0.00221919829649132,17.484709794228
0.00247929503561744,17.4897554825389
0.0026965546045146,17.4939729085629
0.0028988395313285,17.4978888059929
0.00309660162923201,17.5016864543292
0.00329534847213871,17.5054536246504
0.00349895481181249,17.5092455878434
0.00371068295933773,17.5131036181121
0.00393360598142384,17.5170620310769
0.00417085348495216,17.5211517914658
0.00442581258627873,17.5254030467741
0.00470229401187603,17.5298465389729
0.00500475112354358,17.534514875505
0.0053386333976196,17.5394438894447
0.0057109599713982,17.544673754979
0.00610029082579621,17.5498463719512
0.00650900976670804,17.5549603718312
0.00693894276817872,17.5599982576725
0.00739382532797042,17.5649597662807
0.00787836739227337,17.5698487771813
0.00839804453226601,17.5746703167315
0.00895898808114574,17.5794286718304
0.00956788918529084,17.5841259457324
0.0102320626408017,17.5887622993506
0.010969578887374,17.5933965335379
0.011799288170993,17.5980608967006
0.0127395187336454,17.602760320626
0.0138164767184439,17.6075178195173
0.0150698129755668,17.6123844471513
0.0165722383755059,17.6174866449172
0.0185130484370322,17.6232204809304
0.0204267238733621,17.6282363505497
0.0220209519259051,17.6321278892874
0.0236558559124711,17.636019428025
0.0250618113866454,17.6394474356883
0.0262464700885167,17.6425788373424
0.0272256115368845,17.6455903323559
0.0279521837837927,17.6484693242295
0.028412611326039,17.6512711764185
0.0285959169977093,17.6541241820301
0.0284504942386463,17.6572235906594
0.0277649087915786,17.6611601059067
0.026924840267188,17.6641120123975
0.025857852971196,17.6670639188884
0.0247799497726516,17.6696474004432
0.0237065938547956,17.6720141234994
0.0226324960131061,17.6742677595536
0.021558750513619,17.6764589821922
0.0204886721564853,17.6786169436726
0.0194259761735329,17.6807610250266
0.0183742719595318,17.682905406048
0.017336924827532,17.6850612015609
0.0163170231111244,17.6872376138579
0.0153173761466971,17.689442624254
0.0143405261206396,17.691683432535
0.0133887569254789,17.693966771048
0.0124641176452928,17.6962991316525
0.0115684630832271,17.6986869424794
0.0107033647249939,17.7011367365783
0.00987017177798939,17.7036552759989
0.00907002214259523,17.7062497042932
0.00829444242221243,17.7089619085187
0.00753222008542696,17.7118566085475
0.00678715918173316,17.7149548719615
0.00606308826014095,17.7182817459344
0.00536404261893704,17.7218661594119
0.00469421727959217,17.7257416716832
0.00405789215793742,17.7299474339
0.00345930176379608,17.7345296532465
0.00290243279888322,17.7395441039656
0.00239075210124603,17.7450606963511
0.00192695573176354,17.7511710967625
0.00151367031766116,17.7579852084264
0.00116619016196161,17.7653194308594
0.000877701048043347,17.7732779190337
0.000648556473700114,17.7820008661335
0.000475307673309174,17.7916794860672
0.000362059202148325,17.8007497393278
0.00027294902789415,17.8107497393278
0.000210957768027382,17.8207497393278
0.000168382185878628,17.8307497393278
0.000139661623180621,17.8407497393278
0.00012069650445491,17.8507497393278
0.000108542371455699,17.8607497393278
0.000101154327851368,17.8707497393278
9.71427871541944e-05,17.8807497393278
9.55701897071748e-05,17.8907497393278
9.5803738490742e-05,17.9007497393278
9.74174499872433e-05,17.9107497393278
0.000100128824798792,17.9207497393278
0.000103757290230558,17.9307497393278
0.000108196152637807,17.9407497393278
0.000113393424606703,17.9507497393278
0.000119338925473947,17.9607497393278
0.000126056032411469,17.9707497393278
0.000133596967594966,17.9807497393278
0.00014204085754337,17.9907497393278
0.000151494099137051,18.0007497393278
0.000162092835614823,18.0107497393278
0.000174007596485571,18.0207497393278
0.00018745041098825,18.0307497393278
0.000202685002713223,18.0407497393278
0.000220041066010657,18.0507497393278
0.000239934190177411,18.0607497393278
0.000262893857504715,18.0707497393278
0.000289603302200813,18.0807497393278
0.000320957241670103,18.0907497393278
0.000358147241156461,18.1007497393278
0.000402790997043935,18.1107497393278
0.000457133574349455,18.1207497393278
0.000519348544325668,18.1300658987983
0.000589915949377289,18.1386634698931
0.000669895559551318,18.1465953895367
0.000760543180268292,18.1539140235221
0.000863294792653765,18.1606680136157
0.000979779569237713,18.1669024660662
0.00111184298487284,18.1726592352242
0.00126157523061936,18.1779771676453
0.00143134499728426,18.1828923084317
0.00162383588041809,18.1874381125046
0.00184209299368166,18.1916456548424
0.00208957509535095,18.1955438281244
0.00237021965469376,18.1991595166898
0.0026885221042709,18.2025177787881
0.00304963607617469,18.2056420426691
0.00345950463114504,18.2085543042765
0.00392503089114123,18.2112753398909
0.00445431403499595,18.2138249624823
0.00505698459204265,18.2162223362497
0.00574469838907039,18.2184863931152
0.00650760677777959,18.2205756984643
0.00735110127740869,18.2225129844266
0.00828832860512119,18.2243328167318
0.0093393322894009,18.2260708632458
0.0105380088093654,18.2277701653501
0.0119640359441543,18.2295113521219
0.013906554606866,18.2315494907292
0.0155691362550525,18.2330926725563
0.0173675675133151,18.2346358543833
0.0190339002477267,18.2360086651865
0.0204957851935508,18.2372151627641
0.0218051560320096,18.2383427748449
0.0229740059119175,18.2394418880293
0.0239916942622659,18.2405509748518
0.0248305541061076,18.2417130132382
0.0254372711722313,18.2429965713756
0.025685881068322,18.2445731309057
0.0253195434759386,18.2463762558326
0.0243616349690339,18.2481793807595
0.0232495544471155,18.2496475716247
0.0220025767683476,18.2510427785418
0.0206155653265243,18.2524605936253
0.019096840204622,18.2539448724324
0.017453560759114,18.2555333839092
0.0157160174668047,18.2572735475829
0.0143096713850078,18.2587915055195
0.0124989242380677,18.2609353451211
0.0109026604529784,18.2630538109804
0.00946627556028061,18.2652030680756
0.0081074840919821,18.2675191452339
0.0068458512914998,18.270003805905
0.00605208626623656,18.2717878799215
0.00534231652497096,18.273571953938
0.00476973670556654,18.2751745747158
0.00428103783972563,18.2766858892499
0.00383520832117852,18.2782062782349
0.00340443270279434,18.2798333433906
0.00295608262922814,18.2817334253785
0.00239616672432836,18.2844982093192
0.00186577478295161,18.287690430489
0.0014841978182928,18.2905068946519
0.00116668153387035,18.2933588641897
0.000865918616882448,18.2967333174639
0.000587347083919475,18.3008942631449
0.00037687386490374,18.305499448267
0.000245713006504804,18.3106455926383
0.000217942993389034,18.3152254781839
0.000271415814074129,18.3193591800211
0.00039628107057553,18.3230770733382
0.000588111545180188,18.3264264695925
0.000845999063556224,18.3294558399135
0.00117178265242454,18.3322145504346
0.00157024272728188,18.3347528980202
0.00205041587836909,18.3371240462078
0.00262789555326226,18.3393853671696
0.00333012961004218,18.3416054939383
0.00420663038530448,18.3438745212374
0.00536961892473474,18.3463616690535
0.00694573962573827,18.3491627221995
0.00886478110065389,18.3520246524799
0.0102985091708247,18.3538775325767
0.0119201193774849,18.3557304126736
0.0135817290177739,18.3573951734502
0.015357413753809,18.3589491661152
0.0172711833195267,18.3604049351068
0.0193902597596427,18.3617998400128
0.0217406532982617,18.3631334775495
0.024374058935405,18.3644182054018
0.0273224732990702,18.3656529133509
0.0306368933626152,18.3668435198974
0.0343647950371907,18.3679919893656
0.0385551098901256,18.3690994503514
0.0432746828046715,18.3701701444814
0.0485951543389547,18.3712068994777
0.0545996676581429,18.3722126288416
0.0613862988586763,18.373190448841
0.0690758341270446,18.3741441594949
0.0778118905535141,18.375077469776
0.0877700304246287,18.375994409412
0.0991671319870961,18.376899387603
0.112277859247425,18.3777975329047
0.127455579169854,18.3786948655317
0.145165821218293,18.3795987112728
0.166044302002537,18.3805185491405
0.19072947020919,18.3814579010546
0.219299433844721,18.3824002469635
0.252478112512691,18.3833549464149
0.291249303502845,18.3843363929454
0.337187129802126,18.3853723577916
0.374424912816347,18.3861473180219
0.413200152724373,18.3869222782522
0.447558806023221,18.38760662704
0.477589656527451,18.3882278720659
0.503923003165974,18.3888199270384
0.526584758639904,18.3894072202268
0.545118728225677,18.3900134549425
0.558430415122247,18.3906711327155
0.563906977797863,18.3914331416334
0.558005184649289,18.3922114064416
0.539607241839871,18.3930267611653
0.506946789764462,18.3938972174089
0.458850505653252,18.3948163722692
0.39659215286959,18.3957515461464
0.348722658103273,18.3963704079797
0.296481157448004,18.3969892698131
0.250570159135857,18.3975057926696
0.211552515322342,18.3979372426673
0.177453626770035,18.3983171412828
0.147013904088357,18.3986654066318
0.119483100394287,18.3989942380569
0.0943492818930519,18.399312511091
0.0711939565148172,18.3996282740876
0.0495709775676922,18.3999513571376
0.0287372277438692,18.4003001442906
0.00578014341180005,18.4007499032829
-0.00279549087760454,18.4009439240165
-0.0106091551589263,18.40113794475
-0.017084592477029,18.4013144470006
-0.0231910821946887,18.4014973381393
-0.0293084840265773,18.4017009019722
-0.0351938393625091,18.4019217763463
-0.040695016749064,18.4021580232209
-0.0457276783755436,18.4024090082758
-0.0502482269758595,18.4026749719832
-0.0542377540002515,18.4029567932242
-0.0576925412849351,18.4032558787623
-0.0606134044625134,18.4035741308283
-0.0630642337647411,18.4039243718817
-0.0649048673546603,18.4042863787208
-0.0662514733883245,18.4046763019286
-0.0671191190967511,18.4050988549052
-0.0675195755726977,18.4055597537995
-0.0674604300822865,18.4060662716329
-0.0669427330729727,18.4066279203761
-0.0659549119789523,18.4072589118647
-0.0644685698381961,18.4079780091234
-0.0624255323832827,18.4088141071091
-0.0597020652666949,18.409818628498
-0.0559618264176579,18.4111163937437
-0.0518069123258414,18.412520195104
-0.0477816119677665,18.4138801048169
-0.0439356103347015,18.4152004448982
-0.0402937917354535,18.4164831888339
-0.0368693541524583,18.4177289639699
-0.0336685943648326,18.4189377230843
-0.0306930441405127,18.4201091025595
-0.0279406233314835,18.4212426112566
-0.0254064032099033,18.4223377278342
-0.0230832060148753,18.4233939463583
-0.0209621249614074,18.4244107909605
-0.0190329929370163,18.425387810725
-0.0172848067121543,18.4263245609985
-0.0156804321454291,18.4272355947002
-0.0141333999547777,18.4281698096168
-0.0126485966677619,18.4291285051234
-0.0112299943612702,18.4301136888501
-0.00988138556424832,18.4311277085415
-0.00860632726806154,18.4321733387461
-0.00740808854337197,18.4332538897694
-0.00628959549921683,18.4343733534705
-0.00525337345517077,18.43553660265
-0.0043014857089621,18.4367496708431
-0.00343546753235883,18.4380201570893
-0.00265625266862128,18.4393578333151
-0.00196408709474685,18.4407755974693
-0.00135841968409576,18.4422910556847
-0.000843306802204687,18.443909517961
-0.000433239777281794,18.4455695315894
-0.000110924538977699,18.4472894418369
0.000138693276976381,18.4490889673109
0.000329727570942199,18.4509941268825
0.000475756100552459,18.4530411268824
0.000590426896894757,18.4552842848169
0.000688562329751591,18.4578143895801
0.00078899009037269,18.4608129869079
0.000917321383482457,18.4645481977418
0.00106861303859071,18.4684255483346
0.00126027947925962,18.4727294081253
0.0014709881856589,18.4770492032732
0.00170632881789613,18.4816534753895
0.00196552894473452,18.4866461505259
0.00221919507066893,18.4915356912474
0.00247929163086615,18.4965813756395
0.0026965515243228,18.5007988080125
0.00289883657703036,18.5047147081912
0.00309659869643964,18.5085123575265
0.00329534549417115,18.5122795278406
0.00349895173652733,18.5160714903269
0.00371067973988117,18.5199295193326
0.00393360257169714,18.5238879305497
0.00417084983643163,18.5279776887346
0.0044258086454472,18.5322289413841
0.00470228971748171,18.5366724304505
0.00500474640252287,18.5413407633384
0.00533862815834997,18.5462697730638
0.00571095409280412,18.5514996337403
0.00610028480148534,18.5566722533653
0.00650900339686264,18.5617862537712
0.00693893606549039,18.5668241409643
0.00739381821015456,18.5717856506774
0.00787835978543384,18.5766746626526
0.00839803634642069,18.5814962031874
0.00895897921915262,18.5862545592247
0.00956787954085358,18.5909518340485
0.0102320520973678,18.595588188597
0.0109695670425562,18.6002224222006
0.0117992748126717,18.6048867849548
0.0127395035215582,18.6095862082082
0.0138164591806619,18.61434370594
0.0150697923401786,18.6192103312561
0.0165722130559415,18.6243125236707
0.0185130132408515,18.6300463429437
0.0204266991419399,18.6350622478055
0.0220209293453251,18.6389537944352
0.0236558365866162,18.6428453410649
0.025061795177174,18.6462733541088
0.0262464564899691,18.6494047582442
0.0272256005626026,18.652416253885
0.0279521762207261,18.6552952474601
0.0284126071716748,18.6580970998703
0.0285959165790299,18.6609501038449
0.0284504986970224,18.6640495072817
0.0277649242456018,18.6679860008088
0.0269248576155243,18.6709379183654
0.0258578695781061,18.673889835922
0.0247799660302188,18.6764733225402
0.0237066100869541,18.678840047935
0.0226325122564774,18.6810936852399
0.0215587667282905,18.6832849085693
0.0204886882872911,18.6854428703901
0.0194259921646013,18.6875869518379
0.01837428775802,18.6897313327657
0.0173369403847038,18.6918871280335
0.0163170383824417,18.6940635399567
0.0153173910917737,18.6962685498652
0.0143405407030826,18.6985093575538
0.0133887711126523,18.7007926953751
0.0124641314074063,18.7031250551903
0.0115684763946677,18.7055128651304
0.0107033775637768,18.7079626582425
0.00987018412538236,18.7104811965712
0.00907003398294402,18.7130756236622
0.00829445408835463,18.7157878252651
0.00753223151941735,18.7186825223803
0.00678717032723198,18.7217807825275
0.00606309905746993,18.7251076528259
0.00536405300555795,18.7286920621573
0.00469422719101397,18.7325675697341
0.00405790152921177,18.7367733266139
0.00345931053201276,18.7413555398584
0.00290244090667413,18.7463699835387
0.00239075950150916,18.7518865676829
0.00192696239003445,18.7579969582488
0.00151367594308304,18.7648110629143
0.00116619486091438,18.7721452769699
0.000877704922105848,18.7801037549373
0.000648559431639017,18.7888266894666
0.000475306245630794,18.7985055290757
0.000362059278557847,18.80757568595
0.000272949105531986,18.81757568595
0.00021095783186502,18.82757568595
0.000168382230415048,18.83757568595
0.000139661651239708,18.84757568595
0.00012069652128106,18.85757568595
0.000108542381316105,18.86757568595
0.000101154333339516,18.87757568595
9.71427896673019e-05,18.88757568595
9.55701900236012e-05,18.89757568595
9.58037371095971e-05,18.90757568595
9.74174472638135e-05,18.91757568595
0.000100128820985497,18.92757568595
0.000103757285493,18.93757568595
0.000108196147069833,18.94757568595
0.000113393418246043,18.95757568595
0.000119338918315147,18.96757568595
0.000126056024414417,18.97757568595
0.000133596958689242,18.98757568595
0.000142040847629292,18.99757568595
0.00015149408808414,19.00757568595
0.000162092823257938,19.01757568595
0.00017400758261857,19.02757568595
0.000187450395354682,19.03757568595
0.000202684984993159,19.04757568595
0.000220041045802283,19.05757568595
0.000239934166971256,19.06757568595
0.000262893830647184,19.07757568595
0.000289603270841839,19.08757568595
0.000320957204686534,19.09757568595
0.000358147197037468,19.10757568595
0.000402790943715169,19.11757568595
0.000457133508895269,19.12757568595
0.00051934846993493,19.136891846259
0.000589915865156211,19.1454894181589
0.00066989546422599,19.1534213385448
0.000760543072353358,19.1607399732132
0.000863294670454897,19.167493963935
0.000979779430832768,19.173728416963
0.00111184282808454,19.1794851866513
0.00126157505298091,19.1848031195592
0.00143134479600137,19.189718260792
0.00162383565232291,19.1942640652738
0.00184209273517987,19.1984716079859
0.00208957480235469,19.2023697816098
0.00237021932254778,19.2059854704872
0.00268852172765104,19.2093437328697
0.00304963564896469,19.2124679970087
0.00345950414627465,19.2153802588497
0.00392503034036562,19.2181012946746
0.00445431340859368,19.2206509174542
0.0050569838783773,19.2230482913885
0.00574469757392608,19.2253123483995
0.00650760587756509,19.2274016539453
0.00735110028075889,19.2293389400664
0.0082883274945126,19.2311587724918
0.0093393310372255,19.2328968190843
0.0105380073658644,19.2345961212114
0.0119640341219412,19.2363373078201
0.0139065518702602,19.2383754458401
0.0155691341955527,19.2399186285145
0.0173675663243705,19.241461811189
0.0190338992929174,19.2428346222139
0.0204957843326965,19.2440411198655
0.0218051552429069,19.2451687319787
0.0229740051956595,19.2462678451723
0.0239916936298115,19.2473769319825
0.0248305535789004,19.2485389703284
0.0254372707925359,19.2498225283718
0.0256858809578605,19.2513990876342
0.0253195436445335,19.253202212831
0.0243616351869356,19.2550053380278
0.0232495546926512,19.2564735289691
0.0220025770592465,19.2578687358944
0.0206155656639735,19.2592865509659
0.0190968405872255,19.2607708297486
0.017453561186853,19.2623593411877
0.015716017924232,19.2640995048049
0.0143096727125844,19.265617461731
0.0124989254240708,19.2677613013365
0.0109026615081367,19.2698797671982
0.00946627650277948,19.2720290242799
0.00810748494532047,19.2743451013821
0.00684585203706451,19.2768297620296
0.00605208689807889,19.2786138361322
0.00534231705806787,19.2803979102347
0.00476973717605134,19.2820005310468
0.00428103826496658,19.2835118455889
0.00383520871010255,19.2850322345641
0.00340443306157748,19.2866592996875
0.00295608296508985,19.2885593815942
0.00239616707154114,19.2913241651786
0.00186577508394693,19.2945163862246
0.00148419807716596,19.2973328503208
0.00116668176539887,19.3001848196921
0.000865918827942528,19.3035592726323
0.000587347255261889,19.3077202180667
0.000376873994707483,19.3123254028853
0.000245713086774328,19.3174715468707
0.000217943019803879,19.3220514327094
0.000271415796808569,19.3261851347571
0.000396281014711579,19.3299030282706
0.000588111452950043,19.3332524246963
0.000845998935211122,19.3362817951631
0.00117178248663327,19.3390405058052
0.00157024252115309,19.3415788534882
0.00205041562666113,19.343950001749
0.00262789524637039,19.3462113227548
0.00333012922951168,19.348431449528
0.00420662989832217,19.3507004767808
0.00536961826160817,19.3531876244639
0.00694573879596988,19.3559886775739
0.00886478011560708,19.3588506078767
0.010298508166957,19.3607034881143
0.011920118352535,19.3625563683519
0.0135817279431821,19.3642211292288
0.015357412587808,19.3657751219577
0.0172711820314453,19.3672308909953
0.019390258325257,19.3686257959412
0.0217406516917233,19.3699594335127
0.0243740571320424,19.3712441613977
0.0273224712706312,19.3724788693768
0.0306368910813527,19.3736694759523
0.0343647924677205,19.374817945447
0.0385551069973277,19.3759254064579
0.0432746795455168,19.3769961006112
0.0485951506630362,19.3780328556288
0.054599663500365,19.3790385850108
0.0613862941526651,19.380016405027
0.0690758287879514,19.3809701156951
0.0778118844779953,19.381903425988
0.0877700234854235,19.382820365633
0.0991671240211577,19.3837253438295
0.112277850054878,19.3846234891334
0.127455568486764,19.3855208217582
0.145165808690859,19.3864246674917
0.166044287136298,19.3873445053444
0.190729453023198,19.3882838572585
0.219299413924702,19.3892262031621
0.252478089318898,19.3901809026009
0.291249276261286,19.3911623491063
0.337187097111953,19.3921983139003
0.374424883162047,19.3929732742291
0.413200127387976,19.3937482345579
0.447558784235533,19.3944325834072
0.477589637454875,19.3950538284628
0.503922986594762,19.395645883446
0.526584744720472,19.3962331766294
0.5451187174523,19.3968394113221
0.558430408588936,19.3974970890433
0.563906978258777,19.3982590979576
0.558005192615066,19.3990373627484
0.539607258214359,19.3998527174422
0.50694681586141,19.400723173646
0.458850540950768,19.4016423284926
0.396592195313246,19.4025775023816
0.348722695997865,19.4031963643266
0.296481188389491,19.4038152262715
0.250570184580271,19.4043317491999
0.211552537180559,19.4047631992379
0.177453646100631,19.4051430978773
0.147013921467152,19.4054913632411
0.119483116184081,19.405820194675
0.0943492963636131,19.406138467713
0.0711939699126283,19.4064542307084
0.0495709902051459,19.4067773137499
0.0287372403009364,19.4071261008772
0.00578016044338587,19.4075758597254
-0.00279547965691442,19.4077698805616
-0.0106091488997904,19.4079639013977
-0.0170845872145995,19.4081404036611
-0.0231910767862195,19.4083232947796
-0.0293084787280313,19.4085268585959
-0.0351938343492134,19.4087477329557
-0.0406950121201649,19.4089839798171
-0.0457276741843318,19.409234964859
-0.0502482232480338,19.4095009285528
-0.0542377507446378,19.4097827497792
-0.057692538499932,19.4100818353013
-0.060613402151279,19.4104000873493
-0.0630642322367365,19.4107503284326
-0.0649048662025879,19.4111123352527
-0.0662514725974219,19.4115022584381
-0.0671191186571003,19.4119248113885
-0.0675195754768177,19.4123857102518
-0.0674604303265648,19.412892228048
-0.0669427336609563,19.413453876745
-0.065954912924521,19.4140848681759
-0.064468571171051,19.41480396536
-0.0624255341637999,19.4156400632438
-0.059702067631377,19.4166445844771
-0.0559618298169156,19.4179423494051
-0.0518069156477798,19.4193461508054
-0.04778161516015,19.4207060605517
-0.0439356133703508,19.4220264006639
-0.0402937945999322,19.4233091446295
-0.0368693568382737,19.4245549197953
-0.0336685968690108,19.4257636789397
-0.0306930464633807,19.4269350584453
-0.0279406254759482,19.4280685671732
-0.0254064051809163,19.4291636837819
-0.023083207818988,19.4302199023376
-0.0209621266063663,19.4312367469717
-0.0190329944314138,19.4322137667686
-0.0172848080650969,19.4331505170747
-0.015680433453193,19.4340615507579
-0.0141334012130496,19.4349957656551
-0.0126485978732121,19.4359544611409
-0.0112299955106953,19.4369396448449
-0.00988138665461951,19.4379536645115
-0.00860632829656237,19.4389992946889
-0.00740808950744308,19.4400798456819
-0.00628959639660767,19.4411993093492
-0.00525337428398389,19.4423625584905
-0.00430148646770507,19.4435756266397
-0.00343546821999977,19.4448461128351
-0.00265625328465781,19.4461837890008
-0.00196408763928112,19.4476015530828
-0.00135842015793882,19.449117011209
-0.000843307183756603,19.4507354734582
-0.000433240081595121,19.4523954870451
-0.000110924778654461,19.454115397237
0.000138693090223227,19.4559149226373
0.000329727426018738,19.4578200821109
0.00047575598658958,19.4598670819778
0.000590426802628853,19.4621102397245
0.000688562242236477,19.4646403442021
0.000788989991043371,19.4676389410254
0.000917321276752131,19.4713741518915
0.00106861290506831,19.4752515021925
0.00126027933319385,19.4795553620417
0.0014709880266194,19.4838751571181
0.00170632863760815,19.4884794289076
0.00196552877186061,19.4934721042058
0.00221919489854302,19.4983616449233
0.00247929145008078,19.5034073291288
0.00269655135885077,19.5076247618051
0.00289883641735119,19.5115406621152
0.00309659853752912,19.5153383114985
0.00329534533279766,19.5191054818126
0.00349895157014373,19.5228974442655
0.00371067956618112,19.5267554732113
0.00393360238839631,19.5307138843454
0.00417084964111294,19.5348036424256
0.00442580843543401,19.5390548949486
0.0047022894897013,19.5434983838661
0.00500474615330435,19.5481667165807
0.00533862788309155,19.5530957261057
0.00571095378543777,19.5583255865513
0.00610028448581676,19.5634982063099
0.006509003062987,19.5686122067459
0.00693893571382203,19.5736500940088
0.00739381783647903,19.5786116037794
0.00787835938592816,19.5835006158106
0.00839803591644775,19.588322156397
0.00895897875369057,19.5930805124836
0.00956787903438768,19.5977777873559
0.010232051543834,19.6024141419535
0.010969566420878,19.6070483755266
0.0117992741117604,19.6117127382597
0.0127395027236007,19.616412161478
0.0138164582609428,19.6211696591491
0.0150697912582634,19.6260362843439
0.0165722117287239,19.6311384764783
0.0185130113963476,19.6368722948745
0.0204266978456414,19.6418882015824
0.0220209281617203,19.6457797486255
0.0236558355735288,19.6496712956686
0.0250617943273575,19.6530993089943
0.0262464557769476,19.6562307132597
0.0272255999870774,19.6592422089334
0.0279521758239314,19.6621212025977
0.0284126069534785,19.6649230550194
0.0285959165565626,19.6677760589083
0.0284504989300815,19.6708754620731
0.0277649250547394,19.6748119544624
0.0269248585239201,19.6777638725987
0.0258578704476728,19.6807157907351
0.0247799668814961,19.6832992776186
0.0237066109369111,19.6856660031358
0.0226325131070303,19.6879196405063
0.0215587675773463,19.690110863872
0.0204886891319575,19.6922688257106
0.0194259930019493,19.6944129071634
0.0183742885852784,19.6965572880863
0.0173369411993169,19.6987130833413
0.0163170391820729,19.700889495245
0.0153173918743056,19.703094505128
0.0143405414666052,19.7053353127857
0.0133887718554527,19.7076186505708
0.0124641321279337,19.7099510103448
0.0115684770915779,19.7123388202386
0.0107033782359117,19.7147886132991
0.00987018477175392,19.7173071515708
0.00907003460272589,19.719901578599
0.00829445469903005,19.7226137800646
0.00753223211794898,19.7255084770273
0.00678717091066807,19.7286067370034
0.00606309962268469,19.7319336071094
0.00536405354927379,19.7355180162238
0.00469422770985204,19.7393935235549
0.00405790201977024,19.7435992801552
0.00345931099099554,19.7481814930802
0.00290244133107557,19.753195936392
0.0023907598888617,19.7587125201048
0.00192696273853251,19.7648229101551
0.00151367623749071,19.7716370144543
0.00116619510679989,19.7789712280714
0.000877705124786346,19.7869297055044
0.000648559586644667,19.7956526393756
0.000475306176321014,19.8053314901579
0.000362059285214617,19.814401642104
0.000272949111514273,19.824401642104
0.000210957836625171,19.834401642104
0.000168382233826791,19.844401642104
0.000139661653555387,19.854401642104
0.000120696522843192,19.864401642104
0.000108542382393749,19.874401642104
0.000101154334100002,19.884401642104
9.71427902057781e-05,19.894401642104
9.55701903960234e-05,19.904401642104
9.5803737352433e-05,19.914401642104
9.74174474025486e-05,19.924401642104
0.000100128821037812,19.934401642104
0.000103757285470333,19.944401642104
0.000108196146978664,19.954401642104
0.000113393418089029,19.964401642104
0.000119338918092013,19.974401642104
0.000126056024122528,19.984401642104
0.000131945600372714,19.992200821052
0.000138325284406524,20
