ecg,time
-0.00103050258404433,15.0002537557473
-0.000921698629916618,15.0036036502424
-0.000737223514461645,15.0066837273612
-0.000469068982115475,15.0095575766702
-0.000103795407944579,15.0122971132031
0.000383913235511646,15.0149986015905
0.00104978037147664,15.0178223130018
0.00197460429979424,15.0209108438785
0.00318983985398051,15.0242167552868
0.00473362972601905,15.0277434829286
0.00580095409455673,15.0298748928754
0.00699440999744579,15.0320063028223
0.00821380070648848,15.0339330377938
0.00949824237288231,15.0357175155944
0.0108814177202234,15.0373964231127
0.0123998054967575,15.0389978084369
0.0140900321588459,15.0405395249195
0.0159728568324489,15.0420199266273
0.0180809354996801,15.0434459368102
0.0204415112854251,15.044818177882
0.0230801468854827,15.0461359464305
0.0260354674243131,15.0474041639048
0.0293451845717216,15.0486250002639
0.0330496543200998,15.0498001766212
0.0372025584850368,15.0509338785437
0.0418635185936028,15.0520294231506
0.0471019930482914,15.0530901350777
0.0530001082601854,15.0541194787282
0.05965440463803,15.0551208765073
0.0671838160028962,15.056098355542
0.0757316819555185,15.057056003896
0.0854749296743206,15.0579983143896
0.0966358180791543,15.0589303807332
0.109499137151901,15.0598581578159
0.124441241130342,15.0607890174923
0.141975826083275,15.0617324652525
0.162840782697066,15.0627017247209
0.187097132284174,15.0636766830634
0.215249246259487,15.0646612514388
0.248099658314921,15.0656682273643
0.28679410575333,15.0667178386007
0.33307502015971,15.0678453683379
0.36763546891922,15.068632190762
0.403111411168422,15.0694190131861
0.434677238978663,15.0701262726032
0.462334565282518,15.0707786064665
0.486387322647885,15.0714052129999
0.506691428225525,15.0720291139937
0.522661984448009,15.0726737640668
0.533048958866215,15.0733713580167
0.535101947830835,15.0741645750393
0.525982054845884,15.0749730534983
0.504498841289931,15.0758149660156
0.468965706209615,15.0767046097542
0.417367587679279,15.0776515606954
0.369389291224868,15.0783698885035
0.31471800500715,15.0790882163116
0.2665207430619,15.0796715224648
0.226097518957885,15.0801430867226
0.191089485044134,15.0805489708059
0.159982359516764,15.0809153015437
0.131923203537998,15.0812569398128
0.106366158544407,15.081583820252
0.0829003392017933,15.0819039946929
0.0611453854712283,15.0822257899859
0.0406125860856608,15.0825612987878
0.0202040071794768,15.0829398135119
0.00304841376056658,15.0833103829858
-0.00459837934299291,15.0834977635844
-0.0115877637611172,15.0836851441829
-0.0176483501793562,15.0838632181466
-0.0236938026352043,15.0840590484844
-0.0296410756848167,15.0842744415149
-0.0352866767125809,15.0845064489028
-0.040511992315756,15.0847536820306
-0.0452530137721798,15.0850158877246
-0.0494783957984615,15.0852935895069
-0.0531766461591107,15.0855879025203
-0.0565070726192663,15.0859194770112
-0.0590847387387154,15.0862509059078
-0.0611505183246032,15.0866049945055
-0.0627210924888011,15.0869853049815
-0.0638108452200991,15.0873959022384
-0.0644326772815972,15.0878418308377
-0.0645964327483877,15.0883294346435
-0.0643070089694548,15.0888668401524
-0.0635605700578425,15.0894655163116
-0.0623395005293055,15.090141146819
-0.0606061774700835,15.0909158605013
-0.0582843297861581,15.0918252933791
-0.0552019290784395,15.0929387824778
-0.0510801168315011,15.0943652464789
-0.0470601080839252,15.095739263685
-0.0432036080398428,15.0970706277247
-0.0395435184208782,15.0983627269229
-0.0360967940249806,15.0996169435193
-0.0328717363937922,15.1008336447302
-0.0298710840819137,15.1020126980597
-0.0270935541456408,15.1031537427007
-0.0245347763367007,15.1042563313741
-0.0221879724698635,15.1053200008625
-0.0200445170676859,15.1063443012102
-0.0180944295660805,15.1073287994749
-0.0163268142254336,15.1082730667136
-0.014724344384184,15.109180098107
-0.0131785379737584,15.1101101127604
-0.0116945147262035,15.1110642587434
-0.0102762899019747,15.1120444905353
-0.0089277117511192,15.1130530883868
-0.00765240524909412,15.1140927421218
-0.00645372126153197,15.1151666546528
-0.00533468330004078,15.1162786799779
-0.00429793194651748,15.1174335110685
-0.00334566663634936,15.1186369421733
-0.00247958393962724,15.1198962459887
-0.0017008105239256,15.1212207355006
-0.0010098272350121,15.1226226377353
-0.000406377293461934,15.1241185276378
0.000110510355411945,15.1257313337216
0.000518885434870131,15.1273824622296
0.00083646742640136,15.1290904234173
0.00107838382764274,15.1308740604436
0.00125873029371777,15.1327580544464
0.00139092946774678,15.134776361677
0.00148825253169399,15.1369791479469
0.00156470001033474,15.1394483537073
0.00163706354677537,15.1423412578655
0.00173292540976254,15.1460770922255
0.00185027703403685,15.1498944435461
0.00199163392369422,15.1537259704382
0.00215057275191215,15.1575095989474
0.00232337659167788,15.1613048644011
0.00250702789245789,15.1651563637451
0.00269980785203415,15.1691002705192
0.00290135034684144,15.1731687786856
0.00311247890956277,15.1773927406352
0.00333498379916459,15.1818033643761
0.00357142930454801,15.1864336092151
0.00382507592754876,15.1913196307019
0.00409999777998232,15.1965021450932
0.00440149554033672,15.2020278644747
0.0047203134626938,15.207660729468
0.00504462733198263,15.2131390622174
0.00538050187205311,15.218524708947
0.00572955476503153,15.2237973639476
0.00609594746448008,15.2289765088654
0.00648342951626864,15.2340715017349
0.00689608661799509,15.239092392278
0.0073381030496587,15.2440454383888
0.00781395112067797,15.2489346581536
0.008328490378791,15.2537620036425
0.00888708927632452,15.2585277648714
0.0094957232096738,15.2632307707819
0.0101610825403185,15.2678687828642
0.0108978649174991,15.2724817656354
0.011727446015249,15.277121736864
0.0126668832334884,15.2817878096586
0.013741454024618,15.2865005048457
0.0149887547607891,15.2913047343468
0.0164760224730383,15.2963110667793
0.0183683141593129,15.3018494883629
0.0208392512774626,15.3081592385692
0.0224189537788223,15.3118789716702
0.0240317919836011,15.3155987047713
0.0254392451876789,15.3189351193671
0.0266289069625983,15.322002592422
0.0276118822717606,15.3249643128197
0.0283338024828233,15.3277817817091
0.0287889893883699,15.3305327165167
0.0289648760756294,15.3333451532295
0.0288056310509566,15.3364202043429
0.0280713699327045,15.3404148486999
0.0272298833067745,15.3432553684678
0.0261739151336541,15.3460958882356
0.0251029839478316,15.3486048003818
0.0240335889706664,15.3509141209478
0.0229621878463393,15.3531173167764
0.0218903706552844,15.3552614050791
0.0208215759144963,15.3573738732462
0.0197595340442181,15.3594731609456
0.0187078303795496,15.3615728394764
0.0176697872182781,15.3636836001629
0.0166484406531225,15.3658143357282
0.0156465437536951,15.367972795195
0.0146665792409573,15.3701660094583
0.0137107740443228,15.3724005884628
0.0127811086687899,15.3746829551924
0.0118793336657841,15.3770195177796
0.011006975530231,15.3794168414942
0.010165347225839,15.3818817996712
0.00935556466499736,15.3844217051712
0.00856438393784356,15.3870942123713
0.00778561099603349,15.3899474103143
0.00702301728819954,15.393002722067
0.00628049793326808,15.3962853773712
0.00556218625467582,15.3998246138785
0.00487241220145232,15.403654479047
0.00421564531502736,15.4078147802866
0.00359637875783462,15.4123524950378
0.00301892272264582,15.4173242502686
0.00248712582980587,15.4228007377602
0.00200404847910069,15.4288748604444
0.00157784785329566,15.4355673364676
0.00129054182200237,15.4411784159915
0.00106927048210323,15.4467894955154
0.00083503393507485,15.454597947684
0.00064576432642,15.4631117129066
0.000496448573833944,15.472308554436
0.000381926382159047,15.482308554436
0.000303606348319942,15.492308554436
0.000250912447910915,15.502308554436
0.000216148439589947,15.512308554436
0.000193855912215803,15.522308554436
0.000180274715280859,15.532308554436
0.000172860822128944,15.542308554436
0.000169904365492305,15.552308554436
0.000170260123272009,15.562308554436
0.000173170178518044,15.572308554436
0.000178149723840902,15.582308554436
0.000184912828671633,15.592308554436
0.000193323774848782,15.602308554436
0.000203366028587931,15.612308554436
0.000215124554509016,15.622308554436
0.000228779132431173,15.632308554436
0.000244607649269662,15.642308554436
0.000262999585156034,15.652308554436
0.00028448139739531,15.662308554436
0.000309757513241458,15.672308554436
0.000339773645662289,15.682308554436
0.000375814025894652,15.692308554436
0.000419652585616687,15.702308554436
0.000471833097504969,15.7119776500454
0.000531521413742196,15.7209217968128
0.000599618913127768,15.7291799676167
0.000677269136194099,15.7368043819354
0.000765788943182454,15.7438442069981
0.000866673559287006,15.7503451870037
0.000981615008700186,15.756349869924
0.0011125268604292,15.7618978308399
0.00126157348807378,15.7670258740775
0.00143120324828123,15.7717682229645
0.00162418718570919,15.7761567028605
0.00184366448736778,15.7802209188434
0.00209319718695705,15.7839884263581
0.00237683605017845,15.7874848992429
0.00269920305200249,15.7907343010327
0.00306559516323903,15.7937590625887
0.00348211895830887,15.7965802699585
0.00395586974678252,15.7992178737377
0.00449517718702723,15.8016909356407
0.00510995501811384,15.8040179364593
0.00581099547869843,15.80621369425
0.00658509920792015,15.8082317897717
0.00744117989924666,15.8101054845814
0.00839277399298341,15.8118680813157
0.00946041852197498,15.8135539057112
0.0106789777944497,15.8152048086653
0.0121441574344505,15.8169146857078
0.0141532865117593,15.8189279881621
0.0158735839898651,15.8204526636895
0.01773263273637,15.8219773392169
0.0194190738633464,15.8233085020901
0.0209012039673971,15.8244836934059
0.022230531684714,15.8255866185142
0.0234171615765681,15.8266652595192
0.0244490068623716,15.8277574599078
0.0252964390993509,15.828906898504
0.0259020053215882,15.8301857703598
0.0261239337365569,15.8317857553231
0.0257170065696147,15.8335261533276
0.0247408726585268,15.8352665513321
0.0236088622881666,15.8367055930219
0.0223338692564827,15.8380855730605
0.0209126867438472,15.839494084035
0.0193535951046043,15.840973770881
0.0176628534669326,15.8425630468766
0.0158681019899138,15.844311457911
0.0144199092675789,15.8458308967312
0.0118822109545989,15.8488116914564
0.00980490263699233,15.8516669525939
0.00817433172963878,15.8542860942297
0.00684380842574214,15.8567700991814
0.00568288569201885,15.8592900083205
0.0046634154007687,15.8618765013132
0.00376629934989323,15.8645529061067
0.00297622358582858,15.8673424588455
0.00228030662862252,15.8702700063282
0.00172227324927672,15.8730617503726
0.00126620463026411,15.8757461443384
0.000881157287929651,15.8783893307601
0.000550818629826437,15.8810157120211
0.000269878283553419,15.8835814001079
3.32523132773644e-05,15.8860356175943
-0.000168899606698425,15.8883870414933
-0.000347233040413436,15.890687864723
-0.000511841627276714,15.8930241991497
-0.000676211066673669,15.8955807952791
-0.000815946951289531,15.897941279523
-0.000946265668599619,15.9003017637668
-0.0010453538045642,15.9021984973885
-0.00112871905263968,15.9038601575349
-0.0012064998977283,15.9054620652951
-0.00128408533940857,15.9071062848692
-0.001366951428921,15.9089092289678
-0.00146572744407431,15.9111144581647
-0.00164735630234228,15.9152994096498
-0.00181396409276086,15.9192538138847
-0.00195208753529775,15.9226020200296
-0.00209465752136578,15.92612760248
-0.0022683372216571,15.9305603307785
-0.00247081018882402,15.936161837655
-0.00261312627899629,15.9410815725743
-0.00268467716495795,15.945450590437
-0.00267521028029128,15.949390198126
-0.00257437374913484,15.9530245043353
-0.00237342974011969,15.9563896842164
-0.00207109470448377,15.9594764868967
-0.00166805154680794,15.9623166600501
-0.00115989146042692,15.9649717666102
-0.000530974243102686,15.9675227933955
0.000255864746773605,15.9700789241309
0.00130092149605115,15.9728536872487
0.00269245325736272,15.9759332530893
0.00445676445764341,15.9792796775858
0.00590082453109264,15.9817239806297
0.00749225964198094,15.9841682836737
0.00896950688300214,15.9862120324996
0.0104222910846683,15.9880150409257
0.0119356164031938,15.9896871387022
0.0135772186248943,15.9912878754143
0.0153615222473994,15.9928112460645
0.0173406832508874,15.9942820509329
0.0195349747212223,15.9956949752386
0.0219847016886464,15.9970577941957
0.0247166537015835,15.9983684137385
0.0277716593680185,15.9996310790919
0.0311909003378826,16.0008480473766
0.035020019550781,16.0020215692214
0.0393108990861458,16.0031541417481
0.0441291460434383,16.0042497990995
0.049548853976437,16.0053119266699
0.0556579178539812,16.0063441006855
0.0625616389580971,16.007350108161
0.0703868308882132,16.0083339150728
0.0792918219066849,16.0093001639947
0.0894735867138608,16.0102539249252
0.101184091910439,16.0112011334729
0.114754708874313,16.0121490571681
0.130637032761968,16.0131070775144
0.149479707540612,16.0140882780575
0.171580430994374,16.0150831613886
0.197226286671726,16.0160859878764
0.22714645825536,16.0171095453286
0.262362960043753,16.0181730564593
0.3045436949748,16.0193118969819
0.339377154148528,16.020181605689
0.37563387373603,16.0210513143961
0.407899597583753,16.0218218861588
0.436130078810991,16.022520499458
0.460759997088482,16.0231806322351
0.48177593958609,16.023826480253
0.498775078905041,16.0244796798752
0.510871807300021,16.0251653213369
0.516281881293708,16.0259216168086
0.511935516172275,16.0267373021364
0.496138193828846,16.0275737317797
0.467518079774138,16.0284458026862
0.424367545835691,16.0293641363567
0.364831335842032,16.0303379881421
0.322748647470451,16.0309257876285
0.276938212755404,16.0315135871149
0.235897382939878,16.0320144715443
0.200266951938429,16.0324419024318
0.16869753545981,16.0328232905237
0.140275798980814,16.0331757149112
0.114424395256646,16.0335102017292
0.0907283629611896,16.0338351225358
0.068831514687793,16.0341583375409
0.0483345668232037,16.0344897266041
0.0285407784581375,16.034848183506
0.00660494527528456,16.0353131121217
-0.00141708579655955,16.0355093616181
-0.00873962777424782,16.0357056111145
-0.0150268176395855,16.0358905165323
-0.0209806209690709,16.036083253286
-0.0269058450080548,16.0362968156781
-0.0325784489478583,16.0365278883152
-0.0378603717524219,16.0367746273231
-0.0426760861421282,16.0370364919193
-0.0469873324552142,16.0373138130585
-0.0507755960140352,16.0376075604182
-0.0542183831744491,16.0379399065975
-0.0568867329724129,16.0382701572941
-0.0590443794723632,16.038622489077
-0.0607077117291092,16.0390003259582
-0.0618909261686141,16.0394075250755
-0.0626071529139415,16.0398488548357
-0.0628669540725087,16.0403302790667
-0.0626765912155404,16.0408593807724
-0.0620350921390957,16.0414465064688
-0.0609289917684975,16.0421062104238
-0.0593280347903253,16.0428581912428
-0.0571713238583928,16.0437330059555
-0.0543288225067222,16.0447859044858
-0.0504340851383329,16.0461566311767
-0.0464402436346583,16.0475363099156
-0.0425991956607348,16.0488714964082
-0.0389500332691032,16.0501661090781
-0.0355118542014519,16.0514220525065
-0.0322939600469732,16.0526399934499
-0.0292995970950857,16.0538199745079
-0.0265277556605432,16.0549617407416
-0.0239742198047177,16.056064910994
-0.0216323021543819,16.0571290646123
-0.0194934326685575,16.0581537798332
-0.0175476656625115,16.0591386429135
-0.0157841278950093,16.0600832383617
-0.0141859548542698,16.0609903189742
-0.0126444647470662,16.0619203693897
-0.0111647879783632,16.0628745359185
-0.00975094749723095,16.0638547737831
-0.00840679943263175,16.0648633634862
-0.00713597715698101,16.0659029946278
-0.00594184084583901,16.0669768693727
-0.00482742469144849,16.0680888403543
-0.00379538187694123,16.0692435984048
-0.00284792707383697,16.0704469346014
-0.00198677570756372,16.0717061170147
-0.00121307835115586,16.0730304518401
-0.000527347002551086,16.0744321558995
7.06331218950154e-05,16.0759277881787
0.000581884782192922,16.0775406424935
0.000984603111428771,16.0791917553642
0.0012964714776142,16.0808996501272
0.00153257971649746,16.0826831606232
0.00170697508617453,16.0845669520912
0.00183301529031694,16.0865849522286
0.00192387778981785,16.0887872727068
0.00199341238287163,16.0912557379423
0.00205812142125225,16.0941473135846
0.00214479007076674,16.0978798229931
0.00225371208737936,16.101696790537
0.0023995550044285,16.1058418294112
0.00255851099240695,16.1097423571503
0.00272715483105242,16.1135345161824
0.0029034446472664,16.1173017753562
0.0030865748322688,16.1210980304484
0.0032768985992601,16.1249637875536
0.00347572914754845,16.1289331425874
0.00368514561696328,16.1330373008852
0.00390784379182847,16.1373067744326
0.00414704629352533,16.1417728880041
0.0044065177069766,16.1464691393241
0.00469074861765622,16.1514326433267
0.00500537598457749,16.1567053733362
0.00534552714364236,16.1621396536195
0.00569536755113828,16.1674335073429
0.00606216196765375,16.1726624655102
0.00644676460674554,16.1777934310355
0.00685367891659559,16.1828418865246
0.00728714394891173,16.1878134353754
0.0077520311909239,16.1927157330498
0.00825349282953612,16.1975532298297
0.00879711752479823,16.2023282595838
0.00938898695994236,16.2070409339377
0.0100357959720617,16.2116897329542
0.0107485782918994,16.2162942851984
0.011550969684503,16.2209287829037
0.0124583072284995,16.2255863690832
0.013494043339386,16.2302845666823
0.0146917506466229,16.2350594989256
0.0161084679150871,16.2399989202971
0.0178707247130978,16.2453463416542
0.0203353188794841,16.2518265153907
0.0219627361735373,16.2557175775658
0.0236464841472094,16.259608639741
0.0251184700113582,16.2630569169092
0.0263614035205113,16.2661759865689
0.0273974641171128,16.2691515891736
0.028188577474277,16.2720038162381
0.028712591720974,16.2747599945181
0.0289634071018219,16.2775413650952
0.0289005389514666,16.2805179284317
0.0283718796367594,16.284120981085
0.0275685244076303,16.2871863277497
0.0264954328736695,16.2902516744145
0.0254164562058668,16.2928596541402
0.0243463955728152,16.2952128499269
0.0232753821389143,16.2974387514353
0.0222033666872897,16.2995948480306
0.0211334675120529,16.3017126240689
0.0200693973193759,16.3038124503706
0.0190148008527968,16.3059089633952
0.0179730815115657,16.3080134756389
0.016947360272377,16.3101352438675
0.0159404735096644,16.3122822150129
0.0149549852286148,16.3144614970861
0.0139931984372113,16.3166796881667
0.0130571681792067,16.3189431150304
0.0121487154462879,16.3212580158098
0.0112694320585116,16.3236307137163
0.0104206956230336,16.3260677497753
0.00960367772088306,16.3285760266816
0.00880940939148721,16.3311970222073
0.00802646499143656,16.3339927955543
0.00725860921942311,16.3369836273743
0.00650966905217666,16.3401936212753
0.00578371648801832,16.3436506732162
0.00508503552325031,16.34738720874
0.00441807122702926,16.3514410696055
0.0037873315119431,16.3558567577281
0.00319721430197821,16.3606874740831
0.00265174320669651,16.3659988477054
0.00215424647349028,16.3718757761977
0.00170714965600727,16.3784332489477
0.00132929916045045,16.3854652784227
0.00101810826047756,16.3930625335378
0.000821057077598126,16.3996837660397
0.000628952165015753,16.4083152460051
0.000480833181867647,16.4175069867286
0.000366888356526088,16.4275069867286
0.000288626293327148,16.4375069867286
0.000235778493065366,16.4475069867286
0.000200881303279303,16.4575069867286
0.000178567568949202,16.4675069867286
0.000165090487384064,16.4775069867286
0.000157900381784943,16.4875069867286
0.000155287700367312,16.4975069867286
0.00015611665359942,16.5075069867286
0.00015964442040396,16.5175069867286
0.000165404254661591,16.5275069867286
0.000173130710194833,16.5375069867286
0.000182711829620404,16.5475069867286
0.000194159575540668,16.5575069867286
0.000207593936935285,16.5675069867286
0.000223238488507929,16.5775069867286
0.000241426689539257,16.5875069867286
0.000262619588398721,16.5975069867286
0.000287437278934206,16.6075069867286
0.000316708821494657,16.6175069867286
0.000351548991243977,16.6275069867286
0.000393476257967493,16.6375069867286
0.000444596982138445,16.6475069867286
0.000504996179396791,16.6570877884687
0.000573982168632268,16.6659324000678
0.00065258577284406,16.6740858055289
0.000742102696345391,16.6816029147937
0.000844025406097695,16.6885349874453
0.000960050095359226,16.6949294649644
0.00109209876819351,16.7008302867432
0.0012423483738119,16.7062781782526
0.00141326604159575,16.7113108988154
0.00160764868827599,16.7159634746923
0.00182867147925288,16.7202684234519
0.0020799445456309,16.7242559694642
0.0023655841651322,16.7279542453488
0.00269029945040563,16.7313894944948
0.00305950533124883,16.7345862857643
0.00347947012003419,16.7375677433809
0.00395751393466881,16.740355802682
0.00450228771674005,16.7429715214395
0.00512417891341689,16.7454354842856
0.00583188398312682,16.7477562705173
0.00661573490538054,16.7498973199412
0.00748681584642353,16.7518963483307
0.00846244607825976,16.7537925537795
0.00957107758912303,16.7556305739896
0.0108677379862786,16.7574754687961
0.0125349901792477,16.7595146610746
0.014248181914847,16.7613513752135
0.0161323634196635,16.7631880893524
0.0177369793244676,16.7646781088033
0.0191175472600634,16.7659591098013
0.0203482494379178,16.7671485589617
0.0214437076963584,16.7683025947738
0.022394645062473,16.7694613448834
0.0231756502559816,16.7706676468833
0.0237383548960788,16.771986598666
0.0239742381700134,16.7735689050576
0.0236302149816048,16.7754789540078
0.0226895698374743,16.7773890029579
0.0216021788913436,16.7789223069712
0.020396750681184,16.7803586363879
0.0190653914382922,16.7818055982837
0.0176159259362536,16.783309143491
0.0160563097486383,16.7849058806402
0.0144265393976687,16.7866393802221
0.0126613990937573,16.788692252344
0.0105119860513022,16.7915251619281
0.0087556824891314,16.7942166127424
0.00734035019109089,16.7967334976373
0.00611949956925123,16.7992508016774
0.00504744874208842,16.8018254268229
0.00414942804801067,16.8043418310085
0.00340811706011475,16.8067554167691
0.00278447022259905,16.8091018133273
0.0022462545137556,16.8114336638367
0.00176297705473096,16.8138452855857
0.00128858389035183,16.8165980046462
0.000965418265896257,16.8187571796856
0.000678825591899178,16.8209163547251
0.000457036878512263,16.8227794415927
0.000274522499932047,16.8244619941023
0.000110609621844027,16.8261062705336
-4.61797994707581e-05,16.8278139888735
-0.000206584391878948,16.8297166373628
-0.000390938509247349,16.8321263042683
-0.000683574807329303,16.8365324827045
-0.00090812661549022,16.8405037191807
-0.00107914116256116,16.8439440291696
-0.00124471771167523,16.847678621143
-0.00143227452285153,16.8524950182737
-0.00161324845897845,16.858036131899
-0.00173302978067866,16.8628838572506
-0.00179572376390715,16.8672851698369
-0.00179435838547309,16.8712505882736
-0.00172207166855712,16.8748342104963
-0.00157224751241349,16.8780853725748
-0.00133799937341957,16.8810645600501
-0.00101086286757223,16.8838331599915
-0.000577396694218984,16.8864619124248
-1.09179231531739e-05,16.8890470776195
0.000744440059322487,16.8917302946402
0.00180562878990227,16.8947366110138
0.00318853201017327,16.8979607315941
0.00494080645218279,16.9014353111226
0.00611864093498918,16.9035055543627
0.00741912359776335,16.9055757976027
0.00877681863009759,16.9075106160631
0.0101618820254671,16.9092629117294
0.0116406966728741,16.9109124178081
0.0132637656840707,16.9124967690405
0.01504469280303,16.9140087960851
0.0170296202953001,16.9154682770993
0.0192373017956406,16.916869658889
0.0217061079408996,16.9182201696199
0.0244648417027258,16.91951927006
0.0275489901232071,16.9207690457225
0.0310016010550818,16.9219730068801
0.0348689076064959,16.9231337424609
0.0392028700553516,16.9242537737474
0.0440673817037171,16.9253366888939
0.0495372192909625,16.9263860540357
0.0556999802918971,16.9274053628193
0.0626603437952242,16.9283982838248
0.0705444554594301,16.9293686826294
0.0795067199593053,16.9303207725641
0.0897397702689769,16.9312593199747
0.101486835441932,16.932189727191
0.115063050708409,16.9331184411291
0.130889094995908,16.9340535228899
0.149549547692957,16.9350056683754
0.171660534566395,16.9359802309912
0.197265509147961,16.9369584187627
0.227036631647284,16.9379505891099
0.261879150594953,16.9389716882697
0.303162764459244,16.9400473507563
0.340670989776856,16.9409412982745
0.380253841131628,16.9418352457928
0.414896591255858,16.9426049211117
0.444961548284155,16.9432896773905
0.471262942590586,16.9439306656906
0.493956636091851,16.9445545847943
0.512744824580502,16.9451838328488
0.526846454864606,16.9458437593234
0.534618768420747,16.9465732975013
0.532851547091344,16.9473702787581
0.519563961129447,16.9481890015119
0.493388459626694,16.9490464645429
0.452500561673568,16.9499552556868
0.394848707432671,16.9509237991248
0.349013004796978,16.9515696228235
0.298183614013509,16.9522154465221
0.253113076184412,16.9527528993342
0.214702738430114,16.9531993944462
0.181084090666759,16.9535907127562
0.151037726470429,16.9539480423581
0.123839741474328,16.9542841790263
0.0990017486755607,16.9546082064705
0.0761340547397398,16.9549280184211
0.0548433361048131,16.9552525900377
0.0345457870325534,16.9555968467591
0.013525884354514,16.9560070026065
0.00172985027767423,16.9562724904839
-0.00569747862050195,16.9564578943007
-0.012487610520104,16.9566432981175
-0.0183956173629978,16.9568200682152
-0.0244376221460232,16.9570196216913
-0.0303419475378716,16.9572382180972
-0.0359186141118609,16.95747308911
-0.0410607262616842,16.9577230780678
-0.0457113181029866,16.9579880882416
-0.0498432987511385,16.9582687571147
-0.0534467478829416,16.9585662938556
-0.0567282936212036,16.9589078463882
-0.059204524835087,16.9592438010427
-0.0611713149279419,16.9596029420794
-0.0626460214178298,16.959989046873
-0.0636428693912773,16.9604063560302
-0.0641742963897602,16.9608601416071
-0.0642493502502791,16.9613570540246
-0.0638717050271977,16.961905649915
-0.0630350761593425,16.9625183468714
-0.0617187688655786,16.9632116887735
-0.0598796957721345,16.9640097401974
-0.0574298092124487,16.9649523355705
-0.0541612697600301,16.9661215634574
-0.0500598838942455,16.9675366712473
-0.0460719502396206,16.9689026267925
-0.0422549273803199,16.9702266979084
-0.0386380253344628,16.971511824668
-0.0352363082300273,16.9727591646999
-0.0320569179546065,16.9739689742042
-0.0291017765885639,16.9751410693308
-0.0263689799921535,16.9762750691456
-0.0238536718358808,16.977370522058
-0.0215486964191747,16.9784269675879
-0.0194451453047104,16.9794439602742
-0.0175328396196255,16.9804210700149
-0.0158007610551101,16.9813578666788
-0.0142116332552627,16.982269140646
-0.0126802118885564,16.9832035889468
-0.0112113904849508,16.9841625158434
-0.00980915995989015,16.9851479322384
-0.00847733421329408,16.9861621892283
-0.00721949529654641,16.9872080649393
-0.00603894233563258,16.9882888736707
-0.00493863815481149,16.9894086119359
-0.00392115364763998,16.9905721581874
-0.00298860955410938,16.9917855531024
-0.00214261473651861,16.9930564051117
-0.0013841990437539,16.9943944990203
-0.000713737016901379,16.9958127512908
-0.000130855027907199,16.997328796215
0.00036031543151127,16.9989475745285
0.000746427869235733,17.000607976645
0.00104458021304454,17.0023283555628
0.00126964694696889,17.0041284589393
0.00143551748567804,17.0060343482362
0.0015554734065582,17.0080822995399
0.00164273742527334,17.0103267579357
0.00171144304456578,17.0128587854557
0.0017790630895595,17.0158606938203
0.00186956730936646,17.0195960790694
0.00198536015601703,17.0234755977626
0.00212548143368086,17.0273584485969
0.00228114438596136,17.0311502963707
0.00244866978655725,17.0349250384631
0.00262545391057068,17.0387344799368
0.00281023571389771,17.0426182196663
0.00300302117553753,17.0466099691811
0.00320487993844506,17.0507409225998
0.003417726662285,17.0550418109097
0.0036441398539908,17.0595443998439
0.00388727541683278,17.06428287168
0.00415094745599272,17.0692952974305
0.00443994639452005,17.0746249501584
0.00475912469394982,17.080294141814
0.00508070109515224,17.0857479488156
0.00541594372423532,17.0911455636335
0.00576382029505409,17.0964225411157
0.00612900437106984,17.1016069767247
0.00651500437049884,17.1067042354353
0.00692604093111854,17.1117258087847
0.00736636895775172,17.1166783801879
0.00784054925335407,17.1215665983036
0.00835349705406777,17.1263926887707
0.00891062169089687,17.1311571101258
0.00951792957724111,17.1358588038834
0.0101821312114679,17.1404955796427
0.0109182006070483,17.1451090262959
0.011747249620307,17.149749194066
0.0126864366116194,17.1544156235769
0.0137610899846474,17.1591288814901
0.0150089386392159,17.1639341785244
0.0164975664629754,17.1689428848789
0.0183934685191179,17.1744882972858
0.0208635683040577,17.1807924303355
0.0224414069121054,17.1845071450732
0.0240516932238993,17.1882218598109
0.0254566903502844,17.1915547659058
0.0266442309501756,17.1946205862142
0.0276250671216903,17.1975819084254
0.0283442859116677,17.200398127813
0.0287967813488934,17.2031488561193
0.0289697290420597,17.2059624338495
0.0288065550851131,17.2090413240376
0.028062968637026,17.2130539447338
0.0272197995121939,17.2158865372566
0.0261640568116861,17.2187191297794
0.0250932239186908,17.2212241098316
0.0240237656249482,17.2235314248379
0.0229523152352577,17.2257334107466
0.0218805107136058,17.2278766938773
0.0208117988969587,17.2299885970399
0.0197499094483545,17.2320874725498
0.0186984248840335,17.2341868373466
0.0176606644436781,17.2362973444588
0.0166396613875346,17.2384278565685
0.0156381662105775,17.2405860968258
0.0146586593918568,17.2427790716192
0.0137033657139758,17.2450133663266
0.0127742637582789,17.2472953774128
0.0118731020810839,17.2496314837423
0.0110014051572375,17.2520282169889
0.0101604838332837,17.2544924111126
0.00935145159637956,17.257031332566
0.00856034048571797,17.2597051419477
0.00778168259576449,17.2625597641605
0.00701924339892867,17.2656166741494
0.00627692173779105,17.2689011257886
0.00555885456450819,17.2724423850171
0.00486937510404736,17.2762745332002
0.0042129555010532,17.2804374196669
0.00359409021172376,17.2849780783003
0.00301708799142046,17.2899532275438
0.00248579357923947,17.2954337109258
0.00200326143607832,17.3015126959063
0.00157778924606751,17.3082085069354
0.00130358147911067,17.3135441293005
0.00108766551407338,17.3188797516657
0.000856792207068547,17.3263628026892
0.000666210432851711,17.3346564177641
0.000512262718117439,17.3437876459112
0.000393088756555528,17.3537876459112
0.000311521188222299,17.3637876459112
0.000256643764927448,17.3737876459112
0.000220507215929423,17.3837876459112
0.000197444760588752,17.3937876459112
0.000183536365626839,17.4037876459112
0.000176127322729935,17.4137876459112
0.000173437806754224,17.4237876459112
0.000174282105742534,17.4337876459112
0.000177882207150796,17.4437876459112
0.000183747981608459,17.4537876459112
0.000191600126030983,17.4637876459112
0.000201320530003376,17.4737876459112
0.000212921571316044,17.4837876459112
0.000226529910737563,17.4937876459112
0.000242382621178822,17.5037876459112
0.000260835051180218,17.5137876459112
0.000282381381255693,17.5237876459112
0.00030769081139088,17.5337876459112
0.000337665172057608,17.5437876459112
0.000373528249049519,17.5537876459112
0.000416964720489558,17.5637876459112
0.000469657720579317,17.5736704997791
0.000529950561237901,17.5828153007535
0.000598688636408478,17.5912543870835
0.000677004182603222,17.5990418306237
0.000766213024131983,17.6062287176018
0.000867813489222531,17.6128624904638
0.000983502503425863,17.6189872037599
0.00111520009485021,17.6246437797498
0.00126507896466896,17.6298702352103
0.00143559851925231,17.6347018887998
0.0016295438466147,17.6391715596513
0.0018500724010196,17.6433097591786
0.00210076943153348,17.6471448742392
0.0023857155576977,17.6507033451646
0.00270957122489415,17.6540098470965
0.00307768339715062,17.6570874791478
0.00349622501360437,17.6599579646358
0.00397238092878057,17.6626418751246
0.00451460492832923,17.6651588972315
0.00513298877199258,17.6675281698744
0.00583717731682218,17.6697611210567
0.00661546189081855,17.6718160248376
0.00747745786067471,17.6737274689483
0.00843786109062914,17.6755304162464
0.00951952908961934,17.6772620170076
0.0107628296355241,17.678970094865
0.0122853289360443,17.6807711119812
0.014512106648561,17.683025297088
0.016119455318173,17.6844751198347
0.0178271844436324,17.6859249425814
0.0193906979639357,17.6872215796349
0.0207811241500257,17.6883948242713
0.0220280481688919,17.68951087553
0.0231328039025262,17.6906130692308
0.0240783456971572,17.691739922836
0.0248292335773623,17.6929405558127
0.0253150126703327,17.6943054705033
0.0253288081333361,17.6961318521733
0.0247664596222594,17.6977680944255
0.0237610166910628,17.6994043366778
0.0226131817795011,17.7008321284405
0.0213237610146117,17.7022298040952
0.0198964417795867,17.7036645876532
0.0183403333795457,17.7051757902714
0.0171112181272194,17.7063636979193
0.0159119615958481,17.7075516055672
0.0147102157071328,17.7088088849662
0.0122491737652217,17.7116567792873
0.0101070315487838,17.714540673998
0.00842036991030242,17.7171929415219
0.00705936132792557,17.7196790935617
0.00587292047607004,17.7221956362832
0.00483103449141662,17.7247751051796
0.00391392121285755,17.7274411086783
0.00310583722002434,17.7302168413666
0.00240085886991698,17.7330945479704
0.00184009001084218,17.7358046865761
0.00138301147826674,17.7383891597022
0.000999868614283316,17.7408992845301
0.000671581737163687,17.7433720592392
0.000386869968859251,17.7458206335405
0.000137563503250143,17.7482513265113
-8.63909713841639e-05,17.7507105529133
-0.000300614180629977,17.7533518191115
-0.000491800021817077,17.7559843941125
-0.000624936789217622,17.7579883516603
-0.00074908096034577,17.759992309208
-0.000852982104124175,17.7617738947654
-0.000945940352642704,17.7634499140602
-0.00103524585192706,17.7651330698964
-0.00112673405450151,17.766930376204
-0.00122891420328466,17.7690222007705
-0.00136955464029077,17.7720383332509
-0.00153434735245405,17.7757554979833
-0.00166643719822201,17.778864452431
-0.00179176526699703,17.7819147557239
-0.00193019827939166,17.7854032024704
-0.00209687477006152,17.7898163887
-0.00228820135571965,17.7954423730075
-0.0024162475439576,17.8003295071867
-0.00247484417993486,17.8047093942573
-0.00245267787620616,17.808627110386
-0.00234169112256312,17.8121721330685
-0.00213430611107983,17.8154329963497
-0.00182430072591648,17.8184608522395
-0.00140801678243617,17.8212859125087
-0.000879249242891335,17.8239538801634
-0.000221090726170661,17.8265364024017
0.000609165544904525,17.8291490140382
0.00171889782856168,17.8320051907375
0.00317515546820758,17.8351309908122
0.00498016102840256,17.8384423739351
0.00634523433607041,17.8406649240624
0.00785472629005977,17.8428874741898
0.00934011183871906,17.8448487136048
0.010843196619113,17.8466192529452
0.0124277576905655,17.8482734900378
0.0141401375692029,17.8498462449399
0.0160141995376343,17.8513507985736
0.0180895565180386,17.8527996346917
0.0203927495204391,17.8541924089529
0.0229605180723169,17.8555340146194
0.025828018820361,17.8568263267332
0.0290293584452044,17.8580697360002
0.032612298138458,17.8592686657147
0.0366263456865865,17.8604257632767
0.0411272722191576,17.8615436172214
0.0461834885788482,17.862625854509
0.0518755844831747,17.8636761655517
0.0582984552313092,17.8646982041807
0.065566408008342,17.8656958789796
0.0738187594821092,17.8666734167605
0.0832277409290037,17.8676354851711
0.0940127519328067,17.8685876201549
0.106456960951425,17.8695363262586
0.120938844958111,17.8704897727966
0.137986239812771,17.8714588769329
0.158300964297443,17.8724558079046
0.181828719788627,17.87345547382
0.209193893420362,17.8744686827522
0.241239742906271,17.8755108368416
0.279216437657948,17.8766069271338
0.323029048591237,17.8777496012307
0.363249184468538,17.8787332866946
0.396975131290292,17.8795435524709
0.426211748056399,17.8802629315841
0.451768509157657,17.8809347816319
0.473761441834806,17.8815855262182
0.491900140164056,17.8822368405038
0.505466492482998,17.8829119062243
0.513032821076666,17.8836429405433
0.511748063814371,17.8844579233356
0.499366578559747,17.8852881886128
0.474647581933061,17.8861495334841
0.435981150796798,17.8870536448875
0.38156851867861,17.8880094246555
0.338193067750638,17.8886466656164
0.290032087513772,17.8892839065774
0.246973668586674,17.8898180456708
0.209969762889377,17.8902650008896
0.177400967680329,17.8906584854539
0.148190381062438,17.8910187121832
0.121686579843375,17.8913580807654
0.0974427060044286,17.8916854978957
0.0750971600623097,17.892008755725
0.0542810094351361,17.8923367212956
0.0344453700499996,17.8926840295086
0.0140099850266087,17.8930948301273
0.00175130602996844,17.8933794684342
-0.00558423984183736,17.8935690655768
-0.0122859624432225,17.8937586627193
-0.0181211342192184,17.8939397007635
-0.0240795947302937,17.89414395466
-0.029886779269153,17.8943673301816
-0.0353605462561541,17.8946070949922
-0.0403991880176791,17.8948621399152
-0.044948901991751,17.8951324131104
-0.0489844648478696,17.8954185955868
-0.0526528538856674,17.8957379861922
-0.0555724219453866,17.8960585390966
-0.0579759922232685,17.8963999135481
-0.059878840119336,17.8967651761493
-0.0612950631334054,17.8971578035392
-0.0622384507326501,17.8975820798029
-0.0627209998508681,17.8980433295946
-0.0627513226125797,17.8985482610549
-0.0623327048207371,17.8991054929364
-0.0614582529856093,17.8997276843473
-0.0601071597901516,17.9004313670344
-0.0582365584059777,17.9012407069909
-0.0557593402109473,17.9021956443612
-0.0524706486308166,17.9033782832783
-0.0484268125749891,17.9047845891024
-0.0445041722723343,17.9061416377042
-0.0407574465579926,17.907456142809
-0.0372136255518648,17.9087311092886
-0.0338863144021584,17.9099677657319
-0.0307815115021334,17.9111664378129
-0.0279001729626212,17.9123270066387
-0.0252395695963622,17.9134491497735
-0.0227941548934711,17.9145324662907
-0.0205562183049288,17.9155765373309
-0.0185164305452564,17.916580948818
-0.0166643205883091,17.9175452905779
-0.0149886974699107,17.9184691396553
-0.0134184301481034,17.9193879702134
-0.0119075492762185,17.9203303156217
-0.0104605708450043,17.9212977530084
-0.00908143663139185,17.9222923976253
-0.00777389205557378,17.9233167310814
-0.00654143347147113,17.9243736941339
-0.00538725639942702,17.9254668064899
-0.00431420146798016,17.9266003281684
-0.00332469798669145,17.9277794819252
-0.00242070465343875,17.929010768322
-0.00160364619657647,17.9303024266966
-0.000874343528447902,17.9316651364412
-0.000232932667568358,17.933113136452
0.000321237073731887,17.9346661245116
0.000776146104341115,17.9362966815
0.00113189530920192,17.9379747442158
0.0014047001707227,17.9397186331709
0.00160909999175666,17.9415498549215
0.00175876425900749,17.9434972179628
0.00186692076580602,17.9456017100258
0.00194700565889289,17.947926740701
0.00201393785797982,17.9505834895065
0.00208782179954686,17.9538153794565
0.00218597006054502,17.9575557578399
0.00231274546657898,17.9614546020541
0.00245949658852057,17.9652518164289
0.00262276004864331,17.9690229968281
0.00279911780069872,17.9728223955381
0.00298627230641508,17.9766908007143
0.00318333070765938,17.9806624473205
0.00339071976756891,17.9847686648232
0.00360998784192801,17.9890400640972
0.00384360197666783,17.9935080854356
0.00409481390953188,17.9982063398764
0.00436768498921946,18.0031720640278
0.00466735126936475,18.0084474102142
0.00499653802597139,18.014012133382
0.00533048031529694,18.0193890524653
0.00567949801226228,18.0247115060566
0.00604302498557572,18.0299237025726
0.0064257044101493,18.0350485210218
0.00683131592151002,18.040090833714
0.00726436429180618,18.0450605057025
0.00772948638173399,18.0499632898865
0.00823168328599944,18.0548029334996
0.00877636361424629,18.0595807956299
0.00936947193431938,18.0642964315855
0.0100176002344229,18.0689480138321
0.0107313578186973,18.0735528487911
0.0115347361743382,18.0781879394591
0.0124429384608567,18.0828458575079
0.0134793896661339,18.0875442023147
0.0146776118147854,18.092319050897
0.0160945526996658,18.0972579988568
0.0178564363997181,18.1026038686356
0.0203219546126303,18.1090864469126
0.0219504429960414,18.1129798402529
0.0236354556829314,18.1168732335932
0.0251083908441959,18.1203228093159
0.0263521067382654,18.1234425288192
0.0273889379178408,18.1264183986188
0.0281810495186477,18.1292713193573
0.0287060268082645,18.1320278752598
0.0289578424471073,18.1348092545029
0.0288961658012867,18.1377852054012
0.0283695849829832,18.1413853593585
0.0275667561355839,18.1444537245637
0.0264936705306742,18.1475220897688
0.0254148384224972,18.1501315034075
0.0243449229224968,18.1524855430578
0.0232739960790096,18.1547121149684
0.0222020020923026,18.1568688313133
0.0211320615745356,18.1589872289101
0.0200678893761049,18.1610877123665
0.0190131315131536,18.1631849456521
0.0179711915527161,18.1652902680375
0.0169451900136198,18.1674129643671
0.0159379622240128,18.1695610130458
0.0149520706873472,18.1717415585732
0.013989816877574,18.1739612414726
0.0130532539034929,18.176226439776
0.0121442013621186,18.1785434517686
0.0112642496027724,18.1809186738582
0.0104147751045004,18.1833587356121
0.00959694924098879,18.1858706459028
0.00880274490561735,18.1884928046464
0.00801985982803481,18.1912899220624
0.00725206949173672,18.1942822692419
0.00650319975294875,18.1974939843991
0.00577732118990417,18.2009530068467
0.00507871623240779,18.2046918156755
0.00441182818032829,18.2087483190098
0.00378116326532123,18.2131670985152
0.00319111748063526,18.2180014523852
0.00264571220937589,18.2233171269783
0.0021482722107419,18.2291991703763
0.00170130936024348,18.2357612620083
0.00132361368615072,18.2427970556554
0.00101769545819943,18.2503986697572
0.000773319318241573,18.2589810740223
0.000607470573097247,18.2669989036568
0.00046371766419512,18.2764477334712
0.000356882931174191,18.2864477334712
0.000283736654168515,18.2964477334712
0.00023455198249657,18.3064477334712
0.000202227323755407,18.3164477334712
0.000181688292059525,18.3264477334712
0.000169421299798731,18.3364477334712
0.000163048274236625,18.3464477334712
0.000160977891319069,18.3564477334712
0.00016215343079148,18.3664477334712
0.00016588519832522,18.3764477334712
0.000171743027187415,18.3864477334712
0.000179487376450246,18.3964477334712
0.000189025137423508,18.4064477334712
0.000200382477550065,18.4164477334712
0.000213690759860037,18.4264477334712
0.00022918362873346,18.4364477334712
0.000247204753688902,18.4464477334712
0.000268227109466115,18.4564477334712
0.000292886425770205,18.4664477334712
0.000322033954825007,18.4764477334712
0.000356817633286611,18.4864477334712
0.000398807292025424,18.4964477334712
0.000450191204003296,18.5064477334712
0.000509777384877961,18.5158313039626
0.000577780233112501,18.5244917903206
0.000655275379327797,18.5324800551245
0.000743554554109746,18.5398490783185
0.000844096409588763,18.5466481597208
0.000958578286511502,18.5529230112306
0.00108889942286118,18.5587160395898
0.0012372099248245,18.5640666000273
0.00140594498443821,18.5690112209838
0.0015978633020156,18.5735838181856
0.00181609401471896,18.5778159006808
0.00206419136240506,18.5817367677242
0.00234620263950775,18.5853736961496
0.0026667516627714,18.5887521299822
0.00303114540261137,18.5918958790229
0.00344551325228468,18.5948273288292
0.00391699237602077,18.5975676738734
0.00445398515272817,18.6001371960397
0.00506652920122886,18.6025556178123
0.00576592470867377,18.6048398217766
0.0065394604176316,18.6069420082077
0.0073969157544696,18.6088979299356
0.0083533844351893,18.6107440435886
0.0094325973082845,18.6125195238606
0.0106772018974266,18.6142759032043
0.0122088758136237,18.6161362713432
0.0145105499603918,18.6185255413136
0.0160673404160781,18.619970025863
0.0177098967280336,18.6214145104124
0.0192065990598242,18.6227091193312
0.0205410496801507,18.6238913906031
0.0217358599184737,18.6250226682323
0.0227888188974078,18.6261450080277
0.0236805528918813,18.6272978482333
0.0243725468791849,18.6285339414301
0.024786501368756,18.629956119275
0.0246628356039929,18.6319510569873
0.0240309568377277,18.6335319896195
0.0230213390276536,18.6351129222517
0.0218673049496092,18.6365418693282
0.0205743500741275,18.6379545616172
0.0191499390409691,18.6394083737054
0.0176034563793986,18.6409411303557
0.0166381589903547,18.6418955918267
0.0156930757228599,18.6428500532976
0.0145014267353088,18.6441153057374
0.0121027798218513,18.6469295006385
0.0100003860563297,18.6497935801878
0.00833753027423952,18.6524359070516
0.00698729307148285,18.6549266749717
0.00580906403697558,18.6574500651477
0.004773805525191,18.6600379080219
0.00386211755856057,18.6627137932634
0.0030769480904788,18.6654314654053
0.00244642853287186,18.6679948769231
0.0019309895256842,18.6704312648796
0.00150017304899381,18.6727780330051
0.00113086383517111,18.6750805013634
0.000804756530074004,18.6773972539899
0.000504548463863253,18.6798254825211
0.000201761368104472,18.682634185126
-4.53799621316193e-06,18.68480165353
-0.000190805555562689,18.686969121934
-0.000337795099096161,18.6888407729436
-0.000460764451904127,18.6905282802787
-0.000572934364348591,18.6921727804105
-0.000682003646155358,18.6938749233495
-0.000795583662014129,18.6957620436858
-0.000928453063658924,18.6981258304488
-0.00115501722086913,18.7025621149107
-0.00134051044253085,18.7065914876291
-0.00148719101066765,18.710039006863
-0.00163457407844115,18.7137460778116
-0.00180889608624683,18.7184924365272
-0.00199007660608257,18.7240948750303
-0.00211215383655829,18.7289621056035
-0.00217367634253621,18.7333618941731
-0.00216401669679813,18.7373056235275
-0.00207506453226098,18.7408536302952
-0.00190043925112014,18.744066875565
-0.00163369003359189,18.7470168051025
-0.00126629424398203,18.7497717599617
-0.000784987279399424,18.7523995359476
-0.000164392878209952,18.7549856123014
0.000647119229082949,18.7576528147209
0.00177921415672558,18.7606528009682
0.00323065365653105,18.7638430745272
0.00504802170267925,18.7672619643152
0.00629174583514106,18.7693453128444
0.00766070534829279,18.7714286613736
0.00907650599451272,18.7733643214921
0.010523717835151,18.7751268381735
0.0120499774101693,18.776770510835
0.013723366747848,18.7783522014993
0.0155492428216684,18.7798569076824
0.0175799996592997,18.7813093716688
0.0198351553793213,18.7827042196726
0.0223542607205859,18.7840486995248
0.025168943062764,18.785343132664
0.028312936756116,18.7865882383627
0.0318320366512519,18.7877881977194
0.0357740334719355,18.7889456165067
0.0401933330400642,18.7900631940041
0.0451546591422269,18.7911441979628
0.0507360327806448,18.7921923939741
0.057028409996203,18.7932113402568
0.0641408088326106,18.7942047961601
0.0722054467243576,18.7951767929173
0.0813840978439353,18.7961316655762
0.0918809196490636,18.7970744903334
0.103955699731454,18.798011078884
0.117949045141942,18.7989485051162
0.134323207285897,18.7998958455306
0.153735726977209,18.8008655485493
0.176501662464254,18.801848724652
0.202906331709515,18.8028392244238
0.233684971507156,18.8038491377615
0.269860185535469,18.8048966410099
0.313094027086274,18.8060155101563
0.348485523147972,18.8068626275012
0.385300203185454,18.807709744846
0.417999910871491,18.8084596021759
0.446581948210313,18.8091396931183
0.471528472422491,18.8097837553208
0.492833662829824,18.8104161330044
0.510076389445643,18.81105901286
0.522311971356252,18.8117391828209
0.52756447100796,18.8125002532264
0.522618743665783,18.8133077745259
0.505953337776052,18.8141400524027
0.476106160743723,18.8150124663087
0.431242061036461,18.8159358418818
0.369380630941708,18.8169189005728
0.326315891629924,18.8175050504817
0.279548093092067,18.8180912003905
0.237777067277556,18.818590066335
0.201611307380228,18.8190152105638
0.169627471002087,18.8193942772524
0.140868878125598,18.8197444543662
0.11473379313505,18.8200768113567
0.0907913334686512,18.8203997530369
0.0686720635261529,18.8207212042145
0.0479599145082458,18.8210512297224
0.0279162803672123,18.8214094734831
0.00967487374767037,18.8217849716661
0.000596967147695936,18.8219970733539
-0.00763305207503821,18.8222091750417
-0.01416275488066,18.822394562931
-0.0201265721969134,18.8225806601524
-0.0261222120059584,18.8227882827902
-0.0319047405392076,18.8230138836338
-0.0373174892137883,18.8232552967563
-0.042273731798967,18.8235117639484
-0.046728517907285,18.8237834603752
-0.0506620229194964,18.8240712303667
-0.0540722854075525,18.824377515637
-0.0569113181494277,18.8246992024947
-0.0592354599455314,18.8250423361488
-0.0610586031727606,18.8254099091284
-0.0623951365955127,18.8258055489987
-0.0632588244311848,18.8262337384216
-0.0636612794419787,18.826700068954
-0.0636102896237917,18.8272116207412
-0.0631076669475155,18.8277775852189
-0.0621435207864099,18.8284116881066
-0.0606928552133948,18.8291317294971
-0.0587046682515216,18.8299646195477
-0.0560730346446823,18.8309566852666
-0.0525290699624842,18.8322120555315
-0.0484709784777887,18.8336106051531
-0.0445442794534628,18.8349630018756
-0.0407988265955779,18.8362742224215
-0.0372588784069901,18.8375466853311
-0.0339367625501683,18.8387813003338
-0.0308378163992801,18.8399782124935
-0.0279626213561164,18.8411371974402
-0.0253082194318601,18.8422578693364
-0.0228689167128366,18.8433397880663
-0.0206369048128875,18.8443825097937
-0.0186027894785973,18.8453856038746
-0.0167560580693508,18.8463486484863
-0.0150854954631631,18.8472712117628
-0.0135170122328112,18.8481906048298
-0.0120080826261051,18.8491335512669
-0.0105631873699662,18.8501016509438
-0.0091862624393546,18.8510970271491
-0.00788104662425232,18.8521221720567
-0.00665102894883238,18.8531800400254
-0.00549939682940452,18.854274168342
-0.00442898198400007,18.8554088399614
-0.00344220402754127,18.8565893080023
-0.00254101124828596,18.8578221140221
-0.00172681737808931,18.8591155541524
-0.00100043194962947,18.8604803891006
-0.000361979529884299,18.8619309792531
0.000189201634430419,18.8634872143841
0.000640450376891781,18.8651187524747
0.000992987251487659,18.8667983195353
0.00126293978574434,18.868544240665
0.00146479879193543,18.8703781821219
0.00161218843265765,18.8723292072136
0.00171829354416304,18.8744387488558
0.00179650877282588,18.8767710845798
0.00186171797945803,18.8794394183234
0.00193405382067604,18.8826938072062
0.00203003458153568,18.8864359673553
0.00215708747647579,18.8904155110181
0.00230258109003174,18.8942461098534
0.00246283957380954,18.8980210220525
0.00263452306552067,18.9018039764367
0.00281547030226925,18.9056402224784
0.0030048847432334,18.9095661534385
0.00320320243201729,18.9136140205926
0.00341187797896567,18.9178145554975
0.00363317815897649,18.9221987454896
0.0038700307944288,18.9267991930537
0.00412600414697209,18.9316515617529
0.0044054856148389,18.9367959562702
0.00471415241757891,18.9422782797091
0.00503845245887104,18.9477924897946
0.00537216687451695,18.9531873376525
0.00571945609677592,18.9584894403077
0.00608266938485633,18.9636897607884
0.00646584775532915,18.9688019919725
0.00687303428445954,18.9738351389507
0.00730859181143929,18.9787974819206
0.00777710682927388,18.9836943211855
0.00828351180928139,18.9885286030525
0.00883318815523564,18.9933012010097
0.00943208507819894,18.9980113535928
0.0100868294105517,19.0026570594881
0.0108097898756066,19.0072656163868
0.0116237856966838,19.0119028959037
0.0125448137658979,19.0165643505882
0.0135970583204436,19.0212687346615
0.0148157096974732,19.0260557465174
0.0162618464317934,19.0310222195371
0.0180766392545207,19.036444570114
0.0205444310631495,19.0428518466888
0.0221478181122488,19.0466596513669
0.0237976008106272,19.050467456045
0.025243235165089,19.0538683096804
0.0264651996939301,19.0569658167756
0.027480671938217,19.0599350173184
0.028244897296641,19.0627729054184
0.0287423397902385,19.0655262244159
0.028964497772131,19.0683184314947
0.0288654377852192,19.0713300653672
0.0282657810495804,19.0750619302026
0.0274483626205391,19.0780380192343
0.0263834392317332,19.0810141082661
0.0253081892243742,19.0835848966296
0.0242385826289985,19.0859224853499
0.0231674787773289,19.0881405976194
0.0220955062799479,19.0902927438695
0.0210259158042652,19.0924089589598
0.0199624319150838,19.0945089335155
0.0189086808215493,19.0966069383982
0.0178680381560626,19.0987140814252
0.0168435952318415,19.1008395078475
0.0158381587304175,19.1029911148932
0.0148542632694417,19.1051760072581
0.0138941843807516,19.1074008149143
0.0129599496071569,19.1096719328271
0.0120533546087719,19.1119956983538
0.0111759673598084,19.1143785686136
0.0103291417565926,19.1168272614991
0.00951403005800775,19.119348894113
0.00872084595951212,19.1219882734516
0.00793935429117766,19.1248045719449
0.00717333000518307,19.1278184512785
0.00642662275974634,19.1310544240828
0.00570332524914056,19.1345408738825
0.00500773657921798,19.1383108194232
0.00434431004344856,19.1424028219243
0.00371754909977576,19.1468622851897
0.00313182316513239,19.1517436405255
0.0025910979324605,19.1571143052218
0.0020986094244953,19.1630619883896
0.00165891846308628,19.1696681992274
0.00128772675423767,19.176756520454
0.000985253061386746,19.1846587520178
0.000792866990654187,19.1915908868629
0.000608716182256196,19.2004029429678
0.000470150100828418,19.2095460122739
0.000363174743083149,19.2195460122739
0.000290154779987663,19.2295460122739
0.000241235786821007,19.2395460122739
0.000209234282848016,19.2495460122739
0.000189046790768259,19.2595460122739
0.000177157576412595,19.2695460122739
0.000171193803548361,19.2795460122739
0.000169569476869127,19.2895460122739
0.000171232929823005,19.2995460122739
0.000175500779400274,19.3095460122739
0.000181951722742923,19.3195460122739
0.000190358471702402,19.3295460122739
0.000200644319232061,19.3395460122739
0.000212857039440498,19.3495460122739
0.000227156415670989,19.3595460122739
0.000243813726078818,19.3695460122739
0.000263223025433668,19.3795460122739
0.00028592567859796,19.3895460122739
0.000312651747544956,19.3995460122739
0.000344385018854457,19.4095460122739
0.000382463584648007,19.4195460122739
0.0004287366945983,19.4295460122739
0.000484091131007249,19.4392697157865
0.000547374262184278,19.4482588082408
0.000619506087924786,19.4565517917582
0.000701677462649594,19.4642026579532
0.000795265519668795,19.4712621463852
0.000901836462750895,19.4777773322473
0.00102316422673797,19.4837918988818
0.00116125658935635,19.4893463991579
0.00131838654509511,19.4944784855695
0.00149712802257332,19.4992231232134
0.00170039783756561,19.5036127940034
0.00193150536852879,19.5076776935767
0.00219421290038014,19.5114459182082
0.00249280877755793,19.5149436484338
0.00283220046284431,19.5181953384002
0.00321803302249848,19.5212239147848
0.00365684537089549,19.5240509903237
0.00415628226209174,19.5266971090421
0.00472539154675979,19.5291820461146
0.00537505915055848,19.5315251990443
0.00610575648167057,19.5337108987564
0.00691413911027726,19.5357308492082
0.00781180511403375,19.5376203981877
0.00881650256405924,19.5394157789412
0.0099573427945054,19.5411585438721
0.0112904719457173,19.5429095731627
0.0130256646035061,19.5448701774874
0.0148149832084258,19.546641519323
0.0167841722248007,19.5484128611585
0.0184623079750728,19.5498498940133
0.0199078201151482,19.5510859177309
0.0211987592754823,19.552234627014
0.0223507445972827,19.5533504482516
0.0233544693760791,19.5544725654645
0.0241838542733604,19.555643263419
0.0247888669662593,19.5569276832099
0.0250556732235286,19.5584799463616
0.024722060702694,19.5603324887778
0.0237767983486807,19.562185031194
0.0226732355464944,19.563679139295
0.0214404070270137,19.5650868005841
0.0200713852750933,19.5665111366513
0.0185740728186387,19.5679973910786
0.0169559290985816,19.5695828492981
0.0152479398121314,19.5713130436453
0.0138998948578833,19.5727815272404
0.0115100799180626,19.5756868875441
0.00953165349187299,19.5784909388755
0.00796270802540214,19.5810822677276
0.00666158177899904,19.5835770066669
0.00552376481892225,19.5861136259585
0.00452337760275544,19.5887210430543
0.00364220180054166,19.5914225485295
0.00286547149902169,19.5942416678706
0.00223994875764927,19.5969256245609
0.00173344374433247,19.5994679211896
0.00131312570137397,19.601910950247
0.000955396366986414,19.6042993598649
0.000643568607834281,19.6066763506004
0.000365040580364941,19.6090900520106
0.00010643131311471,19.611633639719
-0.000161959708182882,19.6146501836188
-0.000327406196516238,19.6167365197566
-0.000479088455284507,19.6188228558943
-0.00060374706905395,19.6206735718651
-0.000711106800501148,19.6223726833937
-0.000811093196759314,19.6240468422866
-0.000910325240739111,19.6257986268454
-0.00101636193389163,19.6277717325267
-0.00114678339128224,19.6303424380636
-0.00135618507826095,19.6347934396455
-0.00152209355276921,19.6385949558132
-0.00166018834237104,19.6419402123575
-0.00180534149561142,19.6456411909025
-0.00197960638027765,19.6503940701781
-0.00215822354494821,19.6559297247356
-0.00227461860273024,19.6607415078494
-0.0023242143997117,19.6650754958145
-0.00229595429385358,19.6689555495213
-0.00218209465645277,19.6724532355703
-0.00197628730096942,19.6756428191017
-0.00167157393275918,19.6785970060593
-0.00126010942425783,19.6813711987317
-0.000730679226920968,19.6840194065537
-5.93863584284791e-05,19.6866213350517
0.000802799434121043,19.689290944376
0.00200156704059282,19.6923123553842
0.00351665104980232,19.6954973873911
0.00537873461609696,19.6988534088631
0.00666758550202454,19.70091826628
0.00808964988738572,19.702983123697
0.00953692187114954,19.7048676924011
0.011062711738702,19.7066356448347
0.012648426627689,19.7082584378228
0.0143863462418755,19.709819716963
0.0162878654989259,19.7113097102488
0.0183994655587305,19.7127463484075
0.0207460865464482,19.7141277123044
0.0233634728824431,19.7154578895184
0.0262879318607853,19.716739238057
0.0295537992441855,19.7179720862696
0.0332096804426847,19.7191608720437
0.0373063640717017,19.7203083511074
0.0419027313772285,19.7214175495858
0.0470657148180297,19.7224913179714
0.0528792790189173,19.7235336865684
0.0594410077922796,19.7245483315359
0.0668684743979558,19.725539166358
0.0753053185632666,19.7265104485449
0.0849291901278508,19.7274668641695
0.095965924986377,19.7284139156958
0.108708169246402,19.7293581605611
0.123547218617877,19.7303078177131
0.141029361057518,19.7312738827939
0.161817502428802,19.7322657784151
0.185895694793816,19.7332609113034
0.213903958803195,19.7342700906681
0.246707001395391,19.7353087679332
0.285595956529948,19.7364024028582
0.330432730345991,19.7375434072352
0.370454026577669,19.7385016003104
0.40397354026757,19.7392930749813
0.43305092979484,19.7399989992039
0.458456093405191,19.7406609715422
0.480274401087592,19.7413048099735
0.498178874252351,19.7419522955487
0.511387999502758,19.7426275846353
0.518326994568416,19.7433658978958
0.515987034192346,19.7441775292361
0.502358298894708,19.7450074414035
0.476133639335994,19.7458713790916
0.43563052717605,19.7467808167762
0.378987739500426,19.747744522606
0.335541484445281,19.7483672382114
0.287621584245567,19.7489899538167
0.244815465879198,19.7495139847342
0.207965006899162,19.749954632481
0.175496021319914,19.7503438749034
0.14635976807174,19.7507010681935
0.119915516321533,19.7510382366671
0.0957190275333637,19.7513641400901
0.0734057266160506,19.7516865895266
0.0525944997524944,19.7520147290625
0.032692666803529,19.752364316902
0.0118244422081585,19.7527873675906
0.00136330887632155,19.7530314293709
-0.00594419867154357,19.7532195629151
-0.0126215004422929,19.7534076964593
-0.0184883608668484,19.7535890101797
-0.0244657117241952,19.7537932381857
-0.0302826214639658,19.7540163734883
-0.0357603903822734,19.7542557775299
-0.0407992946276472,19.7545103967852
-0.0453466867281806,19.754780213101
-0.0493780540002136,19.7550659298697
-0.0529321347968081,19.7553741235152
-0.0558634400600515,19.7556934083844
-0.05827889023294,19.7560336062421
-0.0601923820186514,19.7563976382279
-0.0616180851533218,19.7567889757751
-0.0625698766219609,19.757211900137
-0.0630598337701514,19.7576717345614
-0.0630966314379872,19.7581751885307
-0.0626835851962085,19.7587308873081
-0.0618138223022386,19.759351478661
-0.0604664047100607,19.7600535415823
-0.0585981287226782,19.7608613168457
-0.056121038982426,19.7618149392019
-0.0528275996471669,19.7629972078669
-0.0487707435509305,19.7644051104979
-0.0448338203920773,19.7657639148647
-0.0410719798064209,19.767080367744
-0.0375125761661935,19.7683574382749
-0.0341694762508244,19.7695963278369
-0.0310488966307141,19.7707973403708
-0.0281519841798226,19.7719603390627
-0.0254761753314678,19.7730849865652
-0.0230160628974506,19.7741708696844
-0.0207640483048178,19.7752175598264
-0.0187108866585805,19.7762246357521
-0.0168461647151294,19.7771916828272
-0.0151587245166792,19.7781182765364
-0.013584505738212,19.7790354994416
-0.0120693243846194,19.7799761636657
-0.0106177747247824,19.7809417886013
-0.00923380924551597,19.781934466893
-0.00792118818175314,19.7829566518773
-0.00668342637496124,19.784011249046
-0.00552374165670938,19.7851017335014
-0.00444500093082288,19.786232307935
-0.00344966392098196,19.7874081200207
-0.00253972411945943,19.7886355697397
-0.00171664580389339,19.7899227579399
-0.000981294815771003,19.7912801667389
-0.00033385859493294,19.792721741685
0.000226253542815765,19.7942667192543
0.000688599684714999,19.7958946457219
0.00105055938076281,19.7975688173747
0.00132852290307403,19.7993075364591
0.00153709760515833,19.8011319166281
0.00168999550422433,19.8030701459496
0.00180044998042482,19.8051621368711
0.00188184139296559,19.8074692207258
0.00194889581368756,19.8100977899962
0.00202105314833364,19.8132759560441
0.00211726406272064,19.8170123993883
0.00224142719780083,19.8209034555168
0.00238588920105071,19.8246984942121
0.00254728783154869,19.8284711429406
0.00272210448158475,19.8322746247591
0.00290787768200335,19.8361492494569
0.00310354625865977,19.8401290415687
0.00330938607259382,19.8442452690324
0.00352681576552098,19.8485285910503
0.00375818819852112,19.8530105831037
0.00400664804723817,19.8577250905283
0.00427614671960172,19.8627096824483
0.00457169895672326,19.8680069553451
0.00489685675127867,19.8736123761732
0.00522575545758387,19.8790198890324
0.00556908288943926,19.8843722948369
0.00592610350537977,19.8896105447538
0.00630146606455105,19.8947594121194
0.00669884350464565,19.899824011417
0.0071226201215596,19.9048148149809
0.00757727506962669,19.9097379660343
0.0080676253825992,19.9145975747468
0.00859887347297604,19.9193953534445
0.00917673911608767,19.9241312137063
0.00980756800453115,19.9288036208891
0.0104984526792204,19.9334101280028
0.0112732489481011,19.9380381603107
0.0121472614297056,19.9426876518818
0.0131415544346792,19.9473711256037
0.0142856314579011,19.9521164437563
0.0156268659919636,19.9569899725881
0.0172601178625503,19.9621641578651
0.0194866007609964,19.9682752528322
0.0212399625965173,19.9725916697311
0.023092633934862,19.97690808663
0.0246641308512929,19.9805512300564
0.0259776210755728,19.9837543283737
0.0270800138104204,19.9867600209786
0.0279586363406976,19.9896684411493
0.0285675432339967,19.9924435457261
0.0289076690796944,19.9952026678197
0.0289680635855358,19.9976013339099
0.0288042889845125,20
