ecg,time
0.00628962663687389,15.0003242505258
0.0071108138223261,15.0022972052803
0.00802185522842188,15.0041438510769
0.00904060687042253,15.0058992064868
0.0101962711241632,15.0076034299303
0.0115449049123458,15.0093151968003
0.0133041712291389,15.0112372978229
0.015142632181414,15.0129959495607
0.0171685946875885,15.0147546012984
0.0188848846752331,15.0161718455884
0.0203623140157404,15.0173895065881
0.0216828326868919,15.0185213732018
0.0228628211459531,15.019621307695
0.0238931150074063,15.0207281096066
0.0247475249179783,15.0218838097307
0.0253756045023217,15.023153489982
0.0256620130004752,15.0246924129229
0.0253395920355176,15.0265236782332
0.0243975639697255,15.0283549435435
0.0232919561274253,15.0298332120028
0.0220523903850791,15.0312290552034
0.0206724256886795,15.0326441382411
0.0191601120844038,15.0341234808154
0.0175228334985996,15.0357047048474
0.016147558345853,15.0370641693514
0.0148526145554972,15.0384236338554
0.0128505302130419,15.0407246128734
0.0111300563296936,15.0429528913827
0.00964893194765783,15.0451208741774
0.00835156060880558,15.0472728631563
0.00717997404726329,15.0494864120036
0.00604544556860887,15.0519594696483
0.00503301858806937,15.0545427041159
0.00445077640894555,15.0562450556971
0.0039284487817283,15.0579474072782
0.00349432715101348,15.0595191524867
0.00311289378606209,15.061045234225
0.00275708824142946,15.0626189620951
0.0024044220977111,15.0643556613957
0.00201938492348289,15.0665072418456
0.00152585261366922,15.0697988421622
0.00113889500143238,15.0729984934814
0.000851463374646799,15.0759201685888
0.000599257903025996,15.0790836597809
0.000356153746139381,15.0830276943628
0.000148377131331174,15.0878240372493
1.36091072887477e-05,15.093163166094
-2.42330139732838e-05,15.0978681935471
1.33108554551184e-05,15.1021243690689
0.00011825275158584,15.1059537065295
0.000287340782781998,15.1094034133619
0.000520559567737102,15.1125238293956
0.00081991161764603,15.1153613347877
0.00119011593444868,15.1179671293551
0.00163964202378156,15.1203949930488
0.00218260124444043,15.122701635095
0.0028430057027123,15.1249523882256
0.00367046391151525,15.1272492931604
0.0047649847782014,15.1297479561741
0.00626045981832731,15.1325738223475
0.00809724205580941,15.1354781633336
0.00948235478561522,15.1373747892211
0.0110490708847888,15.1392714151086
0.0126797955432335,15.1410018077454
0.014379552340325,15.1425770129933
0.0162323165946063,15.1440703470576
0.0182620030678622,15.1454863470742
0.0205234308614581,15.1468469433629
0.0230458467185144,15.1481521038056
0.0258758355993033,15.1494094125661
0.0290538483612029,15.1506206802227
0.0326217005932664,15.1517871080664
0.0366353790255888,15.1529129919471
0.0411528964681152,15.154000827129
0.0462374974855533,15.1550526177754
0.0519719228596016,15.1560723759569
0.0584493833028569,15.1570633301012
0.0657808270391742,15.1580288887948
0.0740997230763697,15.1589726786846
0.0835676309333463,15.1598985325174
0.094387392478773,15.1608109926759
0.106811926077436,15.1617150064399
0.121164944482893,15.1626163461638
0.13787094885499,15.1635220145804
0.157504444683458,15.1644409319108
0.180881588497394,15.165385374352
0.20792957055221,15.1663311384664
0.239309156497662,15.1672865553961
0.275905524010312,15.1682642557227
0.319041225646899,15.169286451134
0.35789992794032,15.1701272877342
0.398948559775663,15.1709681243344
0.434815469317908,15.1716907336045
0.465898730400961,15.1723330704683
0.493161394966713,15.1729365528104
0.516797167634082,15.1735277539624
0.536495815678229,15.174129679181
0.551404507588945,15.1747704247197
0.559599628069616,15.175499133121
0.557381437703909,15.1762735112318
0.543151902829412,15.1770775103649
0.51537526402949,15.1779299566872
0.471916630460902,15.1788453546533
0.413376633177716,15.1797883826211
0.363956355100809,15.1804589143721
0.309006706610692,15.181129446123
0.260934844925072,15.1816791503829
0.22053757496688,15.1821293638177
0.185488748063335,15.1825205912068
0.154325478795477,15.182876110228
0.126209949602306,15.183209532472
0.100593378823545,15.1835302829587
0.0770489837374043,15.1838463958017
0.0551568993197497,15.184166864642
0.0343090195281234,15.184506470632
0.0127524783406538,15.1849105371828
0.000530010603443041,15.1851750026985
-0.00700379168917794,15.1853558847962
-0.0138963368311839,15.1855367668938
-0.0199000323866362,15.1857092814169
-0.026031812414915,15.1859035845678
-0.0320429048968174,15.1861168525856
-0.037734314585865,15.1863462848601
-0.0429927653913841,15.1865906659402
-0.0477573524201237,15.1868498446541
-0.0519986227304661,15.1871244067309
-0.0557063394060406,15.1874155093207
-0.0588810290967449,15.1877248138134
-0.061694153214788,15.1880798268951
-0.0637540571773944,15.1884314800636
-0.0653126249867989,15.1888091633215
-0.0663867757660337,15.1892173495097
-0.0669895114339271,15.1896612024189
-0.0671304896204225,15.1901472355365
-0.0668140298066643,15.190683833277
-0.0660349639845312,15.191282933582
-0.0647733478036828,15.1919608722416
-0.0629869856425315,15.1927411258126
-0.0605894020776116,15.1936623615394
-0.0573780893326763,15.1948033442887
-0.0531949213047799,15.1962304956936
-0.0491135321769966,15.197607815044
-0.0451953478819359,15.1989438482059
-0.0414730335446641,15.2002415467903
-0.037963796560957,15.2015020340698
-0.0346763972880328,15.2027255116573
-0.0316141025711844,15.2039117339129
-0.0287761539189626,15.2050602583813
-0.0261586593195312,15.2061705766883
-0.0237552495132392,15.2072421793688
-0.0215576271180273,15.2082745821803
-0.0195560555909311,15.2092673285217
-0.0177398015669521,15.2102199759784
-0.016097532151782,15.2111320714225
-0.0145289159042194,15.2120570471172
-0.0130208444341336,15.2130058754599
-0.0115774995634319,15.2139803627119
-0.0102027542940444,15.2149827131553
-0.00890026773866064,15.2160155217664
-0.00767343279575703,15.2170818725838
-0.00652532236969965,15.2181854683749
-0.00545863298131266,15.2193308063652
-0.00447562539229938,15.2205234222154
-0.00357806127242083,15.2217702385361
-0.00276713391633036,15.2230800799291
-0.00204338914941878,15.224464466158
-0.00140662888611936,15.225938897797
-0.000855781846631636,15.2275250811958
-0.000409638367670865,15.2291665584648
-5.77770766417606e-05,15.2308607466208
0.00021548611318003,15.2326261534511
0.000424566889918722,15.2344859806315
0.000583156380197781,15.2364717608063
0.000704725478767785,15.2386292864383
0.000803350731175663,15.2410314962651
0.000895531090794383,15.2438125058553
0.0010064117818891,15.2472964185728
0.00113997701550799,15.2510681448004
0.0013108750667818,15.255232376799
0.0015156273355134,15.2596713279989
0.00176535544174686,15.2647213767511
0.00201535789262073,15.2696277697426
0.00226905741024356,15.2745817331496
0.0024962173649968,15.2790231768804
0.00270115576040072,15.2830339117077
0.00289768726393844,15.2868691310979
0.00309258543377721,15.2906428925167
0.00329020213755556,15.2944207296983
0.00349396816443155,15.2982486113314
0.00370696364278479,15.3021632735677
0.00393219782188896,15.3061967468158
0.00417282369560359,15.3103794230262
0.00443229763416167,15.3147417386569
0.00471455926917269,15.3193154940193
0.00502430154800706,15.3241351808149
0.00536741805865724,15.329239292731
0.00574226683779676,15.3345396939222
0.00612867371690077,15.33970378619
0.00653563590588952,15.3448208264046
0.00696347298678598,15.349850542373
0.00741709116872483,15.3548057695919
0.00790116883197888,15.359689122727
0.00842134085028411,15.3645068779343
0.00898367472150682,15.3692624577562
0.00959479394376714,15.3739572648483
0.010261948479879,15.378590881631
0.011003783615476,15.3832250429677
0.0118387524633685,15.3878882820362
0.0127854659393613,15.3925863059949
0.0138704732782427,15.3973425862651
0.0151342386999407,15.4022097900777
0.0166517231112339,15.4073190694261
0.0186221999473225,15.4130880202888
0.0205132579577981,15.4180065656123
0.0221050789184926,15.4218704460478
0.0237351014804515,15.4257343264834
0.0251364176673642,15.4291421225784
0.0263175044665419,15.4322611381785
0.0272928996870063,15.4352650811962
0.0280133718128451,15.4381332457848
0.0284676300429024,15.4409280491154
0.0286439588249386,15.4437783591638
0.0284888730916916,15.4468829409093
0.0277791047729425,15.4508623363113
0.0269358015873438,15.4537818531638
0.0258714119292777,15.4567013700164
0.0247949495857026,15.4592668997909
0.0237221317194738,15.4616222804343
0.0226483549638841,15.4638672266736
0.0215749003628861,15.4660510836257
0.020505123655274,15.4682024454211
0.0194427434748227,15.4703403992743
0.0183913618057166,15.4724789460292
0.0173543321298157,15.4746290829023
0.0163347298136999,15.476799929305
0.0153353507059834,15.4789994064472
0.0143587421055677,15.4812346703806
0.0134072181654027,15.4835124198671
0.0124827995095943,15.4858391246655
0.0115872694959558,15.4882211984462
0.0107221830257908,15.4906651680825
0.00988888107586458,15.4931777998893
0.00908849458075782,15.4957662508098
0.00831120396214114,15.4984772011666
0.00754723718297788,15.5013708291615
0.00680038983050637,15.5044683494026
0.00607450547993407,15.5077949075321
0.00537363813705822,15.5113795575881
0.00470200485649469,15.5152560214446
0.0040639126520497,15.5194636502428
0.00346362813933337,15.5240488933172
0.00290517091817324,15.5290678468003
0.00239204209144032,15.5345908343486
0.00192696398980209,15.5407101735383
0.00151355872330022,15.5475186993117
0.00116596463171596,15.5548465790371
0.000877355848575695,15.5627980882437
0.000651203079258723,15.5715131285026
0.000512014165981333,15.5791312614911
0.000379475980556613,15.5890580179734
0.0002862880080964,15.5990580179734
0.000221503661562106,15.6090580179734
0.000177050066665275,15.6190580179734
0.000147073859423773,15.6290580179734
0.000127271553965439,15.6390580179734
0.00011456617659006,15.6490580179734
0.000106827928209955,15.6590580179734
0.000102611582579228,15.6690580179734
0.000100942199972063,15.6790580179734
0.0001011618201039,15.6890580179734
0.000102828048310797,15.6990580179734
0.000105648465316691,15.7090580179734
0.000109437468989895,15.7190580179734
0.000114087105188986,15.7290580179734
0.000119547174634539,15.7390580179734
0.000125811948673122,15.7490580179734
0.000132911813162606,15.7590580179734
0.000140908688867223,15.7690580179734
0.000149894455813605,15.7790580179734
0.000159991938342105,15.7890580179734
0.000171358309996782,15.7990580179734
0.000184191069382485,15.8090580179734
0.000198737051217286,15.8190580179734
0.000215305320717943,15.8290580179734
0.000234285326840619,15.8390580179734
0.000256172471957679,15.8490580179734
0.000281604474750307,15.8590580179734
0.000311413875619848,15.8690580179734
0.000346705330507548,15.8790580179734
0.000388972028006725,15.8890580179734
0.000440275721692984,15.8990580179734
0.000500047304651769,15.9085531678376
0.000567951260106314,15.9173229768189
0.000644969040773933,15.9254140315505
0.000732311450831776,15.9328793541219
0.000831370006405852,15.9397684553118
0.000943725505089739,15.9461272551853
0.0010711691846018,15.9519983627229
0.00121572964503611,15.9574213288981
0.00137970546231474,15.9624328581529
0.00156570039462155,15.9670670179842
0.00177666768965766,15.9713554472681
0.00201595977499408,15.975327557332
0.00228739104198044,15.9790107098828
0.00259531164170903,15.9824303960221
0.00294470287575251,15.9856104280602
0.00334129949371915,15.988573137076
0.00379174831603064,15.9913395791597
0.00430382634461287,15.9939297789674
0.00488674649239811,15.9963630276501
0.00555160374958535,15.9986582671403
0.00629524687243908,16.0007906457527
0.00711703265517905,16.0027625688909
0.00802877644755613,16.0046084315627
0.00904839039827046,16.0063632657083
0.01020519466218,16.0080672989491
0.0115555571988821,16.0097794388116
0.0133191812022884,16.0117042063967
0.0151521263892302,16.0134562193325
0.0171709327214674,16.0152082322683
0.0188860607143469,16.016624482001
0.0203633001393466,16.0178420053832
0.0216837128131721,16.0189738322057
0.0228635975081636,16.0200737588336
0.0238937749801087,16.0211805802583
0.0247480427848265,16.0223363351237
0.025375929801161,16.0236061346167
0.025662007097972,16.0251453738043
0.0253391866712466,16.026976394528
0.0243970055182781,16.0288074152518
0.023291334587818,16.0302855931643
0.0220516975509382,16.0316814299238
0.0206716641396089,16.0330965361034
0.0191592866306066,16.0345759207794
0.0175219467463942,16.0361572069234
0.0161456051146071,16.0375178033856
0.014849740460338,16.0388783998478
0.0128479622858153,16.0411793924146
0.0111277767970494,16.0434076751058
0.00964690534425327,16.0455756731618
0.00834975428395372,16.0477276953955
0.00717835654515667,16.049941315054
0.00604397109865612,16.0524145685916
0.00503172278993718,16.0549979108218
0.00444963827366961,16.056700178027
0.00392744987264505,16.0584024452321
0.00349342963882599,16.0599741596615
0.00311207303629823,16.0615002608427
0.00275632950075784,16.0630740558312
0.0024037127910942,16.0648109002454
0.0020187024822271,16.066962846839
0.00152525786782607,16.0702547191401
0.0011384275277775,16.0734541591762
0.000851068370314365,16.076375847284
0.000598912813634764,16.0795395570449
0.000355854604190833,16.0834840267372
0.000148132120413966,16.0882809060673
1.34447585668102e-05,16.0936196484879
-2.43442705164114e-05,16.0983244479783
1.3241707701041e-05,16.1025803990046
0.000118219935062404,16.1064095420699
0.000287341742690535,16.1098590783132
0.000520594158113221,16.1129793515598
0.000819981119921144,16.1158167379247
0.00119022349978151,16.1184224387627
0.00163979341098896,16.1208502357152
0.00218280532228361,16.1231568371295
0.00284327662916846,16.1254075780767
0.00367082940145375,16.1277045139369
0.00476549621416332,16.1302032658519
0.00626112745826047,16.1330291592571
0.00809806101960285,16.1359334639018
0.00948319914748173,16.1378299383862
0.0110499466905039,16.1397264128707
0.0126807280960762,16.1414566891031
0.0143806117095951,16.1430318464251
0.0162335081788393,16.1445251253422
0.0182633695391969,16.1459410913327
0.0205249863518147,16.147301649677
0.0230476250859631,16.1486067795668
0.0258778563291202,16.1498640556967
0.0290561521503411,16.1510752967876
0.032624310346828,16.1522416960867
0.0366383324664131,16.1533675534747
0.0411562376303646,16.1544553644677
0.0462412805779485,16.1555071339601
0.0519762065758213,16.1565268729705
0.0584542401655059,16.1575178105075
0.0657863445869551,16.1584833553313
0.0741060142110611,16.1594271349811
0.0835748231424949,16.1603529812949
0.0943956512757075,16.1612654376076
0.106821463414606,16.1621694518401
0.121176037912668,16.1630707972674
0.137883972700059,16.163976478026
0.157519928167388,16.1648954167835
0.180900315731024,16.1658398936546
0.207951289610713,16.1667856679406
0.239334457719901,16.1677411040918
0.275935235351733,16.168718837743
0.319076731105908,16.1697410938083
0.357929378336432,16.1705817597595
0.398970086781508,16.1714224257108
0.43483277862186,16.1721449647065
0.465913226798579,16.1727872732447
0.493173436111542,16.1733907468582
0.516806705524623,16.1739819531391
0.536502509765622,16.1745838976779
0.551407598917937,16.1752246827864
0.55959733408512,16.1759534727977
0.557371666515624,16.1767278677098
0.543133936390805,16.1775318955889
0.515347994968256,16.1783843800942
0.471878672260077,16.1792998217369
0.413329358779084,16.1802428616915
0.363914419029851,16.1809132554018
0.308973273043607,16.181583649112
0.260907972421939,16.1821332681444
0.220514847671613,16.1825834358404
0.185468856499464,16.1829746371214
0.154307739581519,16.1833301403302
0.126193949138845,16.1836635532206
0.100578823191146,16.1839842992749
0.0770356227458771,16.1843004124048
0.0551444527834722,16.1846208877085
0.0342969863369166,16.1849605127004
0.0127387172780247,16.1853646541403
0.000528708018154523,16.1856288705614
-0.00700490992805111,16.1858097520661
-0.0138972854975061,16.1859906335708
-0.0199008377393895,16.186163147671
-0.0260326011111838,16.1863574546978
-0.032043640243666,16.1865707261724
-0.0377349728406505,16.1868001616389
-0.0429933338080279,16.187044545847
-0.0477578249102497,16.1873037277634
-0.051998997241899,16.1875782932204
-0.0557066163560334,16.1878693994554
-0.0588812076728283,16.1881787079416
-0.0616942375734194,16.1885337274951
-0.0637540454849402,16.1888853858473
-0.0653125206801772,16.1892630749547
-0.0663865820704521,16.1896712678345
-0.0669892310820025,16.1901151284796
-0.0671301245560352,16.1906011706487
-0.0668135808081328,16.1911377791356
-0.0660344295788949,16.1917368927222
-0.0647727236921733,16.1924148479538
-0.0629862625963695,16.1931951230931
-0.0605885602294614,16.1941163891157
-0.0573770758102445,16.1952574224753
-0.0531939275040651,16.1966845630872
-0.0491125698786034,16.1980618744779
-0.0451944248592861,16.1993979001739
-0.0414721539437837,16.2006955914381
-0.0379629626383166,16.2019560713737
-0.0346756101014339,16.2031795415154
-0.0316133623003954,16.2043657561932
-0.0287754600513276,16.2055142729465
-0.0261580107832938,16.2066245834073
-0.0237546447891691,16.2076961781217
-0.0215570643409817,16.2087285728582
-0.0195555326433519,16.2097213110237
-0.0177393161644758,16.2106739502067
-0.0160970819200623,16.2115860372756
-0.0145284778236404,16.2125110177108
-0.0130204195582497,16.2134598510325
-0.0115770887191529,16.2144343436724
-0.0102023582725383,16.2154366999825
-0.00889988728382706,16.216469515027
-0.00767306859383435,16.2175358729548
-0.00652497503842827,16.2186394766738
-0.00545830305866042,16.2197848235913
-0.00447531332463198,16.2209774496078
-0.00357776740191509,16.2222242776579
-0.00276685846714428,16.223534132794
-0.00204313221167585,16.2249185354298
-0.00140639039586344,16.2263929871213
-0.000855561557728941,16.2279791957957
-0.000409440344077781,16.2296206818058
-5.75978262075368e-05,16.2313148825974
0.000215649618721809,16.2330803061927
0.000424717484940375,16.2349401556072
0.000583296786801496,16.2369259656602
0.000704858428977133,16.2390835326964
0.00080347919110016,16.2414858033037
0.000895658838378001,16.2442669126078
0.00100654593579523,16.2477510382002
0.00114011512024607,16.251522798562
0.0013110223210507,16.2556871580045
0.00151579074635305,16.2601263805796
0.00176556682178463,16.2651773429266
0.00201556943384456,16.2700837079705
0.00226927916620786,16.2750378651142
0.00249640478592389,16.2794786168963
0.00270133031299918,16.2834890738313
0.00289785814100732,16.2873241832116
0.00309275769390421,16.2910979204195
0.00329037939066208,16.2948757890459
0.00349415347131346,16.2987037443371
0.00370715989578266,16.3026185156319
0.00393240797764284,16.3066521302663
0.0041730509488879,16.310834979521
0.00443254556678015,16.3151975006457
0.004714832054063,16.319771496109
0.00502460428994367,16.3245914611987
0.00536775735735297,16.3296958943397
0.00574261296453579,16.3349961331307
0.00612903862275284,16.3401602077326
0.00653601756739826,16.3452771631331
0.00696387590401701,16.3503068095089
0.0074175192345649,16.3552619671572
0.00790162707355819,16.3601452576101
0.0084218346890669,16.3649629545446
0.00898421006339313,16.3697184786696
0.00959537718760413,16.3744132304989
0.0102625866537732,16.3790467911451
0.0110045011547827,16.3836809873866
0.0118395622893742,16.3883442508849
0.0127863887932999,16.3930423153392
0.0138715380842587,16.3977986663394
0.0151354931237494,16.4026660130054
0.0166532663886566,16.407775625678
0.018624366505779,16.4135456432397
0.0205148228061691,16.4184621558474
0.0221065030029703,16.4223255337229
0.0237363153340062,16.4261889115984
0.0251374364676104,16.429596376565
0.0263183589370494,16.4327152404263
0.0272935881967028,16.4357191472693
0.0280138449225449,16.4385872078833
0.0284678873790041,16.441382000511
0.0286439788250985,16.4442324183244
0.0284885808466148,16.4473373387897
0.0277780831553491,16.4513181964266
0.0269346570662233,16.454237021111
0.0258703095861674,16.4571558457954
0.0247938677595501,16.45972105237
0.0237210510356495,16.462076281526
0.0226472734374715,16.4643211463259
0.0215738207366736,16.4665049583067
0.0205040496142358,16.4686562980852
0.0194416787317688,16.4707942461232
0.0183903098646593,16.4729327994165
0.017353296219772,16.4750829528319
0.0163337128813127,16.477253824285
0.0153343554219817,16.4794533340284
0.0143577709516541,16.4816886375236
0.0134062733066439,16.4839664331923
0.0124818828433941,16.4862931906681
0.0115863826884387,16.4886753236604
0.0107213275236308,16.4911193592224
0.00988805810904636,16.4936320640062
0.00908770517664759,16.4962205954197
0.00831042608826145,16.4989317205351
0.00754647470067499,16.5018255427209
0.0067996464992062,16.5049232807647
0.00607378528480633,16.5082500839363
0.00537294525653964,16.5118350105705
0.00470134360361963,16.515711787687
0.00406328737588086,16.5199197727353
0.00346304305774161,16.5245054232545
0.00290462988016942,16.5295248468948
0.00239154826092249,16.5350483851353
0.00192651968145944,16.5411683826135
0.00151318326180143,16.547977375056
0.00116565093049882,16.5553058132205
0.000877097140843141,16.5632580026609
0.000651005902331544,16.5719738804572
0.000511963163712651,16.5795861791107
0.000379399587011825,16.5895165177262
0.00028623568982303,16.5995165177262
0.000221468023351583,16.6095165177262
0.000177026122302333,16.6195165177262
0.000147058130843522,16.6295165177262
0.000127261591422901,16.6395165177262
0.00011456026729323,16.6495165177262
0.000106824889392507,16.6595165177262
0.000102610605687297,16.6695165177262
0.000100942736201926,16.6795165177262
0.00010116349991068,16.6895165177262
0.00010283062664772,16.6995165177262
0.000105651784849032,16.7095165177262
0.000109441435367404,16.7195165177262
0.00011409167040242,16.7295165177262
0.000119552325947443,16.7395165177262
0.000125817701548731,16.7495165177262
0.000132918207167932,16.7595165177262
0.000140915785900748,16.7695165177262
0.000149902340271353,16.7795165177262
0.000160000719060016,16.7895165177262
0.000171368124013686,16.7995165177262
0.000184202087782763,16.8095165177262
0.000198749487566663,16.8195165177262
0.000215319442944028,16.8295165177262
0.00023430147389841,16.8395165177262
0.000256191077367222,16.8495165177262
0.000281626100282059,16.8595165177262
0.000311439260357621,16.8695165177262
0.000346735463834833,16.8795165177262
0.000389008260873386,16.8895165177262
0.000440319941067387,16.8995165177262
0.00050009758108382,16.9090110834252
0.000568008213627354,16.9177803311249
0.000645033539953114,16.9258708679502
0.000732384509582012,16.933335713628
0.000831452781848006,16.9402243759354
0.000943819309859098,16.9465827721585
0.00107127550560832,16.9524535087215
0.00121585016658649,16.9578761342291
0.00137984209300838,16.9628873509223
0.00156585529717812,16.9675212242668
0.00177684331834079,16.9718093912747
0.00201615891884671,16.975781261562
0.00228761687638612,16.9794641952629
0.00259556779546502,16.9828836820546
0.00294499351237785,16.9860635329798
0.00334162942022115,16.9890260780054
0.00379212312641182,16.9917923722844
0.00430425261710419,16.9943824397462
0.00488723207370253,16.996815571073
0.00555215817839993,16.9991107080796
0.00629585905939342,17.0012429456347
0.00711770993260455,17.0032147544646
0.00802953004453085,17.0050605298525
0.00904923760132829,17.0068153051033
0.01020616546885,17.0085193152153
0.0115567151951691,17.0102314926467
0.0133208112375199,17.0121565457203
0.0151531697228152,17.0139078470043
0.0171712144658539,17.0156591482882
0.0188862190869183,17.0170752885995
0.020363439216782,17.0182927951222
0.0216838416281378,17.0194246160997
0.0228637161823956,17.0205245406334
0.0238938819351569,17.0216313631748
0.0247481349086242,17.0227871232576
0.0253760010683233,17.0240569354539
0.0256620411151594,17.0255962102638
0.0253391747823328,17.0274272011803
0.0243969755575618,17.0292581920969
0.0232912966983074,17.0307363583532
0.0220516504500479,17.0321321934845
0.0206716077866884,17.0335473016558
0.0191592212343226,17.0350266906977
0.01752187223469,17.0366079837302
0.0161454104180434,17.0379687057293
0.0148494418189985,17.0393294277284
0.0128476758803991,17.0416304447961
0.0111275087238781,17.0438587462475
0.00964665998573293,17.0460267562959
0.00834953639852394,17.0481787803339
0.00717817414732232,17.0503923819161
0.00604384868539077,17.0528655530214
0.00503161575803349,17.0554489008313
0.00444952395396157,17.0571512223101
0.00392733086036737,17.0588535437889
0.00349331415342008,17.0604252856437
0.00311196705798765,17.0619513893001
0.00275623739321329,17.0635251637399
0.00240364045725011,17.0652619513001
0.00201866542051412,17.067413735383
0.00152522462672156,17.0707056165578
0.00113837115164131,17.073905304917
0.000851009485497699,17.0768271043532
0.000598862049033433,17.0799908158736
0.000355815908854231,17.0839352052202
0.00014809679404368,17.0887321330651
1.34128268752845e-05,17.0940708916651
-2.43749928058444e-05,17.0987757103364
1.32109357185859e-05,17.103031679174
0.000118188298135146,17.1068608393191
0.000287308696137327,17.1103103909296
0.000520559385463094,17.1134306784791
0.000819944252899577,17.1162680761931
0.00119018417411909,17.118873785932
0.00163975128107308,17.1213015898893
0.00218275969447665,17.1236081952978
0.00284322517313202,17.1258589330163
0.00367076524705814,17.1281558498713
0.00476540846071321,17.1306545657737
0.0062610239903417,17.1334804458265
0.00809794317642114,17.1363847381138
0.00948308861436914,17.1382812267503
0.0110498460564675,17.1401777153868
0.0126806456323055,17.1419080116869
0.0143805287068858,17.1434831689324
0.0162334328907223,17.1449764551277
0.0182632944524149,17.1463924227054
0.0205249118867019,17.1477529834474
0.0230475485578284,17.1490581147089
0.0258777768890988,17.1503153923283
0.0290560678454258,17.151526634582
0.0326242204859631,17.1526930352298
0.0366382357534005,17.1538188939351
0.0411561326682561,17.154906706206
0.0462411655944446,17.1559584768818
0.0519760801406607,17.1569782170899
0.0584541004516136,17.157969155794
0.0657861895107274,17.1589347017536
0.0741058410861702,17.1598784824775
0.0835746294049648,17.1608043298646
0.0943954338473861,17.1617167872429
0.106821218839142,17.1626208025494
0.121175762414726,17.1635221490851
0.137883662388131,17.1644278310263
0.157519579377017,17.1653467710974
0.180899926765036,17.1662912495369
0.207950845220714,17.167237025102
0.239333951672427,17.168192462688
0.275934661957101,17.1691701980041
0.319076085608319,17.1701924560605
0.357928693331546,17.1710331242278
0.398969360201244,17.1718737923951
0.434832011357553,17.1725963331957
0.465912423416111,17.1732386432987
0.49317259770556,17.1738421182784
0.516805832407534,17.1744333257467
0.536501602898122,17.175035271276
0.551406661998106,17.1756760570706
0.559596382127569,17.1764048470278
0.557370734121421,17.1771792427715
0.543133041487098,17.1779832711851
0.515347162231729,17.1788357558542
0.471877939105677,17.1797511972036
0.413328582673452,17.180694239157
0.363913787670751,17.1813646316857
0.308972811643233,17.1820350242144
0.260907632044257,17.1825846426494
0.220514584955104,17.1830348101379
0.185468648528824,17.1834260113816
0.154307573910923,17.1837815146292
0.126193818020747,17.1841149275985
0.100578721281253,17.1844356737574
0.0770355461207762,17.1847517870117
0.0551443984606914,17.1850722624604
0.0342969519835835,17.1854118876291
0.0127387001910631,17.1858160293529
0.000528719163689331,17.1860802455454
-0.00700489481800433,17.1862611272033
-0.0138972665778889,17.1864420088612
-0.0199008152718358,17.1866145231057
-0.0260325755647224,17.1868088303195
-0.0320436109305311,17.187022101983
-0.0377349394097249,17.1872515376415
-0.0429932961531007,17.1874959220472
-0.0477577830772126,17.1877551041687
-0.0519989513686585,17.1880296698405
-0.0557065666339455,17.1883207763019
-0.0588811539791884,17.1886300850282
-0.0616941810389462,17.1889851050868
-0.0637539849021068,17.1893367637436
-0.0653124562840707,17.1897144531788
-0.0663865140895883,17.1901226464167
-0.0669891597199652,17.1905665074557
-0.0671300499858256,17.1910525500615
-0.0668135031665512,17.191589159037
-0.0660343489401866,17.192188273187
-0.0647726400711427,17.1928662290707
-0.0629861759218689,17.1936465049853
-0.0605884702633184,17.1945677719779
-0.0573769818054134,17.1957088067131
-0.0531938356225782,17.1971359468354
-0.0491124806609451,17.1985132577875
-0.045194338677871,17.1998492830288
-0.0414720710185452,17.2011469738189
-0.0379628830986182,17.2024074532608
-0.0346755340103509,17.2036309228905
-0.0316132896668233,17.2048171370397
-0.0287753908382027,17.2059656532497
-0.026157944914715,17.2070759631547
-0.0237545821572909,17.2081475573024
-0.021557004812714,17.2091799514627
-0.0195554760668543,17.2101726890436
-0.017739262375221,17.2111253276342
-0.0160970307463747,17.2120374141026
-0.0145284276105921,17.2129623948822
-0.0130203703863713,17.2139112285652
-0.0115770406527769,17.2148857215958
-0.0102023113735561,17.215888078331
-0.00889984161088265,17.2169208938413
-0.00767302420159569,17.2179872522837
-0.00652493197684633,17.2190908565762
-0.00545826137221209,17.2202362041393
-0.00447527305153937,17.2214288308908
-0.00357772857334278,17.2226756597885
-0.00276682110634605,17.2239855159177
-0.00204309633304356,17.2253699197386
-0.00140635600378023,17.2268443728785
-0.000855528645014523,17.228430583378
-0.00040940920745426,17.2300720700216
-5.75682166289227e-05,17.2317662717276
0.000215677915962695,17.2335316965353
0.000424744669457793,17.2353915475571
0.000583323048615241,17.2373773597692
0.000704883956693479,17.2395349297967
0.000803504186893246,17.2419372047942
0.000895683556963438,17.2447183212998
0.00100657085819515,17.2482024622643
0.00114014008090874,17.251974225097
0.00131104771218199,17.2561385937477
0.00151581797654934,17.2605778539715
0.00176560050177287,17.2656289441607
0.00201560302731547,17.2705353052348
0.00226931416827909,17.2754894894342
0.00249643500622184,17.2799301443579
0.00270135876896037,17.2839405623507
0.0028978861263009,17.2877756562778
0.00309278592299786,17.2915493900373
0.0032904083767424,17.2953272630013
0.00349418365321363,17.2991552285342
0.003707191691859,17.30307001502
0.00393244181887078,17.3071036493634
0.00417308730376794,17.3112865227498
0.00443258496301248,17.3156490725374
0.0047148751082772,17.3202231014944
0.00502465175704029,17.3250431054067
0.0053678102117787,17.3301475833573
0.00574266700075866,17.3354477978483
0.00612909558467345,17.3406118689434
0.00653607720597969,17.3457288113144
0.00696393890317256,17.3507584469125
0.00741758619357391,17.355713593825
0.00790169875887121,17.3605968745534
0.0084219119298723,17.3654145624027
0.00898429376635213,17.3701700778088
0.00959546833920429,17.3748648209701
0.0102626863410041,17.3794983728058
0.0110046131833848,17.3841325744499
0.0118396886674307,17.3887958417172
0.0127865327491703,17.3934939124495
0.0138717041213066,17.3982502744422
0.0151356886647087,17.4031176433382
0.0166535068890151,17.408227307911
0.018624704069363,17.4139974916402
0.020515066752765,17.4189136879986
0.0221067250066341,17.4227769875859
0.0237365045755621,17.4266402871733
0.0251375953237986,17.4300477005785
0.0263184921906272,17.4331665408139
0.027293695591244,17.4361704420303
0.0280139187556088,17.4390384864506
0.0284679275912384,17.441833277415
0.0286439820550749,17.4446837120243
0.0284885354169212,17.447788685282
0.0277779240015732,17.4517697709513
0.0269344787547024,17.4546884878098
0.0258701378316642,17.4576072046682
0.0247936991948765,17.460172360877
0.0237208826456712,17.4625275664177
0.0226471049143096,17.4647724185178
0.0215736525086733,17.4669562234825
0.0205038822564729,17.4691075598221
0.0194415128236409,17.4712455069459
0.0183901459530252,17.4733840612495
0.0173531348086485,17.4755342172333
0.0163335544307332,17.4777050925792
0.0153342003490066,17.4799046073902
0.0143576196409506,17.4821399170353
0.0134061260961937,17.4844177198827
0.0124817400304028,17.4867444855455
0.0115862445340251,17.4891266277385
0.0107211942546738,17.4915706735417
0.00988792991861953,17.4940833896585
0.0090875822262026,17.4966719335678
0.00831030493168949,17.4993830859099
0.00754635594018543,17.5022769383494
0.00679953072095277,17.5053747103255
0.0060736731101311,17.5087015516731
0.00537283733690687,17.5122865213966
0.00470124061146731,17.5161633473174
0.00406318998924764,17.5203713878679
0.00346295193418669,17.5249571018659
0.00290454561971158,17.5299765987575
0.00239147135675147,17.5355002228006
0.0019264504943836,17.5416203228534
0.00151312480353888,17.5484293880019
0.00116560209738592,17.5557579131718
0.000877056878976321,17.5637102085963
0.00065097515893908,17.5724262168907
0.000511954657312461,17.5800376373631
0.000379387417966824,17.5899685212387
0.000286227327932662,17.5999685212387
0.000221462301037672,17.6099685212387
0.000177022250816224,17.6199685212387
0.00014705555986331,17.6299685212387
0.00012725993364805,17.6399685212387
0.000114559252213934,17.6499685212387
0.000106824330359008,17.6599685212387
0.000102610375174377,17.6699685212387
0.000100942747697952,17.6799685212387
0.00010116369520927,17.6899685212387
0.000102830967207801,17.6999685212387
0.000105652245989423,17.7099685212387
0.000109442002362831,17.7199685212387
0.000114092335856088,17.7299685212387
0.000119553088045386,17.7399685212387
0.00012581856294664,17.7499685212387
0.000132919174349536,17.7599685212387
0.000140916868904406,17.7699685212387
0.000149903552724105,17.7799685212387
0.00016000207849374,17.7899685212387
0.000171369652470783,17.7999685212387
0.000184203812752835,17.8099685212387
0.000198751443336059,17.8199685212387
0.000215321672493807,17.8299685212387
0.000234304031563849,17.8399685212387
0.000256194032590551,17.8499685212388
0.000281629542978681,17.8599685212388
0.000311443308726015,17.8699685212388
0.00034674027596606,17.8799685212388
0.000389014052437072,17.8899685212388
0.000440327013022054,17.8999685212388
0.000500105635767258,17.9094629953492
0.00056801735263139,17.918232154985
0.000645043904326703,17.9263226104962
0.00073239626378256,17.9337873812524
0.000831466113496667,17.940675974571
0.000943834431763426,17.9470343073115
0.00107129265881032,17.9529049855049
0.00121586962411219,17.958327557391
0.00137986416423507,17.9633387248712
0.00156588033268389,17.9679725530975
0.00177687171598845,17.9722606787939
0.00201619113082275,17.9762325113118
0.00228765341761236,17.9799154105424
0.00259560925452142,17.9833348659427
0.00294504056477704,17.9865146883602
0.00334168284616313,17.989477207591
0.00379218383422842,17.9922434786451
0.00430432167551006,17.9948335253432
0.00488731075830362,17.9972666383004
0.00555224804105341,17.9995617593219
0.00629595830525008,18.0016939745984
0.0071178197647376,18.0036657654738
0.00802965230823703,18.0055115272969
0.00904937514364262,18.0072662936233
0.0102063232411608,18.0089703007017
0.0115569037157894,18.0106824851643
0.0133210775152065,18.0126075863119
0.0151533380120363,18.0143587701294
0.0171712556823005,18.0161099539468
0.0188862391473861,18.0175260765377
0.0203634554684729,18.0187435806363
0.0216838556150484,18.0198754009882
0.0228637279575057,18.0209753255022
0.0238938912674869,18.0220821485478
0.024748141316476,18.0232379098125
0.0253760035973481,18.0245077244346
0.0256620371245717,18.026047005465
0.0253391630356884,18.0278779918435
0.0243969608766913,18.029708978222
0.0232912808600494,18.0311871428627
0.0220516333358696,18.0325829779685
0.0206715894847886,18.0339980866648
0.0191592018765395,18.0354774765789
0.0175218519129026,18.0370587708483
0.0161453690071823,18.0384195154555
0.014849382219111,18.0397802600628
0.0128476245323113,18.0420812751745
0.0111274644857301,18.0443095749392
0.00964662132794416,18.0464775843152
0.00834950183828631,18.0486296092538
0.00717814191344308,18.0508432148845
0.00604381492002042,18.0533164003377
0.00503158602776362,18.0558997509554
0.00444949984687106,18.0576020644489
0.00392731154653185,18.0593043779424
0.00349329764059745,18.0608761161452
0.00311195198619124,18.0624022201921
0.00275622287017871,18.0639759987967
0.00240362550618532,18.0657127965582
0.00201864779961125,18.0678646082295
0.00152520936066926,18.0711564970158
0.00113836215047172,18.0743561541419
0.000851002992260709,18.0772779429426
0.000598856305392736,18.0804416611141
0.000355810400455976,18.084386071987
0.000148092637353946,18.0891830117604
1.34108477140755e-05,18.094521756655
-2.43754382160875e-05,18.0992265662919
1.32118065517404e-05,18.1034825263418
0.000118190386235186,18.1073116787167
0.000287311976448667,18.110761223476
0.000520563885677441,18.1138815051527
0.000819950050395139,18.1167188980314
0.00119019140455035,18.1193246039712
0.00163976016008853,18.1217524051642
0.00218277056973836,18.1240590089259
0.00284323871982029,18.1263097466042
0.00367078301375247,18.1286066663299
0.00476543313359814,18.1311053885963
0.00626105510955333,18.1339312708363
0.00809798045028914,18.136835563205
0.00948312595504868,18.1387320456926
0.0110498833996213,18.1406285281802
0.0126806829547097,18.142358818843
0.0143805700636498,18.1439339745963
0.0162334776357698,18.1454272583448
0.0182633446693539,18.1468432247014
0.0205249679777984,18.1482037840189
0.0230476118509199,18.1495089141889
0.0258778480796063,18.1507661906398
0.0290561484018729,18.151977431947
0.0326243111960702,18.1531438315683
0.0366383379283725,18.1542696893144
0.0411562478272903,18.1553575007023
0.046241295613527,18.1564092705997
0.0519762270022916,18.1574290100901
0.0584542666118631,18.1584199481602
0.0657863779225676,18.1593854935749
0.0741060555566911,18.1603292738737
0.0835748741912602,18.1612551209216
0.0943957144505945,18.1621675780769
0.10682154225752,18.1630715932955
0.121176137740874,18.1639729399046
0.137884101770282,18.1648786221211
0.157520099814864,18.1657975627407
0.180900553090524,18.1667420421135
0.207951570962347,18.1676878178762
0.239334795998061,18.1686432559299
0.275935651459129,18.1696209921352
0.319077264288149,18.1706432519096
0.357929685378487,18.1714839144987
0.398970107057569,18.1723245770878
0.434832629430084,18.1730471155054
0.465912956441363,18.1736894245676
0.49317305682572,18.1742928991421
0.516806216079079,18.1748841066583
0.536501900310027,18.1754860527009
0.551406848909286,18.1761268396752
0.559596400994059,18.1768556322062
0.5573705158161,18.1776300283991
0.543132561695067,18.1784340576662
0.515346383741413,18.1792865435213
0.471876814704878,18.1802019862732
0.413327169276338,18.1811450284117
0.363912528411417,18.1818154167101
0.308971803657926,18.1824858050086
0.260906818932697,18.183035420819
0.220513894854097,18.1834855868881
0.185468042428762,18.1838767873138
0.154307031499019,18.18423229006
0.126193327022678,18.1845657027275
0.100578272958713,18.1848864487369
0.0770351329751003,18.1852025619884
0.055144011958144,18.1855230376267
0.034296576571556,18.1858626633767
0.0127382686911322,18.1862668074318
0.00052867649595239,18.1865310158191
-0.00700493197886184,18.1867118974429
-0.0138972986897635,18.1868927790666
-0.019900843154972,18.1870652932835
-0.0260326032173278,18.1872596006028
-0.0320436372484203,18.1874728723581
-0.0377349636692638,18.1877023080998
-0.0429933179577296,18.1879466925859
-0.0477578022280808,18.1882058747896
-0.0519989677867482,18.1884804405483
-0.0557065803138488,18.188771547104
-0.0588811649069632,18.1890808559343
-0.0616941892365878,18.18943587615
-0.0637539904292769,18.1897875349425
-0.0653124592274986,18.1901652245325
-0.0663865145298861,18.1905734179489
-0.0669891577244491,18.1910172791964
-0.0671300455996253,18.1915033220485
-0.0668134964011239,18.1920399313193
-0.066034339741229,18.1926390458382
-0.0647726282999458,18.1933170021872
-0.0629861612907146,18.1940972787146
-0.0605884521611394,18.1950185465796
-0.0573769586170023,18.1961595827962
-0.0531938128561647,18.1975867226218
-0.0491124586397663,18.1989640333627
-0.0451943176136533,18.2003000584101
-0.0414720510221335,18.2015977490129
-0.0379628642293869,18.2028582282686
-0.034675516295895,18.2040816977107
-0.0316132731120114,18.2052679116697
-0.0287753754302924,18.2064164276865
-0.026157930626907,18.2075267373954
-0.0237545689516347,18.2085983313442
-0.0215569926426867,18.2096307253031
-0.0195554648797024,18.2106234626801
-0.0177392521141105,18.2115761010645
-0.0160970213522965,18.2124881873243
-0.0145284185105515,18.2134131682216
-0.0130203616061304,18.2143620020282
-0.0115770322124473,18.2153364951926
-0.0102023032923503,18.2163388520735
-0.00889983390681777,18.2173716677436
-0.00767301689123632,18.2184380263627
-0.00652492507503872,18.2195416308522
-0.00545825489178778,18.2206869786371
-0.00447526700302063,18.2218796056413
-0.0035777229646164,18.2231264348306
-0.00276681594230821,18.2244362913013
-0.00204309161517851,18.2258206955301
-0.0014063517296372,18.2272951491685
-0.000855524807461805,18.2288813602964
-0.000409405907215647,18.2305228471571
-5.75653665992634e-05,18.232217049177
0.000215680391435886,18.2339824744014
0.000424746841308814,18.2358423259758
0.000583324985126755,18.2378281389306
0.00070488572659473,18.2399857099873
0.000803505865045374,18.2423879864959
0.000895685238982142,18.2451691054805
0.00100657272416589,18.2486532517381
0.00114014206855152,18.2524250154192
0.0013110499490231,18.2565893872381
0.00151582055352298,18.261028652549
0.00176560399663727,18.2660797597611
0.00201560653518746,18.2709861203286
0.00226931786775768,18.2759403081471
0.00249643806407391,18.2803809502071
0.00270136158292872,18.284391363037
0.0028978888665678,18.2882264549248
0.00309278868290167,18.2920001882419
0.00329041122250989,18.2957780617998
0.00349418664058789,18.2996060287129
0.00370719487311703,18.3035208172385
0.00393244524709596,18.3075544542244
0.00417309103601653,18.3117373308436
0.00443258906298902,18.3160998844695
0.00471487965000273,18.3206739179107
0.00502465683101054,18.3254939270204
0.00536781593517511,18.3305984109702
0.00574267282488376,18.3358986226136
0.00612910172412693,18.3410626934959
0.00653608361930523,18.3461796344183
0.0069639456681255,18.3512092688377
0.00741759337655654,18.3561644145678
0.00790170644644224,18.3610476942366
0.00842192021507444,18.3658653811059
0.00898430275015087,18.3706208955793
0.00959547813051856,18.375315637817
0.0102626970590664,18.3799491887152
0.01100462523971,18.3845833909508
0.0118397022801438,18.3892466586336
0.0127865482678333,18.3939447300513
0.0138717220332964,18.3987010932383
0.0151357097731923,18.4035684645437
0.0166535328664729,18.4086781347359
0.0186247405549273,18.4144483364513
0.0205150931108776,18.4193644985906
0.0221067489916291,18.4232277897059
0.0237365250165699,18.4270910808212
0.02513761247807,18.430498488647
0.0263185065757072,18.433617326326
0.0272937071794814,18.4366212269334
0.0280139267139617,18.4394892696025
0.028467931913235,18.4422840603879
0.0286439823770215,18.4451344968152
0.0284885304754367,18.4482394757857
0.0277779067565764,18.4522205861301
0.0269344594378109,18.4551392913247
0.0258701192247499,18.4580579965194
0.024793680933627,18.4606231472804
0.0237208644037934,18.4629783502672
0.0226470866583913,18.4652232009947
0.0215736342849561,18.4674070052018
0.0205038641270729,18.4695583411711
0.0194414948511345,18.4716962881979
0.0183901281964632,18.4738348426131
0.0173531173224372,18.4759849988773
0.0163335372645103,18.4781558746475
0.0153341835477506,18.4803553900104
0.0143576032467799,18.4825907003252
0.0134061101455825,18.4848685039542
0.0124817245552015,18.4871952705089
0.0115862295621854,18.4895774137045
0.0107211798104481,18.4920214606243
0.00988791602260811,18.4945341779775
0.00908756889559043,18.497122723251
0.00831029179605408,18.4998338785441
0.00754634306465336,18.5027277342627
0.00679951816894901,18.5058255099166
0.00607366094888976,18.509152355402
0.00537282563692278,18.512737329796
0.00470122944550549,18.5166141610065
0.00406317943068031,18.5208222075727
0.00346294205417127,18.525407928451
0.00290453648318131,18.5304274332816
0.0023914630170762,18.5359510666235
0.00192644299060354,18.5420711777914
0.00151311846167219,18.5488802508211
0.00116559679775516,18.5562087854218
0.000877052507306909,18.5641610923338
0.000650971833609809,18.5728771147718
0.000511953852744152,18.5804884336571
0.000379386156335646,18.5904193792672
0.000286226467134042,18.6004193792672
0.000221461717710741,18.6104193792672
0.000177021861969163,18.6204193792672
0.000147055307632877,18.6304193792672
0.000127259777247348,18.6404193792672
0.000114559163094913,18.6504193792672
0.000106824288790681,18.6604193792672
0.000102610367660514,18.6704193792672
0.000100942765073373,18.6804193792672
0.000101163731297846,18.6904193792672
0.000102831017908652,18.7004193792672
0.000105652308663186,18.7104193792672
0.000109442075419313,18.7204193792672
0.000114092418476731,18.7304193792672
0.000119553179998562,18.7404193792672
0.000125818664469387,18.7504193792672
0.00013291928607879,18.7604193792672
0.000140916991846853,18.7704193792672
0.000149903688258229,18.7804193792672
0.00016000222840135,18.7904193792672
0.000171369818998721,18.8004193792672
0.000184203998709157,18.8104193792672
0.000198751652229182,18.8204193792672
0.000215321908728749,18.8304193792672
0.000234304300717819,18.8404193792672
0.000256194341802556,18.8504193792672
0.000281629901507597,18.8604193792672
0.000311443728764103,18.8704193792672
0.000346740773850139,18.8804193792672
0.000389014650496378,18.8904193792672
0.000440327742477663,18.9004193792672
0.00050010646356858,18.9099138435394
0.000568018288734836,18.9186829937294
0.000645044962821068,18.926773440531
0.000732397461135703,18.9342382032725
0.000831467468509571,18.9411267892195
0.000943835965767174,18.9474851151839
0.00107129439597031,18.9533557871524
0.00121587159180373,18.9587783533245
0.00137986639347964,18.963789515564
0.00156588285863249,18.9684233389878
0.00177687457852776,18.9727114602883
0.00201619437527482,18.9766832887877
0.0022876570955662,18.9803661843502
0.00259561342491818,18.9837856364084
0.00294504529522094,18.9869654557882
0.00334168821467599,18.9899279722665
0.00379218993156193,18.9926942408371
0.0043043286083211,18.9952842853079
0.0048873186537277,18.9977173962854
0.00555225705351135,19.0000125155719
0.00629596825419191,19.002144728491
0.00711783076775466,19.0041165174452
0.00802966454510407,19.0059622777852
0.00904938889043798,19.0077170430857
0.0102063389758278,19.0094210497093
0.0115569224491695,19.0111332346791
0.0133211037899556,19.0130583402728
0.0151533550859092,19.014809512773
0.0171712607989295,19.0165606852731
0.0188862423838487,19.0179768060798
0.0203634584630073,19.0191943098671
0.0216838585062717,19.0203261300869
0.0228637307436922,19.0214260545311
0.0238938939197815,19.0225328775594
0.0247481437808927,19.0236886388733
0.0253760057717582,19.0249584536651
0.0256620387359791,19.0264977352355
0.0253391639224945,19.0283287210889
0.0243969614648795,19.0301597069423
0.0232912813028674,19.03163787136
0.0220516336022865,19.0330337064126
0.0206715895636837,19.0344488151195
0.0191592017605543,19.0359282050878
0.0175218515894192,19.0375094994579
0.0161453668714002,19.0388702458941
0.0148493785103909,19.0402309923304
0.0128476203350614,19.0425320085011
0.0111274601357648,19.0447603090973
0.00964661714471316,19.0469283189601
0.00834949814900912,19.0490803438614
0.00717813918919358,19.0512939484236
0.00604381442915325,19.053767129458
0.00503158562152497,19.0563504799582
0.00444949856995587,19.0580527962
0.00392730957975645,19.0597551124418
0.00349329548647718,19.0613268519911
0.00311195000047651,19.0628529560802
0.00275622130141563,19.0644267335185
0.00240362466522002,19.0661635281986
0.0020186484669498,19.0683153312357
0.00152520990005343,19.0716072194884
0.00113836120294744,19.0748068886062
0.000851001681962915,19.0777286824127
0.000598855192056581,19.080892399913
0.000355809676746931,19.0848368056499
0.000148091880955467,19.0896337457791
1.34099685930001e-05,19.0949724927404
-2.43764443741719e-05,19.0996773040327
1.32106539714308e-05,19.1039332656637
0.000118189070061451,19.1077624194824
0.000287310480682137,19.1112119655253
0.000520562196356037,19.1143322483412
0.000819948146308361,19.1171696421431
0.00119018925820032,19.1197753488077
0.00163975773583162,19.1222031505464
0.00218276780536889,19.1245097546268
0.00284323546081889,19.1267604921985
0.00367077885298664,19.1290574109537
0.00476542740007629,19.1315561312795
0.00626104812533189,19.134382012819
0.00809797229363381,19.1372863047535
0.00948311804284497,19.1391827884057
0.011049875828063,19.1410792720578
0.0126806760111401,19.1428095640324
0.0143805626571797,19.1443847199474
0.0162334701217723,19.145878004216
0.0182633365595709,19.1472939707617
0.0205249592424255,19.1486545303187
0.023047602251243,19.1499596606561
0.0258778375098056,19.151216937287
0.0290561366329424,19.1524281787385
0.0326242981174397,19.1535945785192
0.0366383233509783,19.1547204364164
0.0411562315356864,19.1558082479455
0.0462412773400341,19.1568600179694
0.051976206479281,19.1578797575801
0.0584542435058814,19.1588706957602
0.0657863518365645,19.159836241274
0.0741060259788198,19.1607800216566
0.0835748405642587,19.1617058687788
0.0943956760624742,19.1626183259953
0.10682149821831,19.1635223412606
0.121176086918883,19.1644236878997
0.1378840426932,19.1653293701265
0.15752003048364,19.1662483107309
0.180900470710883,19.1671927900548
0.207951475722739,19.1681385658398
0.239334685572158,19.1690940038913
0.275935522721433,19.1700717400559
0.319077112227065,19.1710939997096
0.35792955252039,19.1719346629895
0.39896999978287,19.1727753262694
0.434832534944553,19.1734978650116
0.465912870083454,19.1741401742423
0.493172977405428,19.1747436489085
0.516806143777227,19.1753348564603
0.536501836350875,19.1759368024804
0.55140679609089,19.1765775893483
0.559596366173047,19.1773063815939
0.557370507799099,19.1780807777659
0.543132583777789,19.1788848069574
0.515346440872724,19.1797372926874
0.471876913373774,19.1806527352747
0.413327298308239,19.1815957774615
0.363912645440649,19.1822661661854
0.308971898849976,19.1829365549093
0.260906896817856,19.1834861709883
0.220513961858305,19.1839363372067
0.185468102061512,19.1843275377212
0.154307085570114,19.184683040524
0.126193376617863,19.1850164532274
0.100578318856962,19.1853371992569
0.0770351758676202,19.185653312513
0.0551440526825415,19.1859737881354
0.0342966167610945,19.1863134138275
0.0127383156545969,19.1867175576354
0.000528681591530365,19.1869817668748
-0.00700492735387019,19.1871626485076
-0.013897294490195,19.1873435301404
-0.0199008392994245,19.1875160443653
-0.0260325992812605,19.1877103516793
-0.0320436333298931,19.1879236234311
-0.0377349598359226,19.1881530591702
-0.0429933142496348,19.1883974436543
-0.0477577986687071,19.1886566258559
-0.0519989643895881,19.1889311916124
-0.0557065770860485,19.1892222981655
-0.0588811618458348,19.1895316069926
-0.0616941863786222,19.1898866272084
-0.0637539877263621,19.1902382859964
-0.065312456678159,19.1906159755806
-0.06638651213311,19.1910241689897
-0.0669891554798199,19.1914680302277
-0.0671300435081215,19.1919540730677
-0.0668134944661906,19.1924906823227
-0.0660343379714087,19.1930897968204
-0.0647726267110366,19.1937677531405
-0.0629861599119821,19.1945480296271
-0.0605884510517443,19.1954692974293
-0.0573769579292803,19.19661033353
-0.0531938121950142,19.1980374733714
-0.0491124579881546,19.1994147841205
-0.0451943169610591,19.2007508091736
-0.0414720503639118,19.2020484997808
-0.0379628635634506,19.20330897904
-0.0346755156213708,19.2045324484852
-0.0316132724286723,19.2057186624469
-0.0287753747382712,19.2068671784663
-0.0261579299265478,19.2079774881777
-0.0237545682434096,19.2090490821289
-0.0215569919271431,19.2100814760902
-0.0195554641574258,19.2110742134696
-0.0177392513857062,19.2120268518564
-0.0160970206183617,19.2129389381185
-0.0145284177773051,19.2138639190146
-0.0130203608735068,19.21481275282
-0.0115770314804457,19.2157872459831
-0.0102023025609823,19.2167896028626
-0.00889983317611818,19.2178224185311
-0.00767301616126673,19.2188887771484
-0.00652492434588152,19.219992381636
-0.00545825416356363,19.2211377294187
-0.00447526627588758,19.2223303564202
-0.00357772223878365,19.2235771856066
-0.00276681521804044,19.2248870420738
-0.00204309089281412,19.2262714462985
-0.00140635100960378,19.2277458999317
-0.00085552409030607,19.2293321110531
-0.000409405192050055,19.2309735979117
-5.7564654460195e-05,19.2326677999285
0.000215681099591187,19.2344332251487
0.000424747544522433,19.2362930767175
0.00058332568240105,19.2382788896647
0.000704886416831335,19.2404364607109
0.000803506546932042,19.242838737204
0.000895685910718246,19.2456198561631
0.00100657338240568,19.2491040023662
0.00114014271444546,19.2528757660388
0.0013110505819863,19.2570401378254
0.0015158212119751,19.2614794038707
0.00176560477548236,19.2665305136045
0.00201560730932725,19.2714368740914
0.00226931866894507,19.2763910624419
0.0024964387712512,19.2808317025881
0.00270136225607826,19.2848421146475
0.00289788953144929,19.2886772062286
0.00309278935381552,19.2924509394758
0.00329041190981785,19.2962288131175
0.00349418735324753,19.3000567802308
0.00370719561976233,19.3039715690541
0.00393244603670556,19.3080052064268
0.00417309187842155,19.3121880835198
0.00443258996932415,19.3165506377087
0.00471488063332486,19.3211246718078
0.00502465790731779,19.3259446816802
0.00536781712507749,19.3310491665102
0.00574267404418589,19.3363493776315
0.00612910300918614,19.3415134484165
0.00653608496613828,19.3466303890503
0.00696394709170298,19.3516600232288
0.00741759489019008,19.3566151687198
0.00790170806696967,19.3614984481708
0.00842192196077749,19.3663161348355
0.0089843046411035,19.3710716491118
0.00959548018866318,19.3757663911531
0.0102626993086661,19.3803999418514
0.0110046277663552,19.3850341442077
0.0118397051288885,19.3896974119745
0.0127865515112304,19.3943954835326
0.0138717257725783,19.3991518469662
0.0151357141752361,19.4040192187709
0.0166535382787403,19.4091288901296
0.018624748148804,19.4148990955804
0.020515098600303,19.4198152506114
0.0221067539874954,19.4236785399666
0.0237365292756574,19.4275418293218
0.0251376160538769,19.4309492359885
0.0263185095757486,19.4340680731364
0.0272937095979733,19.4370719736173
0.0280139283776911,19.4399400159223
0.028467932820867,19.4427348066702
0.0286439824529658,19.4455852434752
0.0284885294570907,19.4486902236327
0.0277779031806264,19.4526713391052
0.0269344554309658,19.4555900418752
0.0258701153652039,19.4585087446453
0.0247936771457108,19.4610738942737
0.0237208606197376,19.4634290967294
0.0226470828712901,19.4656739471711
0.0215736305044563,19.4678577512203
0.0205038603661183,19.470009087112
0.0194414911227683,19.472147034118
0.0183901245129956,19.4742855885557
0.0173531136952184,19.4764357448775
0.0163335337039007,19.4786066207348
0.0153341800631444,19.4808061362113
0.0143575998467722,19.4830414466639
0.0134061068377843,19.4853192504538
0.0124817213463315,19.487646017192
0.011586226458148,19.4900281605937
0.0107211768163788,19.4924722077429
0.00988791314288067,19.4949849253498
0.0090875661338667,19.497573470903
0.00831028907456813,19.5002846268078
0.00754634039695211,19.5031784832061
0.00679951556821272,19.5062762596224
0.0060736584290909,19.5096031059656
0.00537282321271019,19.5131880813276
0.00470122713200057,19.5170649136347
0.00406317724312971,19.5212729614479
0.00346294000736086,19.5258586837524
0.00290453459060293,19.5308781902289
0.00239146128981951,19.5364018254987
0.00192644143678179,19.5425219389715
0.00151311714899336,19.5493310136347
0.00116559570142929,19.5566595501902
0.000877051603661114,19.5646118594835
0.000650971142189525,19.5733278848537
0.000511953648540492,19.5809391847246
0.000379385876578502,19.5908701422899
0.000286226274229857,19.6008701422899
0.000221461585069972,19.6108701422899
0.000177021771591913,19.6208701422899
0.000147055246956094,19.6308701422899
0.000127259737436797,19.6408701422899
0.000114559137987083,19.6508701422899
0.000106824274136491,19.6608701422899
0.000102610360558596,19.6708701422899
0.000100942763556568,19.6808701422899
0.000101163734043728,19.6908701422899
0.000102831024042878,19.7008701422899
0.000105652317627335,19.7108701422899
0.000109442086881968,19.7208701422899
0.00011409243227364,19.7308701422899
0.000119553196092919,19.7408701422899
0.000125818682926553,19.7508701422899
0.000132919307051794,19.7608701422899
0.000140917015570305,19.7708701422899
0.000149903715049271,19.7808701422899
0.000160002258667062,19.7908701422899
0.00017136985325017,19.8008701422899
0.000184204037583035,19.8108701422899
0.000198751696518923,19.8208701422899
0.000215321959428224,19.8308701422899
0.0002343043590825,19.8408701422899
0.000256194409435742,19.8508701422899
0.000281629980483604,19.8608701422899
0.00031144382180741,19.8708701422899
0.000346740884601485,19.8808701422899
0.000389014783917828,19.8908701422899
0.00044032790548681,19.9008701422899
0.000500106649563275,19.9103646044942
0.000568018500114486,19.9191337526944
0.000645045202887683,19.9272241976573
0.000732397733734773,19.9346889587036
0.000831467778026701,19.9415775430886
0.000943836317176025,19.9479358676149
0.00107129479490396,19.9538065382606
0.00121587204464233,19.959229103217
0.00137986690745264,19.9642402643403
0.00156588344193233,19.9688740867406
0.0017768752404525,19.9731622071037
0.0020161951263931,19.9771340347461
0.00228765794791524,19.9808169295265
0.00259561439226037,19.9842363808727
0.00294504639335571,19.9874161996061
0.00334168946185804,19.9903787155
0.00379219134905314,19.993144983545
0.00430433022115069,19.9957350275466
0.00480911319708302,19.9978675137733
0.00540777480241242,20
