ecg,time
-0.00884382695468852,15.0004215766825
-0.00756342822662285,15.0014625505155
-0.00635958603485447,15.0025379023558
-0.00523529080811114,15.003651514532
-0.00419314214836507,15.0048081161781
-0.00323528899037098,15.006013548903
-0.00236336546823317,15.0072751492213
-0.00157842018448584,15.0086023190065
-0.000880834422719177,15.0100074141472
-0.00027022053081714,15.0115072060517
0.000253546391136001,15.0131213643433
0.000669581322111742,15.0147744518663
0.000995623791619784,15.0164849586477
0.00124688998144475,15.0182719037277
0.00143760984695107,15.0201602314429
0.00158141383607586,15.0221843342218
0.00169190783000543,15.0243951719626
0.00178367848961431,15.0268763496454
0.00187472520792506,15.0297895859221
0.00199487891394917,15.0335348974906
0.00213761120824368,15.0373637646429
0.00230431290246541,15.0411983485017
0.00249202369513067,15.0450572247831
0.00269717280646503,15.0489830695914
0.002916691720274,15.0530117202979
0.00314892155679706,15.057175691257
0.00339380840604397,15.0615065644917
0.00365279289935091,15.0660366997836
0.00392863003573376,15.0708007028676
0.00422529416108149,15.075836819356
0.00454811162443602,15.0811882331055
0.0048910786844792,15.0866941096657
0.00523927836280255,15.0920623722968
0.00559984596537708,15.0973630323824
0.0059737397517715,15.1025632699619
0.00636530799950996,15.1076789214634
0.00677851561849697,15.1127162464604
0.0072178676322089,15.1176842959227
0.00768803123272686,15.12258883371
0.00819401516050899,15.1274336293939
0.0087412421808833,15.1322203275735
0.00933567991940887,15.1369489377596
0.00998396544541215,15.1416182463489
0.0106969849226379,15.1462476627175
0.011498447910493,15.1509132987497
0.0124036709975827,15.1556091823878
0.0134363734841647,15.1603551200914
0.0146307623937984,15.1651907494932
0.0160456953039191,15.1702115817039
0.0178150491103265,15.1756869900637
0.0202333104558334,15.1822004149778
0.0218169364713064,15.1861021247216
0.023447039526655,15.1900038344655
0.0248728966561821,15.1934815257997
0.0260755495773457,15.1966425983562
0.0270730855752328,15.1996685836477
0.027825357792927,15.2025726054802
0.0283114166794452,15.20538737148
0.0285227753632311,15.2082389409165
0.028413857518317,15.2113110560902
0.0278074237568211,15.2151075680752
0.0269809473589031,15.21815987707
0.0259066727066722,15.2212121860648
0.0248253907162948,15.2238454676493
0.023751407942122,15.2262402053155
0.0226770071989739,15.2285136637263
0.0216026591609804,15.2307208278969
0.0205315480157885,15.232892607824
0.0194673703903799,15.235049324273
0.0184137463196612,15.2372057586825
0.0173740597877821,15.2393734662219
0.0163514182265096,15.2415620123343
0.0153486503117203,15.2437797049905
0.0143683159809509,15.2460340649961
0.0134127156710828,15.2483321600931
0.0124839049524202,15.2506808434713
0.0115837025901934,15.2530869576166
0.0107136989004231,15.2555575108979
0.00987527184623195,15.2580998189947
0.00906958863832714,15.2607216856998
0.0082966365616513,15.2634351492081
0.00753688275618358,15.2663312259802
0.00679422427369743,15.2694305554527
0.00607246321875651,15.2727581545224
0.00537560348594131,15.2763429421184
0.00470781025468249,15.2802184709539
0.00407333198234282,15.2844239276386
0.00347637593363656,15.2890056030533
0.00292091824583137,15.294019350125
0.00241042394375714,15.2995352712351
0.00194760986623685,15.3056453186361
0.00153475147132056,15.3124672807659
0.00127100681791335,15.3178717133561
0.00106646267713713,15.3232761459462
0.000850744540533973,15.330815276535
0.000677758697050807,15.3389729772327
0.000538060414993977,15.3479848749575
0.000430144700045732,15.3579848749575
0.000358847523457571,15.3679848749575
0.000313942365016228,15.3779848749575
0.000288003728642855,15.3879848749575
0.000275812122590795,15.3979848749575
0.000273874571544889,15.4079848749575
0.000279983912733096,15.4179848749575
0.000292866863712999,15.4279848749575
0.000311948024464719,15.4379848749575
0.0003372215069708,15.4479848749575
0.00036921177036872,15.4579848749575
0.000409014861501792,15.4679848749575
0.000458293493012219,15.4779591608741
0.000515018611109523,15.487208222199
0.00057969535241816,15.4957593040136
0.000653202394172002,15.5036642883166
0.000736648546963977,15.5109722756606
0.000831337119669355,15.5177288798852
0.000938763552328253,15.5239765152842
0.00106063078403087,15.5297546643339
0.00119887270179387,15.5351000993086
0.00135568297101471,15.5400470703793
0.00153354727981927,15.5446274867772
0.00173528349106468,15.5488710902948
0.00196408740174129,15.5528056178284
0.00222358900345012,15.5564569506655
0.00251792059563228,15.5598492663266
0.00285180149195484,15.5630051972535
0.00323064656906755,15.5659459930393
0.00366070548215217,15.5686916932493
0.00414924972780997,15.5712613267879
0.00470483047472477,15.5736731496827
0.00533764588963176,15.5759449465247
0.0060554005721247,15.5780817110083
0.00684723330155947,15.5800483814198
0.00772251267893515,15.5818773195102
0.00869535666544688,15.5836008822178
0.00978733478256058,15.5852528663481
0.0110354799181611,15.5868753345224
0.0125550065656193,15.588577772286
0.0146758870869086,15.5906165127598
0.0164145173725965,15.5920978568415
0.0182839608167305,15.5935792009232
0.0199697578580161,15.5948710739538
0.0214583577640057,15.596021776467
0.0227953928944423,15.5971077429604
0.0239880460883214,15.5981743220408
0.0250224012588763,15.5992590188831
0.0258664812151189,15.6004069958881
0.026457639617704,15.6016964240834
0.026631028534762,15.6033531020056
0.0261682246310416,15.6050381935271
0.0251708050177296,15.6067232850485
0.0240231600822346,15.6081390668162
0.0227278077087409,15.6095107326926
0.0212834946610164,15.6109175276351
0.0196986801457899,15.6124007344057
0.0179789446628593,15.6139995544181
0.0161540300401348,15.6157662312064
0.0144277538435504,15.6175825217726
0.0119063913867529,15.6205815347577
0.00987404131449954,15.6234173492189
0.00827960315200377,15.626020725084
0.00697362193687185,15.6285036517335
0.00583592645461358,15.631024980703
0.0048394601657458,15.6336145639423
0.00396572353638878,15.6362956119303
0.0032386032354623,15.6389378472139
0.00262670760986921,15.6415677156829
0.00208848025270397,15.6443113313918
0.00156195160833746,15.6475516787904
0.0012530939198757,15.6498124082332
0.000984586231473264,15.652073137676
0.000775660865769091,15.6540781673543
0.000603269725305226,15.6559383125461
0.000449902553474859,15.6577879115915
0.000305196182843349,15.6597415887438
0.000159000179872724,15.6619737313167
-1.10198618930828e-05,15.6649986312064
-0.000218848847350398,15.6696128118277
-0.000348396654752831,15.6733233224239
-0.00044261457363706,15.6767410241861
-0.000522707500972805,15.6805821108046
-0.000586195240334058,15.6853902763084
-0.000605320021409569,15.6904306713639
-0.000571290061850969,15.6949475713579
-0.000483905855421432,15.6990642390893
-0.00034037064919868,15.7028057632418
-0.000136393284921343,15.7062166595315
0.000133243735873093,15.7093394530303
0.000475348382211192,15.7122214958912
0.000899412575758463,15.7149135608419
0.00141912050199026,15.7174684092251
0.00205807698427464,15.7199535183739
0.00284729836214367,15.7224240251521
0.00383314092216637,15.7249424609648
0.00505487251517982,15.7275189304142
0.00646381889144264,15.7300042137788
0.00797794533432769,15.7322707665125
0.00953686251135562,15.7342752414858
0.0111557571721034,15.7360768955525
0.0128697208710532,15.7377323522839
0.0147355924120677,15.7392957559007
0.0167934417837788,15.7407884784319
0.0190530773589232,15.7422049283627
0.0215677467853686,15.7435654241184
0.0243741969683014,15.7448741415235
0.027506484194861,15.7461322047441
0.0310153002390793,15.7473456581202
0.034948778203889,15.7485168134834
0.0393660664229609,15.7496492876324
0.0443360099954787,15.7507466971999
0.0499381091133371,15.7518124449492
0.0562659095656389,15.7528499988632
0.0634363641120294,15.7538637513989
0.0715906384296256,15.7548581428838
0.0809050666212981,15.755838221796
0.0916043532955455,15.7568098799809
0.103984796215874,15.7577804538264
0.118451882469055,15.758759530425
0.135589250263266,15.7597604790701
0.155801507285143,15.7607803010644
0.179263762447472,15.7618074946477
0.206655682848576,15.7628556368178
0.238938465464601,15.763945088744
0.277665166227072,15.7651119245382
0.319770493535037,15.7662727342197
0.355318660006269,15.7672088741127
0.385928536577073,15.7680136790839
0.412768833152962,15.7687468314714
0.43615253426321,15.7694403788034
0.45598211867503,15.7701168886744
0.471836380677625,15.7707965098344
0.482880095409831,15.7715014867714
0.487557206879757,15.7722623202321
0.483080259834235,15.7730982413277
0.467633692241839,15.7739481162699
0.439985905655236,15.774825398143
0.398659664521694,15.7757402020783
0.354957574914041,15.7765017688241
0.314605317346039,15.7771092069094
0.270217729918434,15.7777166449947
0.230630424838026,15.7782282776606
0.19614658811032,15.7786642629192
0.165487726558221,15.7790531849811
0.137814287951922,15.7794123786657
0.112597037912389,15.7797529603091
0.089455287836643,15.780083295913
0.0680639814064795,15.7804110873916
0.0480669533265718,15.7807456577309
0.0288787839293926,15.7811036799863
0.00849746191449459,15.781543801322
-0.000831485078510001,15.7817754111452
-0.00923960897021847,15.7820070209685
-0.015597192957068,15.7822007335072
-0.0214307374344323,15.7823964985877
-0.0272494286215369,15.782613730631
-0.0328296631047303,15.7828490127568
-0.0380303578633002,15.7831003239796
-0.0427743496109209,15.7833670276442
-0.0470211662121963,15.7836494049191
-0.0510689373696431,15.7839777902393
-0.0541864750562568,15.7842941262302
-0.0567867560806548,15.7846300829296
-0.0588855945941422,15.7849886460946
-0.0604961242560732,15.785372951788
-0.0616319418706094,15.7857868493066
-0.0623056421638609,15.7862350908197
-0.0625273400664167,15.7867236032705
-0.062303009001018,15.7872598970158
-0.0616315202585074,15.787854273945
-0.0604997987392468,15.7885210076711
-0.0588789662429764,15.7892793156576
-0.0567115920037873,15.790158691304
-0.053877277401862,15.7912114477925
-0.0500510547377898,15.7925639575988
-0.0461022856329804,15.7939355896147
-0.0423114292843847,15.7952614619717
-0.0387160924288421,15.7965456889623
-0.0353340464303518,15.7977904037945
-0.0321734751741574,15.7989964393206
-0.0292366296852856,15.8001639646489
-0.0265216169992467,15.8012928245565
-0.0240234602543423,15.8023827173713
-0.0217348444517377,15.8034332849033
-0.0196467107499656,15.8044441521593
-0.0177487623570821,15.8054149367186
-0.0160299058491265,15.806345238531
-0.0144343479092425,15.807260799759
-0.0128970891133151,15.8081996936556
-0.0114228186589064,15.8091633727306
-0.0100154867876926,15.8101539064304
-0.00867885020391911,15.8111737176952
-0.00741641752605439,15.8122256730092
-0.00623139663785182,15.8133131972043
-0.00512663919665838,15.814440427571
-0.004104582063769,15.8156124254678
-0.00316718487856189,15.8168354747273
-0.00231586209801201,15.8181175159334
-0.001551406224568,15.8194688028527
-0.000873895911653634,15.8209029419501
-0.000282576328664374,15.8224386381361
0.00021384306484943,15.8240638242918
0.000608614978614993,15.8257337452236
0.000918603942639423,15.8274667178241
0.00115877010407142,15.8292834126042
0.0013432246368897,15.8312113183722
0.00148568608228217,15.8332891390673
0.00160018792396682,15.8355758884144
0.0017024565871985,15.8381727017307
0.0018137553416844,15.8412914230763
0.00195557462602853,15.8450259129152
0.00212445920112084,15.8488961873118
0.00231622159270958,15.8527651760684
0.00252839944455811,15.8566803178384
0.00275750622469719,15.8606809684266
0.00300091619231534,15.8648013504973
0.00325757785705894,15.8690735600782
0.00352811442523056,15.8735296259714
0.00381468770365232,15.8782030853268
0.00412085089231412,15.8831303999248
0.00445155127395996,15.8883522049666
0.00480972434769375,15.8938575591064
0.00516970117894613,15.899195129922
0.00554246770958705,15.9044903095419
0.00592730881171981,15.909684674786
0.00632894082456699,15.914796911626
0.00675124769786136,15.9198300543151
0.00719891673757151,15.924793347254
0.00767677839129723,15.9296925727065
0.00819002364143771,15.9345317840314
0.00874424282003177,15.9393128045591
0.00934555716875132,15.9440357398591
0.0100007433660952,15.9486994030015
0.0107221273009891,15.9533309861734
0.0115325292006022,15.9579977410606
0.012447879011294,15.9626959308853
0.0134924225849534,15.9674460314978
0.0147014942965625,15.9722900519446
0.016136716369987,15.9773297109269
0.0179421549660048,15.9828578160032
0.0203634732348946,15.9893234426283
0.0219357201302407,15.9931787406937
0.0235480232360904,15.9970340387591
0.0249562590663557,16.0004794449428
0.0261441703367745,16.0036254123583
0.0271270398881253,16.0066471351555
0.027860058688868,16.0095406007115
0.0283269964142896,16.0123533107267
0.0285175564791651,16.0152132301713
0.0283818592894416,16.0183128522391
0.0277187133779418,16.0222184417232
0.0268822345198057,16.02520572531
0.0258133781778329,16.0281930088969
0.0247346442497215,16.0307976831063
0.0236611431930167,16.0331794621411
0.0225869584112723,16.0354459022116
0.0215130224896734,16.0376490059777
0.0204426141354446,16.0398185309816
0.0193794407298009,16.0419742265804
0.0183271112766613,16.0441305447569
0.0172889929013848,16.046298831451
0.0162681750866964,16.0484885093202
0.0152674689429882,16.0507077826194
0.014289417728496,16.0529640917829
0.0133363060635557,16.0552644380229
0.012410174057368,16.0576156163105
0.0115128261265629,16.0600244121276
0.010645838192417,16.0624977765108
0.00981057429903158,16.065042961825
0.00900818768995362,16.06766769971
0.00823612046907777,16.0703932609912
0.00747753820772433,16.0733026974713
0.00673631959179907,16.076416954707
0.00601628399372599,16.0797612628649
0.00532144946448918,16.0833647861595
0.00465599107075632,16.0872613546363
0.00402415930722526,16.0914904759713
0.00343015030270959,16.0960988383833
0.00287791035612816,16.1011428354714
0.0023708508878782,16.1066933962389
0.00191162194826567,16.1128436552524
0.00150324198953122,16.1196974673937
0.00116028543845838,16.1270775465539
0.000954556221606409,16.1330744806391
0.00074555510723301,16.1412706993439
0.000586943378651083,16.1497978296985
0.000461044624322718,16.159159749932
0.000367874905151565,16.169159749932
0.000305889197206346,16.179159749932
0.000266266300952202,16.189159749932
0.000242588011337001,16.199159749932
0.000230337446462272,16.209159749932
0.000226467599076554,16.219159749932
0.0002290056440049,16.229159749932
0.000236739115932716,16.239159749932
0.000249001202417061,16.249159749932
0.000265541629419025,16.259159749932
0.000286461503759795,16.269159749932
0.000312196941460736,16.279159749932
0.000343547054883167,16.289159749932
0.000381752916940151,16.299159749932
0.000428646922562321,16.309159749932
0.000482548715591649,16.3184706385628
0.000543930942268958,16.3270839093694
0.0006137002865523,16.3350494652693
0.000692961336245544,16.3424159214655
0.000782991993025375,16.3492285883094
0.000885247719272925,16.3555296695453
0.00100137929510777,16.3613585013893
0.00113325667188504,16.3667517576915
0.00128299730408327,16.3717436273347
0.00145299747405221,16.3763659834335
0.00164597032975,16.3806485462182
0.00186498914027513,16.3846190382012
0.00211354023046587,16.3883033291754
0.00239558604161744,16.3917255811059
0.00271564353957124,16.3949083981089
0.00307888315911811,16.3978729803325
0.00349125491278289,16.4006392857271
0.00395965573862663,16.4032262121416
0.00449215662571724,16.4056518104732
0.00509832136050465,16.4079335475666
0.00578967411687512,16.4100886584011
0.00655588277251975,16.412076542659
0.0074014477997897,16.4139171388354
0.00833830325810227,16.4156418628655
0.00938413472278774,16.4172821701271
0.0105674976687078,16.4188738523788
0.0119572223666596,16.4204845380472
0.0137574334274641,16.4222812535571
0.0157730362399523,16.4240349055681
0.0174926473007136,16.4253950386552
0.0193064406949212,16.4267551717422
0.0209292766037706,16.4279537148133
0.0223802605010219,16.4290527645166
0.0236845174442943,16.4301095659282
0.024839035990688,16.4311634496041
0.0258225392464272,16.432252943627
0.026592494102871,16.4334321957616
0.0270593287474916,16.4348139775206
0.0268738497930637,16.4369037806064
0.0261754970000862,16.4383659201055
0.0251169404331438,16.4398280596046
0.0238952675027726,16.441189952158
0.022514165378343,16.4425610131914
0.020982240911266,16.4439905719209
0.0193075046226519,16.445516593255
0.0182101224867417,16.4465187625233
0.0171389183841072,16.4475209317915
0.0157965951633226,16.4488440079587
0.0131674019290879,16.4517154689328
0.010823580932954,16.4547038862095
0.00900843299227628,16.4574227484707
0.00756646482084083,16.4599430850951
0.00634085930797859,16.4624364409915
0.00526928305027183,16.4649833541835
0.00432943998986621,16.4676093641598
0.00351693763405404,16.4702931629397
0.00286694028286541,16.4728255526025
0.00233808905776676,16.4752338378228
0.001898018999635,16.4775587205669
0.0015220394143095,16.4798514969177
0.00119007579531215,16.4821843508428
0.000881902405680895,16.4846898563483
0.000553267610668643,16.487844422252
0.00037637764755362,16.4898134949229
0.000217888969471144,16.4917825675937
8.84844470703839e-05,16.4935630945018
-2.20011822845788e-05,16.4952288479326
-0.000123143082628909,16.4968907400214
-0.000221437327955011,16.4986512724502
-0.000324278792057493,16.5006720439115
-0.000450394347483268,16.5034484261381
-0.000606929296539391,16.5074729715197
-0.000716586561435782,16.5108024962961
-0.000805265437876463,16.5139203036761
-0.000890937911552641,16.517448251317
-0.00097882114180792,16.5219371183959
-0.00105314637561303,16.5274805349758
-0.0010780699422181,16.5322968663662
-0.00105500693500939,16.5366638646265
-0.000979552032574032,16.5405895524316
-0.000846891886276053,16.54412029721
-0.00065144506044656,16.547314424061
-0.000386519076606741,16.5502316501028
-4.30364072602385e-05,16.5529347148006
0.000392014041274485,16.5554858876178
0.000936869096710651,16.5579433010753
0.00162514708488255,16.5603896373957
0.00251426493436645,16.5629258187557
0.0037340644273042,16.5657497196558
0.00531564708919624,16.568759304486
0.00671157683507293,16.5710249399282
0.00831040727239294,16.5732905753705
0.00990188094580811,16.5752585636065
0.0114988719609889,16.5769879158861
0.0132171433500245,16.578615969808
0.0150640517250801,16.580140962595
0.0171005440243454,16.5816012327023
0.0193548252480646,16.5830001318189
0.0218661828532257,16.5843455598557
0.024671576512365,16.5856409074134
0.0278083561787543,16.5868880215507
0.0313237358574745,16.5880909749245
0.0352642840244192,16.589251507901
0.0396884603195469,16.5903731252719
0.044663697799292,16.5914592357856
0.0502679169837077,16.5925131158957
0.0565924453620624,16.5935380788997
0.0637496667652238,16.594538122549
0.0718762828741613,16.5955175109394
0.0811405554931183,16.59648086541
0.0917545808896744,16.5974334879085
0.103992099943413,16.5983816927623
0.118216099358612,16.5993332838915
0.134931577641018,16.600298748236
0.154878219162616,16.6012930076239
0.178017736447294,16.6022909051157
0.204913102175878,16.6033005914877
0.236372501614636,16.6043366235719
0.273572239948635,16.6054220587995
0.316945575107754,16.6065619643537
0.358330086960376,16.6075759610741
0.392810941780933,16.608401022832
0.422588389573943,16.6091270710626
0.448627862898986,16.6098016165145
0.471111543827073,16.6104523618596
0.489796564209066,16.6111012299725
0.504024509599616,16.6117709715862
0.51247843151797,16.6124922878045
0.512431391852225,16.6133057102791
0.501384937592146,16.6141326383587
0.478143230871873,16.6149893251667
0.441123138511038,16.6158879967687
0.388528105391427,16.6168375899121
0.344430409966535,16.6174974912168
0.295035904940346,16.6181573925214
0.250939354521457,16.6187063022147
0.213240052467289,16.6191614763798
0.180173078296812,16.6195597706057
0.150573409884492,16.6199229312469
0.123749628439965,16.6202640164446
0.0992365030813819,16.6205922038009
0.0766658369368655,16.6209153170928
0.0556742621913468,16.6212419502726
0.0357498972127482,16.6215855898609
0.0155626550060689,16.6219832568072
0.00714009437577665,16.6221700421601
-0.000623727243379234,16.6223568275131
-0.00837614818523189,16.622560851377
-0.0148631829251257,16.6227484929693
-0.0207795002352176,16.6229366161435
-0.0267252653537256,16.6231464573566
-0.0324574420437377,16.6233744233816
-0.0378207654811145,16.6236183204094
-0.0427294933086954,16.6238773823387
-0.0471392910824489,16.6241517867132
-0.0510267048094614,16.6244423857648
-0.054514477536776,16.6247647865851
-0.057288342607866,16.6250906496736
-0.0595493528930977,16.6254380777161
-0.0613128602410717,16.6258102750544
-0.0625930027307376,16.6262109240209
-0.0634031797623871,16.626644570225
-0.0637545563966242,16.6271168819653
-0.0636543971414425,16.627635035437
-0.0631037432558314,16.6282084767521
-0.0620918334874366,16.6288510393674
-0.0605927228681869,16.6295808135516
-0.0585539833542313,16.6304252167245
-0.0558668111019149,16.6314316939436
-0.0522523598213972,16.6327082299054
-0.048213948538248,16.6340995748959
-0.044314426722721,16.6354448620319
-0.0406006744729955,16.6367487350035
-0.0370951556859716,16.6380135690731
-0.0338090456731306,16.63924027443
-0.0307468119373137,16.6404290162059
-0.0279083261180486,16.6415795980639
-0.0252900399768701,16.6426916638527
-0.0228857758076205,16.64376480112
-0.0206873429517684,16.6447985892845
-0.0186850621571545,16.6457926148101
-0.0168682273370213,16.6467464654276
-0.0152255138634415,16.6476597099981
-0.0136588383589668,16.6485844854055
-0.0121527058188308,16.6495330722744
-0.0107113288114246,16.6505072636233
-0.00933859038508033,16.6515092604319
-0.00803815987123404,16.6525416522969
-0.0068134408766767,16.6536075155
-0.00566751795625079,16.6547105420567
-0.00460310068078799,16.6558552144994
-0.00362246477130274,16.6570470483925
-0.00272738939060209,16.6582929385328
-0.00191908869678727,16.6596016701967
-0.00119813396609264,16.6609847057793
-0.000564359081474071,16.6624574584844
-1.67346364299717e-05,16.6640414935287
0.000426589058364998,16.6656824594045
0.000775350409066955,16.6673757730409
0.00104528025617814,16.6691399368725
0.00125081831448435,16.6709980422708
0.00140567760894896,16.6729814390605
0.00152335062861721,16.6751355894969
0.00161793659618022,16.6775327604709
0.00170595142358361,16.6803053892606
0.00181245658551336,16.6837712181427
0.00194356212908209,16.6875406546138
0.0021139804485398,16.6916945727239
0.00230386360782514,16.6957615599503
0.00250039744543902,16.6996491692241
0.00270231797691097,16.7034696968097
0.00290931759098284,16.7072918918967
0.00312205144361508,16.7111634698565
0.00334204811675586,16.7151223073446
0.00357155782394944,16.7192016040902
0.00381341955393592,16.7234327081248
0.00407098294018655,16.7278470120075
0.00434811364370266,16.7324774140646
0.00464934278989312,16.7373597718476
0.00498022191273362,16.7425341734787
0.00533967114480099,16.747922864757
0.0057071117668983,16.7531686761535
0.00609148266398093,16.7583671051284
0.00649275138605435,16.7634730736095
0.00691556506669595,16.7685016178355
0.00736416149559956,16.7734561181384
0.00784361290236447,16.7783441622655
0.00835929346356818,16.7831702829109
0.0089170514270474,16.7879371912186
0.00952325256138474,16.7926454970439
0.010184911013974,16.797294313305
0.0109183235802474,16.8019330676501
0.0117434573025457,16.8066040188179
0.0126779669883693,16.8113098031507
0.013747611739586,16.816073203264
0.0149911293165947,16.8209437946337
0.0164789729449597,16.8260437116433
0.0183909604133838,16.8317491891297
0.0208112924086798,16.8380798458692
0.022346580927937,16.8418087192736
0.0239039537799505,16.845537592678
0.0252579724389966,16.8488943764749
0.0263993640239412,16.8519994095499
0.027334901819264,16.8550122664864
0.028006798518299,16.8578773768681
0.0284122735279891,16.8606882009592
0.0285348227583116,16.8635806072741
0.0283083262355796,16.8667822359858
0.0274137469317485,16.8711691297551
0.0265408398057143,16.8739614981165
0.0254816435330824,16.8767538664779
0.0244078236714246,16.8792642123795
0.0233344173017116,16.8816003152649
0.0222600350084668,16.8838417196004
0.0211868742079383,16.8860307714109
0.0201184639022415,16.8881932152711
0.0190585108372621,16.8903467526936
0.0180105564826748,16.8925046510042
0.0169778834570876,16.8946775169772
0.0159634947201046,16.8968742903212
0.0149701174265117,16.8991028515023
0.0140002146932868,16.9013704219399
0.013055994561405,16.903683857169
0.0121394231280161,16.9060498616552
0.0112522344846451,16.9084751692699
0.0103959358350009,16.9109667149399
0.00957182483335853,16.913531762567
0.00878099062923831,16.916178079805
0.0080126937127733,16.918957920536
0.00725911117749304,16.9219276373018
0.00652407503447343,16.9251095370301
0.00581147642643996,16.928529976313
0.00512539271373638,16.9322194665082
0.00447003977748963,16.9362134569587
0.0038496756785607,16.9405534757252
0.00326845002286636,16.9452889037781
0.00273019341986383,16.950479965186
0.00223810915012567,16.9562036355504
0.00179461271773438,16.9625621825371
0.00140769989508061,16.9695648535659
0.00116152878647734,16.9751290458208
0.0009676521000417,16.9806932380757
0.000770189466790975,16.9882956535701
0.000611787874097792,16.9966133284359
0.000483531547940817,17.0059379096133
0.000388689839636676,17.0159379096133
0.000326265243849036,17.0259379096133
0.000287311100088743,17.0359379096133
0.000265346218381183,17.0459379096133
0.000255810650091919,17.0559379096133
0.000255660774730339,17.0659379096133
0.000262999270779436,17.0759379096133
0.000276776058834229,17.0859379096133
0.000296587932993626,17.0959379096133
0.000322574914651403,17.1059379096133
0.000355401178968209,17.1159379096133
0.00039631674625961,17.1259379096133
0.000446917794984643,17.1358662106671
0.00050529129640089,17.1450605779306
0.000572045629289295,17.1535518644649
0.000648153551543942,17.1613938716848
0.000734814310588819,17.1686372244117
0.000833426890121616,17.1753287752203
0.000945592864824067,17.1815119432201
0.00107313439967465,17.1872270232344
0.00121811980153834,17.1925114427042
0.00138289458075024,17.1973999820982
0.00157011699713176,17.2019249814341
0.00178280186950014,17.2061165352868
0.00202437178118365,17.2100026739514
0.00229871985667148,17.2136095323424
0.00261028747973593,17.2169615210328
0.00296416178938069,17.2200815042298
0.00336620245806565,17.2229909841818
0.00382320806109821,17.2257103035062
0.00434314373422161,17.2282588840546
0.00493546325302763,17.2306555225292
0.00561158266501495,17.2329187851948
0.00636553685521843,17.2350166008386
0.0071992839616999,17.2369599188704
0.00812535685020062,17.2387829144384
0.00916285348504643,17.2405207404153
0.0103436235623991,17.2422149331438
0.0117363797980129,17.2439355704997
0.0135996531992229,17.2459150237069
0.0153329249522319,17.247537116597
0.0172220761914795,17.2491592094871
0.0189138544396816,17.2505481526621
0.0203869633470431,17.2517572865745
0.0217051781754361,17.252884266513
0.0228825609504536,17.2539809968998
0.0239091998748768,17.2550860405244
0.0247581093665954,17.2562417802532
0.0253773091012797,17.2575147646117
0.0256461326779861,17.2590672499356
0.0252999132854704,17.2608834721216
0.0243438982955597,17.2626996943076
0.0232292252566264,17.2641705729861
0.021979575050373,17.2655638254672
0.0205886747547999,17.2669782551604
0.0190645185364804,17.2684582976508
0.0174141822236447,17.2700416678893
0.0156660107601935,17.2717753630054
0.0143254482003513,17.2732031943594
0.0118448048341386,17.2761516620594
0.00979916132430655,17.2789928579909
0.00818833167106905,17.2816058286997
0.0068686983836554,17.2840939928482
0.00571729272618025,17.2866196014471
0.00470671517647728,17.2892128870642
0.0038647547248407,17.2917450779422
0.00317706139756358,17.2941568749567
0.00260544897922518,17.2964787421519
0.00211962000300006,17.2987526530936
0.00169390791987982,17.3010430906898
0.00130085710622312,17.3034809518994
0.000877908938610465,17.3065661000804
0.000652624618915391,17.3084648315135
0.000450060682935314,17.3103635629466
0.000283397775558906,17.3120884005683
0.000139546602785201,17.3137160629052
6.70897136918466e-06,17.3153515789143
-0.000123560076171634,17.3170977401036
-0.000261676682919678,17.3191269336884
-0.000437803981585648,17.3220284260645
-0.000631308803704474,17.3257131080562
-0.000772149709639225,17.3288043437746
-0.000893650438448793,17.3318164371377
-0.0010163321455395,17.3352626391333
-0.00115063427726448,17.3396543244999
-0.0012909967942407,17.3453836686018
-0.00137411744650334,17.3503185788285
-0.00140746453091735,17.3548087750476
-0.00138626235179142,17.3588489784105
-0.00130530323687051,17.3624910043699
-0.00115888375717196,17.36578434923
-0.000940574357042188,17.3687869544021
-0.000642499545582486,17.3715575313356
-0.000252781216306822,17.3741632261893
0.000248728495117992,17.376682617532
0.000905729720584964,17.3792409259167
0.0018148590195848,17.3820423978165
0.00303632089786676,17.3850916886452
0.00461170915750091,17.3883756425008
0.00589649778142215,17.3907118697668
0.0073383993947038,17.3930480970328
0.00872862269469858,17.3950429302476
0.0101395534313453,17.3968323656844
0.0116250664843935,17.3984893134269
0.0132474165382925,17.4000709691451
0.0150308928773688,17.4015819706018
0.017019040651228,17.4030394558943
0.0192335352870616,17.4044398175059
0.0217128026128835,17.4057897949397
0.0244868175180894,17.4070890750379
0.0275917731148744,17.4083396486545
0.0310715717311718,17.409544975608
0.0349733184020765,17.4107075767778
0.0393488881297093,17.4118296627489
0.0442656072723225,17.4129153666471
0.0497992925389663,17.4139680680035
0.0560399171446856,17.4149913163577
0.0630954706297776,17.4159888854856
0.0710961271677026,17.416964725089
0.0802036861422751,17.4179233708384
0.0906204091013467,17.4188698824384
0.102604542908098,17.4198101325178
0.116495264028451,17.4207512904863
0.132753835839908,17.4217025793463
0.152039418435233,17.4226767468029
0.174647800889135,17.4236640519358
0.200876277666861,17.4246590501183
0.231462125990447,17.4256741445252
0.267435209801983,17.426728025528
0.310478624840492,17.4278554779753
0.345612730133551,17.4287071095585
0.382137861887903,17.4295587411418
0.414605191144273,17.4303135252888
0.442998052991541,17.4309986663247
0.467770592653851,17.4316475144969
0.488906289867968,17.4322842596352
0.505981921722249,17.4329309216592
0.518059713338481,17.4336138708866
0.523199964602911,17.4343753413379
0.518234183852747,17.4351858211038
0.501613070263227,17.4360200544194
0.471896527910652,17.4368931701452
0.427288150771072,17.4378158267871
0.37938621382347,17.4385984190782
0.335192507731484,17.4392220947091
0.286546056562797,17.4398457703401
0.243619204316812,17.4403653302821
0.206717465674668,17.4408024021958
0.174206298435938,17.4411889908318
0.145033782895491,17.4415441397146
0.118558104386343,17.4418797061954
0.09433254677748,17.4422043864483
0.07198796210042,17.4425260175557
0.0511331936873764,17.4428539292585
0.0311435817637422,17.4432046333143
0.00991497570128213,17.4436360127135
0.000230340974989251,17.4438624319017
-0.0084953492799291,17.4440888510899
-0.0149901615708613,17.444275190035
-0.0209545593721732,17.4444634059544
-0.0269303481147781,17.4446728939404
-0.0326801841510423,17.4449002105702
-0.0380532600099819,17.4451432896898
-0.0429663896529592,17.445401440324
-0.0473767518195858,17.4456748859944
-0.0512641993712288,17.445964509959
-0.0548666302815534,17.4462980274821
-0.0576184116991373,17.4466239360788
-0.0598547806035776,17.4469714070455
-0.0615929066419894,17.447343854486
-0.0628471175212728,17.4477450289495
-0.0636308491714789,17.4481795637696
-0.0639551455193449,17.448653247652
-0.0638269462457611,17.4491734282821
-0.0632465399739569,17.4497499016003
-0.0622019772975445,17.4503968405109
-0.0606652483368484,17.4511330567364
-0.0585797428600709,17.4519873924099
-0.0558262596923819,17.453010830262
-0.0520853929044375,17.4543253177212
-0.0480413821905582,17.4557144988034
-0.0441401091949151,17.4570587167998
-0.040426120988935,17.4583621783335
-0.0369209749232656,17.4596270037942
-0.033635461058706,17.4608539583353
-0.0305738831223743,17.4620431212179
-0.0277360499210944,17.4631942430679
-0.0251183972945359,17.4643069336607
-0.0227147525687321,17.4653807579219
-0.0205169376860795,17.4664152799101
-0.0185152866769964,17.4674100755953
-0.016699103897174,17.4683647256851
-0.0150570706568475,17.4692787946693
-0.0134935538814619,17.4702030028235
-0.0119905500278157,17.4711510009811
-0.0105522986324918,17.4721245630744
-0.0091826912717666,17.4731258818395
-0.00788540866428133,17.4741575367753
-0.00666386880991052,17.4752225917123
-0.00552117407993782,17.4763247230176
-0.00446005586237321,17.4774683931615
-0.00348281650915835,17.4786590914133
-0.00259126780552248,17.4799036772209
-0.00178666428921065,17.481210886884
-0.00106962813465738,17.4825921123905
-0.000440059185945053,17.4840626609019
0.00010298295251512,17.4856439278878
0.000542044062226024,17.4872838901496
0.000886087803405474,17.4889757797915
0.00115083293783176,17.49073807221
0.00135066676215552,17.4925937124297
0.00149921829412832,17.494573814162
0.00160984299418663,17.4967234203513
0.00169640224939894,17.4991139548786
0.00177493902088269,17.5018757736171
0.00186924267487144,17.5053188695866
0.00198774688122121,17.5090846752773
0.00214427695416688,17.5132248739623
0.0023198706177066,17.5172541394004
0.00250390393016261,17.5211239698368
0.00269446118028829,17.5249381175477
0.00289077513302747,17.5287613495097
0.00309317643915449,17.5326395751455
0.00330294884293502,17.5366098183274
0.00352214580678137,17.5407049245013
0.00375343507061404,17.5449562158502
0.00400000036095363,17.5493953001946
0.00426553250310053,17.5540555291581
0.00455436935344417,17.5589734674391
0.00487184648202965,17.5641901772977
0.00521746272727347,17.5696355960179
0.00557017583897217,17.5749281715413
0.00593896142039007,17.5801708463579
0.00632364262326357,17.5853163337302
0.00672874204806927,17.5903816049946
0.00715827006303494,17.595370666006
0.0076170146910109,17.6002919099145
0.0081100091782583,17.6051504595799
0.00864271905936739,17.6099496024065
0.00922108306577081,17.6146904215285
0.00985164357844096,17.6193723717418
0.0105416886819787,17.6239939147231
0.0113168208829772,17.6286527379365
0.0121909642887975,17.6333388675151
0.0131861025021318,17.6380693317054
0.0143328696505191,17.6428760117843
0.015681525619976,17.6478347433538
0.0173364659355299,17.6531464874914
0.019664988965982,17.6596251280352
0.0213264017088613,17.6637990894179
0.0230624025316438,17.6679730508006
0.0245575693085736,17.6715856358321
0.0258124185110585,17.674806414595
0.0268602773587219,17.6778520402492
0.0276787686197637,17.6807961370036
0.028229810390975,17.6836218228508
0.0285106024152498,17.6864506848868
0.028487913690439,17.6894434596902
0.0280408865539436,17.692959700625
0.0272467067835607,17.6962447380773
0.0261481597684104,17.6995297755297
0.0250570394910585,17.7022540023738
0.0239819435146812,17.7046855988471
0.0229077569380949,17.7069776308891
0.0218332597211527,17.7091947200912
0.0207613212797744,17.7113711670708
0.0196956056720807,17.7135288822979
0.0186397699112712,17.7156835157548
0.0175972536251674,17.7178471336549
0.0165712236049426,17.7200296098571
0.0155645680311441,17.7222394310852
0.0145799028546041,17.7244842118535
0.0136195833389901,17.7267710446321
0.0126857176026883,17.7291067524377
0.0117801727050539,17.731498103655
0.0109045884718165,17.7339519758716
0.0100603855684974,17.7364755172573
0.00924877484197875,17.7390763008781
0.0084707665693121,17.741762485285
0.00770800817517728,17.7446178120505
0.00696155576100375,17.7476716216249
0.00623520980212378,17.7509480314911
0.00553294115975898,17.75447505706
0.00485889329010822,17.7582851747928
0.00421731353294101,17.7624162535396
0.00361244120203835,17.7669128920612
0.00304833271742393,17.7718286115111
0.00252860073956218,17.7772299565286
0.00205615380220746,17.7832034853651
0.00163310525534723,17.7898657637155
0.00127357537951838,17.7970859140308
0.000989876148901217,17.8049047094658
0.000810842801219635,17.8118139590075
0.00064510935157686,17.8203810252018
0.000520462067825541,17.8293312885909
0.000424498045593277,17.8393312885909
0.000362630198026644,17.8493312885909
0.00032561263518226,17.8593312885909
0.000306776335401638,17.8693312885909
0.000301511770963165,17.8793312885909
0.000306851085786574,17.8893312885909
0.000321087230771395,17.8993312885909
0.000343484104824472,17.9093312885909
0.00037411095568408,17.9193312885909
0.000413804836991974,17.9293312885909
0.00046426392075429,17.9393312885909
0.00052318009545004,17.9485979853434
0.000590904482925515,17.9571533217304
0.000668287007058098,17.9650519479315
0.000756466273816551,17.9723455041582
0.000856813287799703,17.9790816963454
0.000970919739739194,17.985304666355
0.00110060958120144,17.9910553336249
0.00124796163634938,17.9963716736594
0.00141533960372962,18.0012889508887
0.00160542685393192,18.0058399374721
0.00182127094201261,18.010055119319
0.00206633534028174,18.0139628864309
0.00234456397257164,18.0175897069608
0.00266046098829007,18.0209603045354
0.00301919165363358,18.02409784444
0.00342671438777721,18.027024126529
0.00388995442519248,18.0297597974058
0.00441704354449983,18.0323246045867
0.00501766176447692,18.0347377149364
0.00570354416036232,18.0370181452878
0.00646610670853088,18.0391269175331
0.00731017037561128,18.0410840614247
0.00824936518722996,18.0429248906304
0.00930476261653077,18.0446864437379
0.0105126853239429,18.0464145793893
0.0119620624995144,18.0481999040227
0.0139902341315809,18.0503434391303
0.0156137391488396,18.0518659740091
0.0173567220272395,18.053388508888
0.0189568958042683,18.0547406016928
0.0203691331248126,18.0559440965029
0.0216345672745419,18.0570773084871
0.0227601058276382,18.0581875918017
0.0237324127211455,18.0593134280671
0.0245209554803442,18.0605001057833
0.0250666281217435,18.0618238720911
0.0252197251475306,18.0634937358309
0.0247661830431287,18.0652487321945
0.0237839068161649,18.0670037285581
0.0226613934843205,18.0684647275932
0.0214046487376693,18.0698677708482
0.0200115684554773,18.0712975523537
0.0184908692263222,18.0727959756183
0.0168492957304112,18.0744008349086
0.0151263000472172,18.0761606547071
0.012406366625915,18.0792855138192
0.0102294580322657,18.0822186810684
0.00854204154927065,18.0848793863399
0.00718501304051913,18.08736716745
0.00600336915414726,18.0898848447226
0.00496708410512709,18.0924652886964
0.00408895710031704,18.0950292978492
0.00334391638819646,18.0975801932679
0.00268633190282526,18.1002270517101
0.00205444164620298,18.1032587958798
0.00164409142599793,18.105581618192
0.00128768328593251,18.1079044405041
0.00102075171157831,18.1098835332373
0.000803103581548853,18.1116876062901
0.000609830875699651,18.1134648822908
0.000427191595065041,18.1153278510454
0.000242307197475075,18.1174347747007
2.89938021356417e-05,18.1202111978451
-0.000265304081449804,18.1248626434948
-0.000463036646195483,18.1287635703139
-0.00060884165414407,18.1322368504903
-0.000743031055074106,18.1361058962477
-0.000876327269667265,18.1410473071796
-0.000970853999567706,18.1462521539112
-0.00100827103967577,18.150895639915
-0.000991268533965058,18.1551246848692
-0.000917037175338744,18.1589612443586
-0.000781106660280005,18.1624555712413
-0.000577867644481806,18.1656538941882
-0.00029997830031366,18.1686100027963
6.30931987192891e-05,18.1713836706982
0.000527288502996085,18.174039865971
0.00112073034394807,18.1766639441711
0.00190082233724954,18.1793905622126
0.00299388606238691,18.1824516621113
0.00438159060644781,18.1856242404519
0.00562533680146007,18.1880441249332
0.00705302498652472,18.1904640094145
0.00846475362737732,18.1925475611768
0.00987657206625233,18.1943690729046
0.0113993168948705,18.1960855528088
0.0130295477895359,18.197684806983
0.0148301137199993,18.1992170769367
0.0168302180089474,18.2006883341073
0.0190534832532126,18.2020986503348
0.0215398067906682,18.2034568378349
0.0243170369038654,18.2047621921088
0.0274280791413462,18.2060200411142
0.0309147059699624,18.2072326792627
0.0348219286972625,18.2084019624474
0.03920911122393,18.2095321366734
0.044141774206817,18.2106264369382
0.0496972447490085,18.2116883085478
0.055966611068286,18.2127212435186
0.0630619532943043,18.2137293656052
0.0711196366276953,18.2147170358986
0.0803084360684019,18.2156890509228
0.0908420761192254,18.2166509491065
0.102997878675828,18.2176093719228
0.117148329700195,18.2185727484466
0.13381697245215,18.2195524931204
0.153671873348817,18.2205599104476
0.176676646753928,18.2215706485272
0.203453356112071,18.2225961401735
0.234850725038646,18.2236528295519
0.272144710918533,18.2247676203939
0.314578026661365,18.2259157998382
0.353624866299863,18.2269082690258
0.38670018848203,18.2277344082979
0.415480806092018,18.2284703918808
0.440649658282324,18.2291575792592
0.462287570293395,18.2298218270339
0.480102984437083,18.2304843303084
0.493406023243302,18.2311672317201
0.500864375658765,18.2318999326015
0.49979360785147,18.2327238973549
0.487842414444703,18.2335600122389
0.463827960983286,18.2344235172514
0.426236287114293,18.2353257908539
0.373378618770322,18.2362761015164
0.331245862562455,18.2369088938849
0.284445480315221,18.2375416862534
0.242440816728747,18.2380739659506
0.206192543142906,18.2385210129035
0.174197269612081,18.2389155291672
0.145447873050544,18.2392772227747
0.119329671131611,18.2396182781871
0.0954172829431911,18.2399475039382
0.0733636768065623,18.2402726399909
0.0528122432547638,18.2406025104408
0.0332304003149227,18.2409516547493
0.0130933113281266,18.2413635441802
0.000680232808344671,18.241657017916
-0.00659779643502166,18.2418488673125
-0.0132443629571796,18.2420407167089
-0.0190494014109305,18.2422245801337
-0.0249612886643292,18.2424316256374
-0.0307122293122177,18.2426577945824
-0.0361253346759395,18.242900399196
-0.0411021739251561,18.2431583680939
-0.0455909265201436,18.2434316818902
-0.0495623314631532,18.2437210513798
-0.0530864118359256,18.2440364103529
-0.0559562808066686,18.244359957558
-0.0583142508347286,18.2447046142697
-0.060174374377906,18.2450733716281
-0.0615505050368271,18.2454697320557
-0.0624561449888875,18.2458980102359
-0.0629029666095953,18.2463635655988
-0.0628992340365591,18.2468731458986
-0.0624478755799458,18.2474354151646
-0.0615414184320517,18.2480631942729
-0.0601587059308998,18.2487730288535
-0.0582565255560208,18.249589194407
-0.0557474221434771,18.2505518102463
-0.0524259996018337,18.2517433786206
-0.0483946610130754,18.2531445191576
-0.0444897938953016,18.2544964021133
-0.0407643650465648,18.255805419979
-0.0372440448208036,18.2570745947553
-0.0339415817188182,18.2583051850719
-0.0308623167751734,18.2594975501526
-0.0280066612889462,18.2606516042536
-0.0253714271687876,18.2617670555007
-0.0229506879928283,18.2628435295944
-0.0207364302074649,18.2638806293855
-0.0187190963874934,18.2648779567588
-0.016888058542962,18.2658351109769
-0.015232034481936,18.2667516712092
-0.0136608679411217,18.2676747452759
-0.0121498371923358,18.2686215338136
-0.0107032444634471,18.2695937660951
-0.00932498751719363,18.2705936181302
-0.00801875399125139,18.2716236476182
-0.00678796901132379,18.2726868904176
-0.00563574204978126,18.2737869867775
-0.00456481113253715,18.2749283520066
-0.00357748408937641,18.2761164127976
-0.00267557596721628,18.2773579437912
-0.00186034076016288,18.2786615631843
-0.0011323938592012,18.2800384926761
-0.000491618225037145,18.2815037826145
6.29599799331273e-05,18.2830784174301
0.000514868368988109,18.2847162563172
0.000870943764612361,18.2864049753978
0.00114711721649287,18.2881630076806
0.00135792831089006,18.2900129548399
0.00151716926304678,18.2919853740654
0.00163838346347823,18.2941243189497
0.00173567113557715,18.2964992303209
0.00182541196002084,18.2992356086278
0.00193186206799398,18.3026257570042
0.00206448314421865,18.3063842339774
0.00222353243929681,18.3102259027468
0.00240444142957664,18.3140684404753
0.00260394908746034,18.3179587949665
0.00281866338891108,18.3219355896972
0.00304636272081538,18.326032563886
0.0032863973109322,18.3302814915527
0.00353965860775097,18.3347141842399
0.0038084015313727,18.3393640044095
0.00409609684857243,18.3442673102587
0.00440744566600337,18.3494647380369
0.00474871333108455,18.355002620143
0.00509354175508813,18.360392996971
0.00545051788778785,18.3657326934002
0.00581929352854074,18.3709691752547
0.00620415298503729,18.3761188405264
0.00660883026019734,18.3811860888571
0.00703776850496915,18.3861809162985
0.00749554034145693,18.3911099453485
0.00798703859644485,18.3959779410717
0.00851751979163778,18.4007873567089
0.0090927346985627,18.4055388453248
0.00971904895673557,18.4102316323457
0.0104035817850287,18.4148640633074
0.0111687101171067,18.4195172880135
0.0120305430448361,18.4241993279646
0.0130096175312732,18.4289224027387
0.0141349638768949,18.4337153551684
0.0154529510192955,18.4386451223499
0.0170558334308604,18.4438843925961
0.0192330939571324,18.4500649934819
0.0209650740468929,18.4544808021355
0.0227938051099542,18.4588966107892
0.024338269017862,18.4626114230418
0.0256261986477781,18.4658748171109
0.0267045404432784,18.4689364152504
0.0275632629576603,18.4719086337405
0.0281530840818241,18.4747447836259
0.0284743443857232,18.4775651485023
0.028499883090909,18.4805207660326
0.0281309634030886,18.4839164426495
0.0273509780953504,18.4873665865543
0.0262264063568467,18.4908167304591
0.0251275757696533,18.4935898251318
0.0240516013914324,18.4960380677072
0.0229774421192907,18.4983383427518
0.0219028309635778,18.500560195324
0.0208304726490526,18.50273941366
0.0197640108865469,18.504898580542
0.0187071130545124,18.5070537194375
0.0176632365055555,18.5092171292076
0.0166355673314023,18.5113988398558
0.0156270126313325,18.5136074499546
0.0146402060336903,18.5158506599731
0.0136775202364417,18.5181356306868
0.0127410790944403,18.5204692463213
0.0118327650504612,18.5228583316382
0.0109542346754759,18.5253098150898
0.0101069219235852,18.527830907084
0.00929205419540319,18.5304292389326
0.00851065609626146,18.5331130428767
0.00774685726121101,18.5359561400345
0.00699905752067425,18.5389963916128
0.00627107426010951,18.5422575649342
0.00556685998869992,18.5457674122901
0.00489054085532924,18.5495581013851
0.00424635164801577,18.5536671203574
0.00363852771343031,18.5581385691766
0.00307113446521166,18.5630252586741
0.00254780836820184,18.5683926429441
0.00207149044161545,18.5743255603947
0.00164431318553915,18.5809380140647
0.00127946718657897,18.588122123059
0.00101690326806967,18.5951880022245
0.000821468178001141,18.6023922563358
0.000649486309875455,18.6108890212012
0.000517598613083974,18.619870897246
0.000415450669846793,18.629870897246
0.000348162493223147,18.639870897246
0.000305997959116624,18.649870897246
0.000281887425910186,18.659870897246
0.000270876753331113,18.669870897246
0.000269663524282535,18.679870897246
0.000276170462078851,18.689870897246
0.000289208623866928,18.699870897246
0.00030825434556723,18.709870897246
0.000333329744245636,18.719870897246
0.000364968333340776,18.729870897246
0.000404257522071476,18.739870897246
0.000452968465042301,18.749870897246
0.000509112819819274,18.7591588090549
0.000573136510224846,18.7677464914456
0.000645910514787537,18.775685401891
0.000728536489494485,18.7830247944167
0.000822309209012774,18.7898104470112
0.000928713828604568,18.7960849271585
0.00104944110550616,18.80188785988
0.00118641066908295,18.8072561508288
0.00134179971386642,18.8122241750362
0.00151807494759899,18.8168239579255
0.00171803236253563,18.821085348615
0.00194484239028444,18.82503618294
0.00220210565649722,18.8287024331343
0.00249391996415631,18.8321083591464
0.00282496387404062,18.8352766666009
0.00320060340900395,18.8382286685711
0.00362702871947554,18.840984457048
0.00411143746655805,18.8435630998743
0.00466228679217682,18.8459828750648
0.00528965141296367,18.848261566167
0.00600282534508384,18.8504088158719
0.00678957288928356,18.8523839158604
0.00765899743453491,18.8542192125044
0.00862485134953987,18.8559470535024
0.00970801035594374,18.8576009193123
0.0109439525551866,18.8592218426017
0.0124385304694129,18.8609111877412
0.0144932532673959,18.8629054541232
0.0162462050738001,18.8644106615301
0.0181392513698336,18.8659158689369
0.0198486931007792,18.8672251600368
0.0213527330767931,18.8683832262204
0.0227029407953792,18.8694717614649
0.0239090368348089,18.8705377373851
0.0249585415787853,18.8716186756397
0.0258211619905377,18.8727584465908
0.026437893350555,18.8740306219001
0.0266603972776802,18.8756356569313
0.0262456513503945,18.8773478765937
0.0252667632937473,18.8790600962561
0.0241293060336132,18.8804837399242
0.022844395956282,18.8818543727248
0.0214097164023259,18.8832565752421
0.0198336492583737,18.8847325603947
0.0181221827203267,18.8863211546948
0.0163012036370271,18.8880731161106
0.0148572701380993,18.8895685550462
0.0122592147391901,18.8925825514195
0.0101410653535192,18.8954650230269
0.00848866269053816,18.8980993347134
0.0071529097309162,18.9005791851593
0.00599074267271372,18.9030919176715
0.00497309043863569,18.9056691704784
0.00408068405670284,18.9083343253364
0.00333651784496803,18.9109628972773
0.00271780996288248,18.9135417846102
0.00218601201620036,18.9161553535829
0.00169844775514036,18.9190013428805
0.00121974143181794,18.9223945937184
0.0009776261686755,18.9244267882358
0.000763679388988058,18.9264589827532
0.000588052943811824,18.9283354039005
0.000435619998265904,18.9301529179499
0.000294968091769438,18.9320215006333
0.000157074723251286,18.934073927443
8.62173287717402e-06,18.9365924835352
-0.000228641873805508,18.9415557319057
-0.000391155629164551,18.9460329411244
-0.000494866984516349,18.949727117285
-0.00057826605835726,18.9536365219586
-0.000646127770128868,18.9585061230653
-0.000670736141150104,18.9635677837255
-0.000643048125640915,18.9681044613865
-0.000562631018199966,18.9722344672452
-0.000426359725333081,18.9759862203695
-0.000230002880449549,18.9793996785161
3.19452504824642e-05,18.9825226589498
0.000366496027704363,18.9854037663961
0.000783302373253592,18.9880944419562
0.00129679267491643,18.990650813969
0.00192770733624184,18.9931290404787
0.00270949366792797,18.9955968431871
0.00369647783397209,18.998135542049
0.00493699156447028,19.0007642435034
0.0063837051326042,19.0033226824364
0.00792249726263958,19.005629458984
0.00948590766149133,19.0076438214046
0.0110903340062779,19.00943545459
0.0128039486553927,19.0110981498399
0.0146768471228315,19.0126751742097
0.0167073368010997,19.014156128949
0.0189566253731713,19.0155749965201
0.0214625491703826,19.0169394369366
0.02424899011323,19.0182473128972
0.027363911419944,19.0195068232291
0.0308531836178824,19.0207216723658
0.0347624811704018,19.0218935165216
0.0391532876526733,19.0230268498552
0.0440925694093792,19.0241248863903
0.0496578621146259,19.0251908059722
0.0559433703239132,19.026228402243
0.0630636121492473,19.0272418545589
0.0711575251596134,19.0282355389321
0.080398317003142,19.0292144162247
0.0910055443104699,19.0301842004586
0.103269148841499,19.0311521010369
0.117582144065485,19.0321273153098
0.134506179246134,19.0331225760678
0.154532615437754,19.0341396665275
0.177766145649212,19.0351628166679
0.204865764618303,19.0362049342836
0.236753000889761,19.0372851231019
0.274883469643892,19.0384363898503
0.316914106773299,19.0395935091763
0.353395790611886,19.0405477260049
0.38470891158242,19.0413611527319
0.412129338565747,19.0420973853825
0.43606204947725,19.0427908930225
0.456460530228117,19.0434651292427
0.472947075736868,19.0441404647475
0.484742134521531,19.0448389160983
0.490385135970751,19.0455901637829
0.487123806651939,19.0464233219281
0.47296154855183,19.0472693782018
0.446689725802557,19.0481423163742
0.406829961667953,19.0490525775263
0.351754373531906,19.0500106221856
0.311865647050063,19.050599825228
0.268263819483839,19.0511890282703
0.22894865729372,19.0516927771941
0.194604699054449,19.0521242569897
0.164041127206209,19.0525101740273
0.136442235913337,19.0528672361759
0.11128654451807,19.0532063055463
0.0881952254007641,19.053535656492
0.066840747739244,19.053863028803
0.0468565684725969,19.0541980122045
0.0276172942491143,19.0545583787393
0.00678964333250262,19.055012121614
-0.00172904815539023,19.0552256938575
-0.00946254364354113,19.055439266101
-0.0157645034347682,19.0556309501143
-0.0216140342951167,19.0558268906788
-0.0274417001695754,19.0560441536661
-0.0330251080855859,19.0562793394209
-0.0382253342300064,19.0565304850657
-0.042966493742516,19.0567969899121
-0.0472090523096859,19.057079158013
-0.0512454816192283,19.0574068048108
-0.0543580840638204,19.0577229387824
-0.0569529138137483,19.0580587317338
-0.0590458210327763,19.0584171735632
-0.0606500298674892,19.0588014158431
-0.0617791882369414,19.0592153278865
-0.0624459003466406,19.0596636886589
-0.0626602413428713,19.0601524623045
-0.0624280792010317,19.0606892127355
-0.0617480379317831,19.061284348684
-0.0606066624436745,19.0619522551106
-0.0589743862234556,19.0627123832022
-0.0567923670363047,19.0635946977366
-0.0539366133841397,19.0646527221123
-0.0500672769578847,19.0660179551236
-0.0461146474036116,19.0673891752132
-0.0423211064033334,19.0687148873774
-0.0387234790899858,19.0699991616944
-0.035339325983191,19.0712440565608
-0.0321767496412633,19.072450360277
-0.0292379738034023,19.073618214739
-0.0265211023039723,19.0747474473576
-0.0240211651283524,19.0758377449469
-0.0217308572093359,19.0768887414758
-0.019641129151846,19.0779000565587
-0.0177416913698705,19.0788713041307
-0.0160214546324519,19.0798020818427
-0.0144259764080513,19.0807173254275
-0.0128887510276941,19.0816558899813
-0.0114144823953481,19.082619217091
-0.0100071233141408,19.0836093718204
-0.00867043419618847,19.084628771737
-0.00740792847493396,19.0856802767169
-0.00622282004416114,19.0867673033218
-0.00511796789183821,19.0878939782999
-0.00409581770516942,19.0890653492958
-0.00315833969928521,19.0902876818798
-0.00230696103735349,19.0915688916352
-0.00154248965431878,19.092919196932
-0.000865023341448356,19.0943521519657
-0.000273831817657605,19.0958863801541
0.000222713192877014,19.097511077464
0.000617359974968059,19.0991802790192
0.000926994010884499,19.1009123013885
0.00116657325114242,19.1027277448462
0.00135019748415369,19.1046539887956
0.00149155934365991,19.1067295498759
0.00160464094029241,19.1090130859064
0.00170506257565274,19.1116049347282
0.00181381871306022,19.114714527347
0.00195277606292833,19.118448743295
0.00211891564047229,19.1223243662251
0.00230709205821735,19.1261798311515
0.00251485594989183,19.1300670172061
0.0027387959170119,19.1340277487238
0.00297635820560244,19.1380973453418
0.00322651612625527,19.1423082025722
0.00348984792684373,19.146692085467
0.00376838833269796,19.1512817680776
0.00406546447194401,19.1561124895966
0.00438565846647108,19.1612232564523
0.00473505234618077,19.1666581843439
0.00509297030111325,19.1720368201464
0.00546131474102477,19.1773460628255
0.00584187218583811,19.1825666339463
0.00623807568755022,19.187700260122
0.00665395883002171,19.1927532809853
0.00709402374421319,19.1977338921703
0.00756306384118886,19.2026488537782
0.0080661829738964,19.207502802817
0.00860886933340743,19.2122981866016
0.00919710584190202,19.2170355680687
0.00983749482699299,19.2217140635054
0.0105380315626701,19.2263359126825
0.0113244986474982,19.2309966396166
0.0122108767554453,19.2356851626628
0.0132196985273723,19.2404195694748
0.0143825503457734,19.2452336685912
0.0157519226585925,19.2502082568097
0.0174394197861167,19.2555607572752
0.019855048719699,19.2622014687187
0.021486824862004,19.2662654881282
0.0231819069818228,19.2703295075377
0.0246521586164413,19.2738904900325
0.0258889070900908,19.2770888196357
0.0269196177065944,19.2801266205324
0.027715317583229,19.2830557525734
0.028244146997959,19.2858767498966
0.0285013937451748,19.2887124295786
0.028449870628467,19.2917305303945
0.0279524032094171,19.2953319795461
0.0271477173680642,19.2985329231109
0.0260592912535502,19.3017338666757
0.0249723033927632,19.3044269961058
0.0238979381709111,19.3068465873393
0.0228239302869979,19.3091326555611
0.0217496836232779,19.311346529598
0.0206781839375532,19.3135214014376
0.019613111967715,19.3156786695457
0.0185581170589935,19.3178337041064
0.017516624553052,19.3199984042403
0.0164917852127345,19.3221825398203
0.0154864710277907,19.3243945324479
0.0145032826172914,19.3266419562279
0.0135445601003403,19.3289318822836
0.0126123976092789,19.3312711246893
0.011708648835046,19.3336664537287
0.0108349398141591,19.3361247609661
0.00999268001517893,19.3386532112731
0.00918306782344913,19.3412594074033
0.0084071031318627,19.3439515404099
0.00764518813190353,19.3468186416719
0.00689980420767838,19.3498855198702
0.00617474201323004,19.353176554454
0.00547397948878499,19.3567199799521
0.00480166329015188,19.3605485183447
0.00416203656533309,19.3647003191999
0.00355932282586414,19.3692203140443
0.00299754535450932,19.3741624523154
0.00248026002594462,19.3795938994607
0.002010298859163,19.3856020807231
0.00158969068077537,19.3923045435322
0.00123284375198295,19.39955870262
0.000949638351057461,19.4074187384444
0.000762748125170303,19.4147010287265
0.000600008613002334,19.4232287577141
0.000473583929463004,19.4323642129704
0.000377029239363725,19.4423642129704
0.00031265607418872,19.4523642129704
0.000271414572187544,19.4623642129704
0.000246703979415752,19.4723642129705
0.00023385395962463,19.4823642129705
0.000229701444949883,19.4923642129705
0.000232196255528471,19.5023642129705
0.000240080758612089,19.5123642129705
0.000252667161938027,19.5223642129705
0.000269702886374605,19.5323642129705
0.000291303353206584,19.5423642129705
0.00031793677999896,19.5523642129705
0.000350456560950859,19.5623642129705
0.000390188801650332,19.5723642129705
0.000438610244412017,19.5822722109567
0.000494070497123334,19.5914601267045
0.00055721585770864,19.5999570165784
0.0006289953887644,19.6078138877651
0.00071054971894087,19.6150790367349
0.000803194557866131,19.6217974094601
0.000908427616005765,19.6280108540595
0.00102794752698354,19.6337583617845
0.00116367860847669,19.6390762718364
0.00131779991765279,19.6439984504419
0.00149277778102701,19.648556462446
0.00169140517776042,19.6527797362978
0.00191684706231971,19.656695719779
0.00217269530732724,19.660330026259
0.00246303541576904,19.6637065824886
0.00279252897400048,19.6668477817265
0.00316651876313109,19.6697746406435
0.00359116352617545,19.6725069666475
0.00407361775823816,19.6750635484803
0.00462227821129691,19.6774623815203
0.00524713307529147,19.6797209510627
0.00595805361367184,19.6818505363368
0.00674210157302029,19.6838082470158
0.00760805383800746,19.6856258359455
0.00856913731016117,19.6873349323048
0.00964520784867061,19.6889678378734
0.0108694273030437,19.6905632074051
0.0123387557553914,19.6922136097217
0.0143139158190661,19.6941206735724
0.0161072359764461,19.6956476720737
0.0180579733698455,19.697174670575
0.0198299870439952,19.6985017685363
0.0213791367894483,19.6996613388618
0.0227686742119349,19.7007440036218
0.0240132109073345,19.7017994408928
0.0251026690327106,19.7028651611717
0.0260091865572934,19.7039830691589
0.0266786003592899,19.7052202539315
0.0269825074723852,19.7067456484322
0.0266452591751173,19.7084956189999
0.0256859225503462,19.7102455895677
0.0245541709395383,19.7116735746393
0.0232737028408569,19.7130360782095
0.0218394412072942,19.7144267215021
0.0202592406903667,19.7158893131488
0.0185392428783605,19.7174626023888
0.017863396200412,19.7180853900307
0.0172013678107619,19.7187081776726
0.0147059631818568,19.7212333656338
0.011988001447687,19.7244073729187
0.00989905515804751,19.7272847143775
0.00827827739822045,19.7299004845324
0.00695881477022385,19.7323799213072
0.00580952440057855,19.7348956140975
0.00480241818382335,19.7374781304266
0.00391859481005384,19.7401507006458
0.00319405875583823,19.7427373293226
0.00260823091909807,19.7451896234673
0.00212498835646762,19.7475425403899
0.00171649032132914,19.749842275867
0.00136051718815606,19.752152506578
0.00103638412441787,19.7545817235539
0.000711505392704271,19.7574297675793
0.000500293970942489,19.7595720151288
0.000313221915076027,19.7617142626784
0.000167168498767521,19.7635829614938
4.69015944503797e-05,19.7652766630721
-6.06963990573165e-05,19.7669311274368
-0.00016305811074076,19.768646794753
-0.000267002379916591,19.7705534277397
-0.00038496939905767,19.7729544242396
-0.000572151419256877,19.777416091401
-0.000710844958407655,19.7814229324234
-0.000811271448491285,19.7848595774964
-0.000902809982333718,19.7885713964182
-0.000996023432235507,19.7933208565039
-0.00106754675539735,19.7987508436908
-0.0010901677397615,19.8035169704954
-0.00106409480793545,19.8078329192873
-0.000984953110619421,19.8117130236023
-0.0008477184559629,19.8152093514739
-0.000646954468883973,19.8183731947987
-0.000375785636322727,19.821266379205
-2.45785354477328e-05,19.8239534502754
0.00042059154899722,19.8264976580081
0.000980891239800469,19.8289645992126
0.00168956861881916,19.8314270738979
0.00261907938719509,19.8340214917435
0.00392049319781282,19.8369671890857
0.00555334943424279,19.840010049074
0.00692111385687459,19.8421949554732
0.008479784252824,19.8443798618724
0.0100184626705519,19.8462683690696
0.0116289947367879,19.8480016131159
0.0133495030004885,19.8496199155685
0.0152028871824755,19.8511379274444
0.0172559797693276,19.8525971311011
0.0195218370738581,19.8539899681982
0.0220511288892328,19.8553318333578
0.0248772920969368,19.856623723309
0.0280379734799734,19.8578675541771
0.0315807220710487,19.8590674138848
0.0355531715748447,19.8602252500483
0.0400127348630414,19.8613441274832
0.0450282466481825,19.8624277036999
0.0506785017186871,19.8634792789539
0.0570572112585745,19.8645023850814
0.0642757527054869,19.86550064652
0.0724736537529461,19.8664785276447
0.0818216483949957,19.8674406893748
0.0925351760902875,19.8683924822748
0.104892713515306,19.8693402926315
0.119264734784305,19.8702920663106
0.136166889303124,19.8712584414827
0.156350972060031,19.8722543607217
0.17972287951583,19.87325229119
0.206896046475067,19.8742627306788
0.238695077523312,19.8753005633963
0.276329475185878,19.876389624682
0.32000662562387,19.877529690255
0.360899820535066,19.8785275426854
0.395057135070386,19.8793438207404
0.424605205981864,19.8800651415641
0.450440713391213,19.8807370519177
0.472715523985911,19.8813866409365
0.491163572370911,19.8820357302165
0.505095574781018,19.8827073456897
0.513134645625807,19.8834331234308
0.512475673520666,19.8842465350771
0.500753765390115,19.8850745641017
0.476746693445424,19.8859332902624
0.438850284129794,19.8868347055572
0.385257736766768,19.8877876902522
0.341411355675561,19.8884368453608
0.292510486513475,19.8890860004694
0.24883775452441,19.8896278302858
0.211418404176955,19.8900789823676
0.178549426761781,19.8904748459863
0.149103483147911,19.8908364535453
0.122405850945082,19.8911765567938
0.0979986437712272,19.8915042068729
0.0755158835605352,19.8918272121753
0.0545909075704892,19.8921542925505
0.0346939523701109,19.8924994624951
0.0143809360056952,19.8929029330132
0.000389377250341997,19.8932257553635
-0.00689527748428741,19.8934144766312
-0.0135510991265052,19.8936031978988
-0.0194091936461551,19.8937854263043
-0.0253722389369659,19.8939905571959
-0.0311713291682146,19.8942145913414
-0.0366294725422549,19.8944549053752
-0.0416480293517466,19.894710458819
-0.0461750202630015,19.8949812449035
-0.0501849756266862,19.8952679774299
-0.0539304793308043,19.895598715823
-0.0568045952686489,19.8959208645448
-0.0591616509270007,19.8962639042346
-0.0610184938433483,19.8966310964769
-0.0623892512845019,19.8970259841241
-0.0632875805049409,19.8974529331369
-0.0637251932780163,19.8979173758995
-0.0637102367341605,19.8984261675049
-0.0632452912767583,19.8989881356683
-0.0623220730418606,19.8996163960164
-0.0609180268197972,19.9003279229127
-0.0589870991732869,19.9011478800995
-0.0564352377683317,19.902118458382
-0.0530356583341996,19.9033291052399
-0.048977215139226,19.9047309034262
-0.0450457766073448,19.9060846643887
-0.0412937956007856,19.9073963003917
-0.0377468221620444,19.9086686003241
-0.0344177175234261,19.9099026818166
-0.0313120312210939,19.911098812664
-0.0284304128641074,19.9122568442322
-0.0257699068778106,19.9133764393963
-0.0233247936633029,19.914457190479
-0.0210872301802238,19.9154986757596
-0.0190477886061504,19.9165004797625
-0.0171959289157291,19.9174621908333
-0.0155204172196408,19.9183833834023
-0.0139429932035294,19.9193036903193
-0.0124251321123634,19.9202475855887
-0.0109712666956888,19.9212167003171
-0.00958531438501447,19.9222131707481
-0.00827098994927427,19.9232395049628
-0.00703175245526687,19.9242986769373
-0.00587075246000116,19.9253942485848
-0.00479077661866422,19.9265305343638
-0.00379418946710346,19.9277128285481
-0.00288287160924949,19.9289477277762
-0.00205815266320176,19.9302436040516
-0.00132073572583573,19.9316113263346
-0.000670607066145824,19.9330654164484
-0.000106918332826931,19.934626019164
0.000356477728943183,19.9362590718378
0.000721933467005357,19.9379408278983
0.00100563611530992,19.9396896346032
0.00122220654338796,19.9415273775412
0.00138546075715386,19.9434834678962
0.00150887805400177,19.945599944864
0.00160633741584508,19.9479422696189
0.00169362587774126,19.950626422375
0.0017930397870602,19.9539116916903
0.00191860063667729,19.9576571077321
0.00207871707506762,19.9617032779171
0.0022645952641516,19.9657906185146
0.00245844971529354,19.9696885575549
0.00265851963312786,19.9735121823583
0.00286411212502133,19.977332856736
0.00307556129152123,19.9811994892122
0.003294150966446,19.9851505358195
0.00352195249558427,19.9892194677474
0.00376167581026914,19.993437729485
0.00395155199161425,19.9967188647425
0.00414458601806258,20
