ecg,time
0.00097170911006547,15.0012433305365
0.00125048789689154,15.0042004232124
0.00159939292768589,15.0068944997796
0.00202296323350269,15.0093765332667
0.00252996082820807,15.0116973657928
0.00313631671833025,15.013913689603
0.00387362730640917,15.0161022882527
0.00479439574550613,15.018350879663
0.00602040910886438,15.0208339000551
0.00766796404358718,15.0236178207526
0.00921570455383309,15.0258602034026
0.0109881664129315,15.0281025860526
0.0126965972372816,15.0299892390093
0.0143989600946487,15.0316362042862
0.0162071855780738,15.033165639455
0.0181677801143203,15.0346079877082
0.020325650313365,15.0359822743225
0.0227304942654818,15.0373029669393
0.0254158206273407,15.038571054073
0.0284307366948801,15.0397932576885
0.0318171958132527,15.0409707020315
0.0356248948168582,15.0421059903479
0.039912234589724,15.0432024300144
0.0447421588154608,15.0442624197696
0.0501874755484022,15.0452886394792
0.0563373722881567,15.0462846437686
0.0632948931097667,15.0472536803898
0.0711823582404664,15.0481991024905
0.0801487037126925,15.0491246532474
0.0903766883718736,15.050034437175
0.102092224742401,15.0509329196037
0.115580117279864,15.0518251810969
0.131205558879326,15.05271713324
0.149451801587365,15.0536161143469
0.170977685596557,15.0545315669312
0.196376565160061,15.0554646496495
0.225775705508533,15.056401137533
0.259923282511193,15.0573505337962
0.299849025487695,15.0583279034209
0.347258605458103,15.0593636866474
0.384067454348222,15.0601091611939
0.422161750117665,15.0608546357404
0.455978862895277,15.0615182283226
0.485619131381554,15.0621261528602
0.511599253261453,15.0627097362386
0.533870596979528,15.0632927225605
0.55189644982648,15.06389962322
0.564423635155361,15.0645664913448
0.568406804793619,15.0653245035222
0.560821589822769,15.0661028961571
0.540447886495463,15.0669225497229
0.505387756576944,15.0678014100673
0.455831791581229,15.0687092912909
0.392207676639609,15.0696372266282
0.344531184119816,15.0702405639602
0.292822636472826,15.0708439012923
0.247372755225214,15.0713498767981
0.208650369476114,15.0717748870477
0.174753332815151,15.0721505898556
0.144466371111715,15.072495971719
0.117057702784422,15.072822829195
0.0920214984526428,15.0731398943748
0.0689366317874814,15.0734552770634
0.0473393935360417,15.0737792389678
0.0264102960792978,15.0741320586063
0.00811310278950936,15.07448711269
-0.00133795785729827,15.0746949211881
-0.00989935971499533,15.0749027296861
-0.0165492211001999,15.0750805153714
-0.0226407593949603,15.07525928576
-0.0287897796878556,15.075459302732
-0.0347381540396798,15.0756770290907
-0.0403197979017179,15.0759102862404
-0.0454419193122504,15.0761582794446
-0.0500558326380237,15.0764211364084
-0.0541395288713076,15.0766996474135
-0.0576873941422099,15.0769951402943
-0.0607031230807319,15.0773094385857
-0.0633457583218635,15.0776702767971
-0.0652540233216472,15.0780285951784
-0.0666646018723808,15.0784141491224
-0.067593962157332,15.0788317157045
-0.0680543051852349,15.0792868648208
-0.0680538432686029,15.0797866683405
-0.0675945762489308,15.0803403117757
-0.0666666528480201,15.0809614419716
-0.0652438453860461,15.0816681647596
-0.0632721248507874,15.0824879203064
-0.0606377899379377,15.0834685787659
-0.0570444120163218,15.084720926947
-0.052870492029949,15.0861319803382
-0.0488166489081666,15.0874981673653
-0.0449366216783358,15.0888245526759
-0.0412576148615149,15.0901133144952
-0.0377941678833286,15.0913651762504
-0.0345535041224849,15.0925801313966
-0.0315378706957684,15.0937578282988
-0.0287457668778147,15.0948977733898
-0.0261727373830055,15.0959994364302
-0.0238119843702171,15.0970623008207
-0.021654894823356,15.0980858812597
-0.0196915157603945,15.0990697206986
-0.0179109856884742,15.1000133732065
-0.0162948673640496,15.1009204549552
-0.0147350266789329,15.1018505420258
-0.0132365611067883,15.1028047888794
-0.0118034657562523,15.1037851505381
-0.0104395655127341,15.1047939087965
-0.00914845764723817,15.1058337560804
-0.00793345960844037,15.1069078991704
-0.00679755405436433,15.1080201975253
-0.00574333102816978,15.1091753516758
-0.00477292668724105,15.1103791663187
-0.00388795727572221,15.1116389287507
-0.00308944574384473,15.1129639728067
-0.00237773600744671,15.1143665562696
-0.00175238502750087,15.1158633015628
-0.00121246588164949,15.1174761994529
-0.000780730770553215,15.1191275880971
-0.000439303200838554,15.1208359558371
-0.000172898097545531,15.1226201809443
3.27867836505563e-05,15.124504999974
0.000191455874164598,15.1265244642519
0.000316792376409187,15.1287289157831
0.000423466051499112,15.1312006678223
0.000529563003563973,15.1340979977002
0.000666254287496905,15.1378446087008
0.000821300261306811,15.141663734203
0.00102014515591567,15.1459851245639
0.0012394943180109,15.1503418156861
0.00146640915995147,15.1546462453524
0.00170787362868774,15.1591601820901
0.00197688183374005,15.1642098550793
0.00223511906398478,15.1691035304608
0.00249640271699988,15.174098082767
0.00272208162216818,15.1784140998208
0.00292995240324401,15.1823717910022
0.00313213901434768,15.1861846876398
0.00333477390040631,15.1899521916834
0.00354197629130415,15.1937342380311
0.00375712510722479,15.1975742276206
0.00398336789232863,15.2015075340152
0.00422389113554435,15.2055655050832
0.00448213787606147,15.2097782617906
0.00476197888609703,15.2141762127807
0.00506792493016264,15.2187913220302
0.00540546142334415,15.2236584365031
0.00578159237367717,15.2288164679426
0.00617980282888836,15.2339796943392
0.00659684559287026,15.2390691792812
0.00703639942506525,15.2440916266529
0.00750148543511329,15.2490372803894
0.00799701173276573,15.2539110079486
0.00852853290733592,15.2587169407628
0.00910237772141959,15.2634593000295
0.00972547040813491,15.2681401677431
0.0104053989010684,15.2727598148136
0.0111653819472301,15.2774037274041
0.0120209349321649,15.2820752301415
0.0129926829595984,15.2867869782273
0.0141092643826864,15.2915663400362
0.0154159327287639,15.2964770025204
0.0170012630480428,15.3016821030375
0.0191331691381692,15.3077606449404
0.0208939313327391,15.3122589790373
0.0227604868682508,15.3167573131342
0.0243235165482089,15.3204985886334
0.0256232809936272,15.3237681968745
0.0267120642821238,15.3268280935421
0.0275831459571077,15.3298000203984
0.0281847720352092,15.3326311352697
0.0285182029330212,15.3354411858304
0.0285579116454592,15.3383782794239
0.0282106212345026,15.3417329766063
0.0271906730858238,15.3460684730487
0.0262918759205483,15.3487409556375
0.0252335214657462,15.3514134382263
0.0241612343241575,15.3538548458678
0.0230876794607706,15.3561514532355
0.0220134308101392,15.3583674463287
0.0209413181341409,15.3605389796751
0.0198749916261929,15.3626889301011
0.0188181383954828,15.3648334211391
0.0177742409449868,15.3669847407077
0.016746512954767,15.36915283156
0.0157378891974041,15.3713461451851
0.0147510301373558,15.3735721799248
0.013788335689756,15.3758378338264
0.0128519535087603,15.378149669615
0.0119437900810771,15.3805141123771
0.0110655232745299,15.3829376050767
0.0102186044838166,15.3854267708369
0.00940432922117507,15.387988529418
0.00862374272880806,15.3906302502697
0.0078557069518995,15.3934436916314
0.00710326222168001,15.3964507942917
0.00637014426335319,15.3996750411245
0.00566029711643493,15.4031435475665
0.00497784596803819,15.4068877037178
0.0043270368326351,15.4109440202297
0.00371213175445995,15.4153553345095
0.00313723971910797,15.420172776488
0.00260608453757817,15.4254591639573
0.0021216975748313,15.4312954742052
0.00168629446195267,15.4377898150739
0.00131087561474467,15.444884655437
0.000997361152175008,15.4525552524713
0.000739101100821496,15.4609245325619
0.000546651061634088,15.4698369285926
0.000424359016275358,15.4779017551892
0.000314408001234792,15.4879017551892
0.000237744667546949,15.4979017551892
0.000184530294900652,15.5079017551892
0.000148105608150505,15.5179017551892
0.000123608722113817,15.5279017551892
0.000107477547394691,15.5379017551892
9.71795922883771e-05,15.5479017551892
9.09678554801665e-05,15.5579017551892
8.76568488905067e-05,15.5679017551892
8.64447357933536e-05,15.5779017551892
8.67882097972001e-05,15.5879017551892
8.83201700227793e-05,15.5979017551892
9.07962517492474e-05,15.6079017551892
9.40593169047792e-05,15.6179017551892
9.80152200050065e-05,15.6279017551892
0.000102616118240057,15.6379017551892
0.000107849158786735,15.6479017551892
0.000113729127816118,15.6579017551892
0.000120294060009771,15.6679017551892
0.000127603107800021,15.6779017551892
0.000135736221267003,15.6879017551892
0.000144795403915315,15.6979017551892
0.00015490749434229,15.7079017551892
0.000166228595636767,15.7179017551892
0.000178950456741407,15.7279017551892
0.000193309332284218,15.7379017551892
0.000209598147998351,15.7479017551892
0.000228183234017176,15.7579017551892
0.000249527547414108,15.7679017551892
0.000274223338005337,15.7779017551892
0.000303038877591317,15.7879017551892
0.000336986638787753,15.7979017551892
0.000377425039760982,15.8079017551892
0.000426214225330441,15.8179017551892
0.00048420540894487,15.8276319004855
0.000550069641048304,15.8366280469458
0.000624681345347053,15.8449284712573
0.000709181106272949,15.8525870545601
0.000804889434190469,15.8596544297093
0.000913309386059238,15.8661775531912
0.00103614483134801,15.8721999870742
0.00117532547209623,15.8777621674024
0.00133303766277373,15.8829016210608
0.00151175833648078,15.8876531698479
0.00171429559273661,15.892049140857
0.00194383618520953,15.8961195756744
0.00220400375526546,15.899892414024
0.00249892583681773,15.9033936641497
0.00283332194485581,15.9066475899765
0.00321261290166583,15.9096769095139
0.00364306327131228,15.9125029888475
0.00413197304121888,15.9151460657893
0.0046879423159238,15.9176255232521
0.00532125190106921,15.9199602248423
0.00603856024973422,15.9221526000183
0.00683038797506261,15.9241716332639
0.00770664406447395,15.9260513382479
0.00868234522271448,15.9278259379
0.00978089530307626,15.929532015751
0.0110437815990395,15.9312170756912
0.0125999155055327,15.9330059820608
0.0148964820844914,15.9352647409956
0.0165228689985575,15.9366913129351
0.0182474632458329,15.9381178848745
0.019824148909482,15.9393941965802
0.021228601736456,15.9405527355255
0.0224890714700247,15.9416572970552
0.0236060797910909,15.9427502876009
0.0245618905844981,15.9438701721558
0.0253199489631141,15.9450669756525
0.0258068639066672,15.9464350722043
0.0257971434161526,15.9483016796653
0.0252216274737935,15.9498941474164
0.0242236907326325,15.9514866151674
0.0230744173992703,15.9528999837637
0.0217790732162208,15.9542913922693
0.0203437012711057,15.955723333417
0.0187777658377779,15.9572345997239
0.0175404789800061,15.9584244318117
0.016334520398914,15.9596142638996
0.0151098869093267,15.9608919024067
0.0132438641581501,15.9630091353635
0.0114950867035352,15.9652335874527
0.00965471653469478,15.9679173280631
0.00857046516817288,15.9697202355567
0.00759755496454716,15.9715231430503
0.00682020573731188,15.9731223716575
0.00616102254502015,15.9746159979032
0.00556193424409177,15.9761079054939
0.00498558012153709,15.9776916255347
0.00439098558407928,15.9795158101015
0.0036754308753789,15.9820464684522
0.00299456257379949,15.9849287519664
0.00247679956622863,15.9875730335389
0.00204759169249553,15.9902043477107
0.00164894775116397,15.9931871332179
0.00127177857635433,15.9967862815548
0.000968127182366223,16.0006970580656
0.000740572601948407,16.0049760791232
0.000598613546147334,16.0097106371798
0.000564999855996538,16.0142141702004
0.000624197752510046,16.018249268679
0.000762060325979369,16.0218797688638
0.000971588290988049,16.0251488742345
0.00125034021227667,16.02810608458
0.00159921707886736,16.0308002590927
0.00202275643515848,16.0332823698995
0.00252971814980276,16.0356032578234
0.00313602914252582,16.037819610614
0.00387327718307888,16.0400082014523
0.00479395058502786,16.0422567339791
0.00601978794557602,16.0447395858117
0.00766719753626591,16.0475234586893
0.0092150424889816,16.0497661215809
0.0109876521903039,16.0520087844724
0.0126961253871028,16.0538955463091
0.0143984919603268,16.0555425663862
0.0162066768471245,16.0570720161197
0.0181672374860784,16.0585143879416
0.0203250526648439,16.059888687294
0.0227298382997526,16.0612093951692
0.0254150916789371,16.0624774940311
0.0284299275016693,16.0636997101896
0.0318162851515405,16.0648771630437
0.0356238780517425,16.0660124621922
0.0399110972884525,16.0671089119959
0.0447408779954552,16.0681689098134
0.0501860365304584,16.0691951379506
0.0563357523959603,16.0701911499198
0.0632930652616649,16.0711601934087
0.0711802859154326,16.0721056210547
0.0801463507276954,16.0730311768633
0.0903740066338702,16.0739409648826
0.102089154348283,16.0748394503308
0.11557658256517,16.0757317136272
0.131201461002021,16.0766236660729
0.149447011896703,16.0775226457695
0.170972025716953,16.0784380946239
0.196370029473454,16.0793711785423
0.225768140740158,16.0803076659491
0.259914489718803,16.0812570592968
0.299838716772656,16.0822344217214
0.347246240355373,16.0832701876473
0.384056107090154,16.0840156965628
0.422151859789922,16.0847612054782
0.455970166976848,16.0854248196979
0.485611372932905,16.0860327551998
0.511592377151329,16.0866163427161
0.533864676199329,16.0871993272537
0.551891692989914,16.0878062188845
0.564420513853691,16.0884730653142
0.568406366566496,16.0892310760951
0.560824064528962,16.0900094619035
0.540453664033357,16.0908291036269
0.505397396646245,16.0917079479738
0.455844969035047,16.0926158241124
0.392223385564704,16.093543766882
0.344545247584088,16.0941471444464
0.292834203373943,16.0947505220107
0.247382336714691,16.0952565237599
0.208658646471577,16.0956815489547
0.174760684309454,16.096057260747
0.144473005475748,16.0964026482232
0.117063752852431,16.0967295090378
0.0920270647415848,16.0970465756795
0.0689418092853729,16.0973619578293
0.0473443096746537,16.0976859161625
0.0264152535755,16.0980387245284
0.00811427921620884,16.0983938437693
-0.00133722562976563,16.0986016602906
-0.00989900143485141,16.0988094768118
-0.0165489207392554,16.0989872634972
-0.0226404460952208,16.099166032919
-0.0287894673871673,16.0993660491262
-0.0347378525230361,16.0995837748685
-0.0403195127983297,16.0998170314712
-0.0454416537518553,16.1000650241467
-0.0500555882541386,16.1003278805656
-0.0541393063823791,16.1006063909835
-0.0576871936982038,16.1009018832125
-0.060702944510757,16.1012161807662
-0.0633456028707648,16.101577018073
-0.0652538886792993,16.1019353354741
-0.0666644874854742,16.1023208882686
-0.067593867545075,16.1027384534886
-0.0680542299899976,16.1031936009732
-0.0680537873442118,16.1036934025127
-0.0675945397825718,16.1042470435056
-0.0666666367048283,16.1048681705534
-0.0652438513295735,16.1055748892266
-0.0632721563984037,16.1063946390998
-0.0606378548358185,16.1073752888868
-0.0570445341642467,16.1086276198635
-0.0528706114101845,16.1100386754431
-0.0488167627763326,16.1114048641386
-0.0449367285555895,16.1127312509406
-0.0412577139993353,16.1140200141719
-0.0377942589090611,16.1152718773097
-0.0345535868930222,16.1164868338343
-0.0315379452277882,16.1176645321235
-0.0287458333088086,16.1188044786153
-0.0261727959443372,16.1199061430722
-0.0238120353658231,16.120969008895
-0.0216549386113045,16.1219925907816
-0.0196915527364408,16.1229764316831
-0.0179110162713518,16.123920085669
-0.0162948959947382,16.1248271665839
-0.0147350531712774,16.1257572527834
-0.0132365853206781,16.1267114986975
-0.0118034875571803,16.1276918593376
-0.0104395847739938,16.1287006164843
-0.0091484742518763,16.1297404625464
-0.00793347345134344,16.1308146042829
-0.00679756504447583,16.1319269011248
-0.00574333909085451,16.1330820535671
-0.00477293176683513,16.1342858662587
-0.00388795933837009,16.1355456264317
-0.00308944478078739,16.1368706678302
-0.00237773203904895,16.138273248105
-0.00175237810863343,16.1397699894774
-0.00121245497314438,16.1413828862355
-0.00078071658237661,16.1430342730993
-0.000439286323845549,16.1447426384502
-0.000172879082836958,16.1465268603869
3.28074123423258e-05,16.1484116752035
0.000191477602073952,16.1504311337889
0.000316814669569864,16.1526355773505
0.000423488300967129,16.1551073174689
0.000529584368709319,16.1580046270141
0.000666272887614039,16.1617511893382
0.00082131706240625,16.1655703052883
0.00102015908431221,16.1698916665715
0.00123950638253341,16.174248343917
0.00146642073258038,16.1785527775584
0.00170788639243179,16.1830667434452
0.00197689325519878,16.1881163933503
0.00223513032995271,16.1930100653672
0.00249641493126173,16.1980046339353
0.00272209200827787,16.2023206129485
0.002929962102169,16.2062782881357
0.00313214855252164,16.2100911786563
0.00333478358297796,16.2138586819616
0.00354198634516843,16.2176407311885
0.00375713573212597,16.2214807264714
0.00398337928289374,16.2254140409652
0.00422390349565438,16.2294720223662
0.00448215142978178,16.2336847916146
0.00476199388845041,16.2380827574269
0.0050679416831106,16.2426978839457
0.00540548030369458,16.2475650184053
0.00578161387811441,16.2527230728875
0.00617982467392631,16.2578862889747
0.00659686863271951,16.2629757730308
0.00703642352557293,16.2679982155059
0.00750151090824179,16.2729438653282
0.00799703885096552,16.2778175890299
0.00852856201470531,16.2826235183739
0.00910240918707724,16.287365874387
0.00972550463267979,16.2920467389505
0.0104054363182884,16.2966663828678
0.0111654240332633,16.3013102975671
0.0120209824864757,16.3059818019408
0.0129927372573731,16.3106935527254
0.0141093272444481,16.3154729193158
0.0154160072680715,16.3203835915955
0.0170013562226007,16.325588715808
0.0191333091784178,16.3316673447298
0.0208940435123066,16.3361655821664
0.0227605624611843,16.340663819603
0.0243235760073157,16.3444050599487
0.0256233308237549,16.3476746546844
0.0267121055526738,16.3507345461405
0.0275831758751304,16.3537064644691
0.0281847911098661,16.3565375759015
0.0285182108133501,16.3593476282731
0.0285579064213251,16.3622847311562
0.0282105959262093,16.3656394573497
0.0271906300224575,16.3699749424902
0.0262918288192566,16.3726474100007
0.0252334740460129,16.3753198775112
0.0241611870028615,16.3777612763564
0.0230876320863401,16.3800578790213
0.0220133834551214,16.3822738694994
0.0209412709493396,16.3844454014643
0.0198749447755601,16.3865953513403
0.0188180920370584,16.3887398424421
0.0177741952258448,16.3908911625584
0.0167464680094672,16.393059254362
0.0157378451483674,16.3952525692897
0.0147509870950723,16.3974786056509
0.013788293753226,16.3997442614737
0.0128519127663097,16.4020560994738
0.0119437506103718,16.4044205447369
0.011065485143245,16.4068440402325
0.010218567750001,16.4093332090961
0.0094042939431965,16.4118949711066
0.00862370894506299,16.4145366957386
0.00785567375867115,16.4173501451403
0.00710322979049485,16.4203572567446
0.00637011276073641,16.4235815136224
0.00566026671767988,16.4270500313824
0.00497781685547587,16.4307942003273
0.0043270091920448,16.4348505313546
0.00371210576923614,16.439261862183
0.00313721556124614,16.4440793231667
0.00260606235608966,16.4493657327198
0.00212167748417913,16.4552020690981
0.00168627654190717,16.4616964415507
0.001310860550888,16.4687913049585
0.000997348648368494,16.4764619296385
0.000739090872566502,16.4848312435919
0.000546669770309593,16.4937422788437
0.000424363247001725,16.501807815738
0.000314410827765743,16.511807815738
0.000237746558415362,16.521807815738
0.000184531606642038,16.531807815738
0.000148106556659086,16.541807815738
0.000123609428143631,16.551807815738
0.000107478082435732,16.561807815738
9.71800044559743e-05,16.571807815738
9.0968180026474e-05,16.581807815738
8.76571118743779e-05,16.591807815738
8.6444955940076e-05,16.601807815738
8.67884001765828e-05,16.611807815738
8.83203396334539e-05,16.621807815738
9.07964068077988e-05,16.631807815738
9.40594617684411e-05,16.641807815738
9.80153577864156e-05,16.651807815738
0.000102616251211047,16.661807815738
0.000107849288650658,16.671807815738
0.000113729255898734,16.681807815738
0.000120294187397203,16.691807815738
0.000127603235440696,16.701807815738
0.000135736350049142,16.711807815738
0.000144795534728817,16.721807815738
0.000154907628132234,16.731807815738
0.000166228733454649,16.741807815738
0.00017895059979976,16.751807815738
0.000193309482020521,16.761807815738
0.000209598306155247,16.771807815738
0.000228183402748329,16.781807815738
0.000249527729429048,16.791807815738
0.000274223536773338,16.801807815738
0.00030303909763561,16.811807815738
0.000336986886120517,16.821807815738
0.000377425322542965,16.831807815738
0.000426214554899245,16.841807815738
0.000484205772535239,16.8515379568795
0.000550070042243137,16.8605340993563
0.000624681789297561,16.8688345199985
0.000709181599073869,16.8764930999273
0.000804889982861736,16.8835604719746
0.000913309998625816,16.8900835926055
0.00103614551696829,16.8961060238695
0.00117532624121702,16.9016682017933
0.00133303852731366,16.9068076532455
0.00151175931001916,16.91155920001
0.00171429669076618,16.9159551691665
0.00194383742539809,16.9200256022893
0.00220400515779095,16.9237984390908
0.00249892742477088,16.9272996878047
0.00283332374474235,16.930553612347
0.00321261494407157,16.9335829307189
0.00364306559173879,16.9364090089992
0.00413197568125189,16.9390520849941
0.00468794532488156,16.9415315416124
0.00532125533838176,16.9438662424585
0.00603856404408412,16.9460586166045
0.00683039216879685,16.9480776490032
0.00770664872148117,16.9499573533216
0.00868235043730297,16.9517319524879
0.0097809012290711,16.9534380300593
0.011043788530411,16.9551230900211
0.0125999246048451,16.9569119974783
0.014896498427313,16.9591707615333
0.016522884567866,16.9605973317232
0.0182474773725501,16.9620239019131
0.0198241613082714,16.9633002121762
0.0212286128687979,16.9644587504266
0.0224890814453113,16.9655633116842
0.0236060885283446,16.9666563022752
0.0245618978641753,16.9677761872202
0.0253199543688989,16.9689729916348
0.0258068665245093,16.9703410903085
0.0257971391599752,16.9722077061621
0.0252216192226697,16.9738001692699
0.0242236820492294,16.9753926323776
0.0230744077723495,16.9768060000576
0.0217790624487373,16.9781974086548
0.0203436894076142,16.9796293502697
0.0187777529329042,16.9811406173369
0.0175404830281586,16.9823304330766
0.0163345403386355,16.9835202488163
0.0151099249885993,16.9847978664618
0.0132439016714175,16.9869150952938
0.0114951317930556,16.9891395311905
0.00965475324313923,16.9918232746289
0.00857047833231812,16.9936262166777
0.00759754897605698,16.9954291587265
0.00682019367127698,16.9970284014002
0.00616100971726727,16.9985220316935
0.00556192323064787,17.0000139371902
0.00498557320166901,17.0015976479854
0.0043909865510543,17.0034218086986
0.003675455305508,17.0059523749718
0.00299458383544599,17.0088346512744
0.00247681446956672,17.0114789462483
0.00204760592140092,17.0141102446722
0.00164896397518802,17.017092984978
0.00127179115287406,17.0206921202688
0.000968135923165606,17.0246028819671
0.000740577097060252,17.0288818848776
0.000598612706028659,17.0336164202619
0.000564992681756502,17.0381199919463
0.000624185299848809,17.0421551204468
0.000762043066382387,17.0457856484187
0.000971566392230575,17.0490547780522
0.00125031362634366,17.0520120091285
0.00159918557080442,17.0547062009073
0.00202271951132398,17.0571883253526
0.00252967493667321,17.0595092230382
0.00313597804229506,17.0617255809091
0.00387321505677838,17.0639141702686
0.00479387168461687,17.0661626922794
0.00601967782419038,17.0686455139315
0.00766706176449253,17.07142937822
0.00921492507810222,17.0736720902878
0.0109875608237808,17.0759148023557
0.0126960417169002,17.0778015834265
0.0143984092353024,17.0794486132297
0.0162065871518566,17.0809780654738
0.0181671421030765,17.0824204414562
0.0203249478523194,17.0837947430273
0.02272972352155,17.0851154535759
0.0254149643630374,17.0863835544809
0.028429786408267,17.0876057728305
0.0318161265467542,17.0887832271562
0.0356237011848634,17.0899185281963
0.0399108996673351,17.0910149797718
0.0447406556166233,17.0920749789955
0.0501857868851368,17.0931012086081
0.0563354715741869,17.0940972219246
0.0632927485955973,17.0950662666214
0.0711799270928009,17.0960116952461
0.0801459435353704,17.0969372519515
0.0903735428015849,17.0978470407041
0.102088623585679,17.0987455267036
0.115575971892399,17.0996377903454
0.131200753485921,17.100529742883
0.149446185554525,17.1014287223843
0.170971050145842,17.1023441706557
0.196368903222837,17.1032772548215
0.225766837535671,17.1042137421948
0.259912975529957,17.1051631351009
0.299836942461849,17.1061404963641
0.347244113858914,17.1071762594233
0.384054152436083,17.1079217742522
0.422150151643452,17.108667289081
0.455968660789751,17.1093309070394
0.485610025041289,17.1099388444565
0.511591178176099,17.1105224327203
0.533863638561352,17.1111054169919
0.551890852225727,17.1117123071168
0.564419950398114,17.1123791498716
0.568406259539718,17.1131371604486
0.560824453539577,17.113915545121
0.540454616037179,17.1147351848447
0.505399007792688,17.1156140264713
0.455847178549574,17.1165219018395
0.392226025515314,17.1174498458947
0.344547612799812,17.1180532302527
0.292836150069812,17.1186566146107
0.247383950315175,17.1191626207947
0.208660041264314,17.1195876485183
0.174761923913887,17.1199633618333
0.144474124855701,17.1203087502628
0.117064774293775,17.1206356116462
0.0920280051200437,17.1209526785394
0.0689426845807973,17.1212680606023
0.0473451413934129,17.1215920183353
0.0264160929460545,17.1219448247973
0.00811447856955185,17.1222999550826
-0.00133710112051753,17.1225077729637
-0.00989893991960346,17.1227155908448
-0.0165488689309222,17.1228933777047
-0.02264039200699,17.1230721469682
-0.0287894133559319,17.1232721630515
-0.0347378001929075,17.1234898886951
-0.0403194631177267,17.1237231452112
-0.0454416072510063,17.1239711378033
-0.0500555452131805,17.1242339941363
-0.0541392669283808,17.1245125044615
-0.0576871578629885,17.1248079965873
-0.0607029122598029,17.1251222940236
-0.0633455744481882,17.1254831311935
-0.0652538636558483,17.1258414484382
-0.0666644657743254,17.1262270010484
-0.0675938490713685,17.126644566049
-0.0680542146988541,17.1270997132696
-0.0680537752155575,17.1275995144874
-0.0675945308516426,17.128153155082
-0.0666666311196401,17.128774281614
-0.065243849388613,17.1294809996105
-0.0632721586945664,17.1303007485466
-0.0606378626727115,17.1312813968948
-0.0570445515605464,17.1325337250023
-0.0528706283968973,17.1339447809379
-0.0488167789074445,17.1353109699017
-0.0449367435929768,17.1366373569413
-0.0412577278242235,17.1379261203962
-0.0377942714634743,17.1391779837518
-0.0345535981556525,17.1403929404932
-0.0315379552025251,17.1415706389998
-0.0287458420184088,17.1427105857111
-0.0261728034261,17.1438122503896
-0.0238120416682301,17.1448751164364
-0.0216549437911299,17.1458986985494
-0.0196915568561719,17.1468825396795
-0.0179110193969244,17.1478261938963
-0.0162948988197906,17.1487332746812
-0.0147350556674155,17.1496633607449
-0.0132365874666993,17.1506176065126
-0.0118034893327679,17.1515979669938
-0.0104395861600591,17.1526067239672
-0.00914847523086565,17.1536465698387
-0.00793347400756498,17.154720711364
-0.00679756516445977,17.15583300797
-0.00574333876371701,17.1569881601458
-0.00477293098469385,17.158191972533
-0.00388795809679914,17.1594517323535
-0.0030894430793445,17.1607767733375
-0.00237772988193248,17.1621793531148
-0.00175237550555859,17.1636760938754
-0.00121245176324693,17.1652889904571
-0.000780712876970592,17.1669403770432
-0.000439282215750428,17.1686487420215
-0.000172874658763022,17.1704329634637
3.28120698176769e-05,17.172317777623
0.000191482411572857,17.1743372353203
0.000316819546415389,17.1765416776385
0.000423493148281795,17.1790134158969
0.000529589052491768,17.1819107222697
0.00066627710892123,17.1856572769988
0.000821320974052583,17.1894763914589
0.00102016251853823,17.1937977482054
0.00123950944373509,17.1981544222986
0.00146642371439688,17.2024588569281
0.00170788968431393,17.2069728300139
0.00197689621529807,17.2120224742171
0.00223513324466942,17.2169161454017
0.00249641807287997,17.2219107179844
0.00272209469399808,17.2262266876003
0.0029299646161633,17.2301843588351
0.00313215102655396,17.2339972478428
0.00333478609375733,17.2377647509634
0.00354198894982246,17.2415468008991
0.00375713848093217,17.2453867975855
0.00398338222481839,17.2493201140767
0.00422390668197797,17.2533780980265
0.00448215491686631,17.2575908703686
0.00476199774047052,17.2619888398375
0.00506794597607027,17.2666039706166
0.00540548513240766,17.2714711100067
0.00578161936743091,17.2766291701729
0.00617983025862549,17.2817923836671
0.00659687452632143,17.2868818674711
0.00703642969641135,17.2919043087007
0.00750151743544587,17.2968499575227
0.00799704580400343,17.3017236802386
0.00852856948107271,17.3065296086932
0.00910241726078068,17.3112719638705
0.00972551341589909,17.315952827623
0.0104054459218675,17.3205724707279
0.0111654348360115,17.325216385967
0.0120209946933112,17.3298878907588
0.0129927511954659,17.3345996422345
0.0141093433810124,17.3393790100508
0.0154160264023012,17.3442896848438
0.0170013801405478,17.3494948151381
0.0191333451272372,17.3555734663979
0.0208940723095137,17.3600716790222
0.0227605818668133,17.3645698916465
0.0243235912711792,17.3683111229678
0.0256233436155887,17.3715807142363
0.0267121161469604,17.3746406043545
0.0275831835547533,17.3776125204936
0.0281847960055351,17.3804436310429
0.0285182128349498,17.3832536838793
0.0285579050784313,17.3861907891474
0.0282105894267725,17.3895455227893
0.0271906189645158,17.393881005028
0.0262918167246749,17.396553468667
0.0252334618697594,17.3992259323059
0.0241611748519791,17.4016673288926
0.0230876199219343,17.4039639303497
0.0220133712958403,17.4061799201561
0.0209412588339246,17.408351451766
0.0198749327461278,17.4105014015003
0.0188180801342103,17.412645892618
0.0177741834873709,17.4147972128745
0.0167464564699447,17.4169653049217
0.0157378338392592,17.4191586201831
0.0147509760447812,17.4213846569597
0.0137882829872069,17.4236503132749
0.01285190230728,17.4259621518415
0.0119437404783125,17.4283265977452
0.0110654753555737,17.430750093957
0.0102185583216668,17.4332392636152
0.00940428488900384,17.4358010265037
0.00862370027495174,17.4384427521033
0.00785566524004088,17.441256203568
0.00710322146740604,17.4442633174672
0.00637010467595432,17.4474875769225
0.00566025891621872,17.4509560975865
0.0049778093841549,17.4547002698141
0.00432700209856531,17.4587566045658
0.00371209910068377,17.4631679396404
0.00313720936177705,17.4679854055006
0.00260605666395527,17.4732718207202
0.0021216723287592,17.4791081638035
0.00168627194367286,17.4856025443607
0.00131085668578572,17.4926974136819
0.000997345440408572,17.500368045456
0.000739088248741506,17.5087373680991
0.00054667441240568,17.517648062425
0.00042436426752254,17.52571377759
0.00031441150678933,17.53571377759
0.000237747010199118,17.54571377759
0.000184531918338728,17.55571377759
0.000148106780806147,17.56571377759
0.000123609593889877,17.57571377759
0.000107478206917283,17.58571377759
9.71800991890818e-05,17.59571377759
9.09682534681392e-05,17.60571377759
8.76571702887536e-05,17.61571377759
8.64450038279267e-05,17.62571377759
8.67884406711967e-05,17.63571377759
8.83203748809523e-05,17.64571377759
9.07964382785497e-05,17.65571377759
9.40594904799447e-05,17.66571377759
9.80153844512179e-05,17.67571377759
0.000102616276333256,17.68571377759
0.00010784931259045,17.69571377759
0.000113729278917007,17.70571377759
0.000120294209687165,17.71571377759
0.000127603257150394,17.72571377759
0.000135736371297545,17.73571377759
0.00014479555561743,17.7457137775901
0.000154907648753721,17.7557137775901
0.000166228753899633,17.7657137775901
0.000178950620162684,17.7757137775901
0.000193309502405333,17.7857137775901
0.000209598326681631,17.7957137775901
0.000228183423559294,17.8057137775901
0.000249527750700934,17.8157137775901
0.000274223558729749,17.8257137775901
0.000303039120567571,17.8357137775901
0.000336986910416566,17.8457137775901
0.000377425348735341,17.8557137775901
0.000426214583736849,17.8657137775901
0.000484205802806043,17.8754439183961
0.000550070074103707,17.8844400605535
0.000624681823019729,17.8927404809034
0.00070918163499247,17.9003990605647
0.000804890021372902,17.9074664323673
0.00091331004019296,17.9139895527742
0.00103614556213157,17.9200119838332
0.00117532629060458,17.9255741615692
0.00133303858165449,17.9307136128495
0.00151175937015616,17.9354651594566
0.00171429675767353,17.9398611284692
0.00194383750019847,17.9439315614604
0.00220400524177623,17.9477043981416
0.00249892751942854,17.9512056467457
0.00283332385178696,17.9544595711879
0.00321261506548554,17.9574888894687
0.00364306572982521,17.9603149676662
0.00413197583870644,17.9629580435862
0.00468794550489252,17.9654375001371
0.00532125554477732,17.9677722009229
0.00603856427210004,17.9699645749904
0.00683039242105657,17.971983607323
0.00770664900187645,17.9738633115873
0.00868235075146207,17.9756379107109
0.00978090158599867,17.9773439882522
0.0110437889470233,17.9790290482011
0.0125999251502665,17.9808179557081
0.0148964993886466,17.9830767200347
0.0165228854950691,17.9845032901186
0.0182474782289528,17.9859298602024
0.0198241620772705,17.9872061703776
0.0212286135753984,17.9883647085827
0.0224890820950108,17.9894692698189
0.0236060891159973,17.9905622604067
0.0245618983767729,17.991682145368
0.0253199547821746,17.9928789498284
0.0258068667857495,17.9942470486155
0.0257971390361049,17.9961136649354
0.0252216188716412,17.9977061277749
0.0242236816692332,17.9992985906144
0.0230744073327693,18.0007119582377
0.0217790619365319,18.002103366836
0.020343688823208,18.0035353084739
0.01877775227707,18.0050465755814
0.0175404832850708,18.006236390429
0.016334541450635,18.0074262052766
0.0151099270697926,18.0087038217921
0.0132439041583999,18.0108210498516
0.0114951361109763,18.0130454828494
0.0096547568302721,18.0157292264102
0.00857047786795037,18.0175321748795
0.00759754524973758,18.0193351233489
0.00682018905734732,18.0209343686355
0.00616100516231836,18.0224279996974
0.0055619191925889,18.0239199048349
0.00498557009452509,18.0255036139601
0.00439098507931714,18.0273277703271
0.00367545836886796,18.02985831975
0.00299458649509146,18.0327405949925
0.00247681612645509,18.035384892565
0.00204760759854073,18.0380161882222
0.00164896614983985,18.040998920442
0.00127179277360944,18.0445980538039
0.000968136948672568,18.048508813355
0.000740577451605669,18.0527878136366
0.000598612201751635,18.0575223457366
0.000564991145042155,18.0620259240258
0.000624182891239122,18.06606105771
0.000762039854208392,18.0696915904689
0.000971562398044949,18.0729607242974
0.0012503088377874,18.0759179589683
0.00159917994441602,18.0786121537422
0.00202271295984574,18.0810942805536
0.00252966730620481,18.0834151799261
0.00313596905161492,18.0856315386604
0.00387320414958815,18.0878201277151
0.00479385785221583,18.0900686478334
0.00601965849136113,18.0925514640546
0.0076670379638029,18.095335326784
0.00921490447667652,18.0975780473464
0.010987544773311,18.0998207679089
0.0126960270970074,18.1017075523418
0.0143983948878155,18.1033545838571
0.0162065716633868,18.104884036516
0.0181671257307806,18.1063264132213
0.0203249299383962,18.1077007151663
0.0227297039889234,18.1090214261719
0.0254149427687242,18.1102895274214
0.0284297625516053,18.1115117461431
0.0318160997816158,18.1126892007129
0.035623671404384,18.1138245020738
0.0399108664571297,18.1149209539503
0.0447406182984182,18.1159809534117
0.0501857450509662,18.1170071832757
0.0563354245758578,18.1180031968225
0.0632926956597611,18.1189722417269
0.0711798671673321,18.1199176705205
0.0801458755987188,18.1208432273824
0.0903734654893958,18.121753016265
0.10208853520361,18.1226515023651
0.115575870308708,18.1235437660745
0.131200635925883,18.1244357186393
0.149446048434204,18.1253346981226
0.170970888531193,18.1262501463155
0.196368716729122,18.1271832305344
0.225766621853568,18.1281197179168
0.259912725099793,18.129069110768
0.299836649288634,18.1300464718627
0.347243763017381,18.1310822344817
0.38405382897875,18.1318277502869
0.422149867632969,18.1325732660921
0.455968409057805,18.1332368846725
0.485609798543749,18.1338448224144
0.511590975397487,18.1344284108124
0.533863461512104,18.1350113950523
0.551890706668001,18.1356182849428
0.564419849404943,18.1362851271081
0.568406232353763,18.1370431376623
0.560824506720876,18.1378215221587
0.540454760605214,18.1386411615635
0.505399259581525,18.1395200027506
0.455847526068516,18.140427878023
0.392226442554825,18.1413558222926
0.344547986992516,18.1419592077338
0.292836458472865,18.1425625931749
0.247384206274222,18.143068600067
0.208660262787158,18.1434936281954
0.174762121027595,18.1438693417549
0.144474303066664,18.144214730338
0.117064937111042,18.1445415918137
0.0920281552045558,18.1448586587483
0.0689428244625079,18.1451740407986
0.0473452744985321,18.1454979984367
0.0264162274798137,18.145850804595
0.00811451061263837,18.1462059366535
-0.00133708097869707,18.1464137547533
-0.00989892979061501,18.1466215728531
-0.0165488603291111,18.1467993597425
-0.0226403830121456,18.1469781289823
-0.0287894043360215,18.1471781450474
-0.0347377914078909,18.147395870677
-0.0403194547182595,18.1476291271809
-0.0454415993223159,18.1478771197616
-0.0500555378012631,18.1481399760828
-0.054139260055295,18.1484184863952
-0.0576871515358225,18.1487139785065
-0.0607029064713065,18.1490282759262
-0.063345569247732,18.1493891130792
-0.0652538589628875,18.1497474303018
-0.0666644615770266,18.1501329828855
-0.0675938453597011,18.1505505478544
-0.0680542114657408,18.1510056950364
-0.0680537724591991,18.1515054962067
-0.0675945285787702,18.1520591367419
-0.0666666293544643,18.1526802631964
-0.0652438481789851,18.1533869810904
-0.0632721581348049,18.1542067298834
-0.0606378629695538,18.1551873780097
-0.0570445533502941,18.1564397056702
-0.0528706301388154,18.1578507616585
-0.0488167805356759,18.159216950661
-0.0449367450730664,18.1605433377343
-0.0412577291395492,18.1618321012203
-0.0377942726063064,18.1630839646059
-0.0345535991234677,18.1642989213769
-0.031537955996275,18.1654766199132
-0.0287458426415974,18.1666165666543
-0.0261728038841455,18.1677182313629
-0.023812041968007,18.16878109744
-0.0216549439405736,18.1698046795835
-0.0196915568639402,18.1707885207444
-0.0179110192720788,18.1717321749924
-0.0162948986558501,18.1726392557599
-0.0147350554607778,18.1735693418054
-0.0132365872147337,18.1745235875534
-0.0118034890329675,18.1755039480133
-0.0104395858100792,18.1765127049633
-0.0091484748285795,18.1775525508093
-0.00793347355109721,18.1786266923063
-0.00679756465224207,18.1797389888805
-0.00574333819454035,18.1808941410205
-0.00477293035776435,18.1820979533668
-0.00388795741180282,18.1833577131399
-0.00308944233653032,18.1846827540681
-0.00237772908220226,18.1860853337786
-0.00175237465060198,18.1875820744569
-0.00121245083185246,18.1891949710149
-0.000780711884286827,18.1908463575637
-0.000439281174468646,18.1925547224919
-0.000172873580783786,18.1943389438676
3.28131731047662e-05,18.1962237579386
0.000191483528873434,18.1982432155165
0.000316820665891573,18.2004476576675
0.000423494256289005,18.2029193956758
0.000529590130071377,18.205816701622
0.000666278114053158,18.2095632553296
0.000821321927977747,18.2133823695894
0.00102016339861737,18.217703725726
0.00123951024774647,18.2220603990418
0.00146642450643293,18.226364833917
0.00170789055589584,18.2308788087867
0.00197689700425246,18.2359284515757
0.00223513402083453,18.2408221225531
0.00249641890382431,18.24581669613
0.0027220954111544,18.2501326634153
0.0029299652905286,18.2540903336695
0.00313215169121477,18.2579032223012
0.00333478676807753,18.2616707253751
0.0035419896482708,18.2654527754854
0.00375713921626445,18.2692927725186
0.0039833830094733,18.2732260895037
0.00422390752899585,18.277284074084
0.00448215584059505,18.2814968471915
0.00476199875726418,18.2858948175652
0.00506794710531002,18.2905099493984
0.00540548639826414,18.2953770900085
0.00578162080168931,18.300535151581
0.0061798317206426,18.3056983644137
0.00659687607004883,18.310787848142
0.00703643131457102,18.3158102890485
0.00750151914847925,18.3207559376092
0.00799704762999025,18.3256296600679
0.00852857144269166,18.3304355882893
0.00910241938245141,18.3351779432466
0.00972551572422421,18.3398588067853
0.0104054484457781,18.3444784496757
0.011165437674961,18.3491223650559
0.0120209979010111,18.3537938699568
0.0129927548577831,18.3585056216134
0.0141093476206124,18.3632849897511
0.0154160314290524,18.3681956652038
0.0170013864235016,18.3734007970949
0.0191333545696639,18.3794794542209
0.0208940798737236,18.3839776603289
0.0227605869645315,18.3884758664368
0.0243235952810896,18.3922170953881
0.0256233469761969,18.3954866857459
0.0267121189303423,18.3985465755127
0.0275831855725255,18.4015184910766
0.0281847972920291,18.404349601394
0.0285182133664953,18.4071596543524
0.0285579047262094,18.4100967602469
0.0282105877200674,18.4134514958452
0.0271906160604007,18.4177869773216
0.0262918135482583,18.4204594399436
0.0252334586718831,18.4231319025655
0.0241611716607676,18.4255732985588
0.0230876167271794,18.4278698996986
0.0220133681024483,18.4300858893284
0.0209412556520794,18.4322574208449
0.0198749295869004,18.434407370542
0.0188180770082749,18.4365518616637
0.0177741804046635,18.4387031819568
0.0167464534395575,18.4408712740677
0.0157378308694679,18.4430645894166
0.0147509731430585,18.445290626302
0.0137882801602519,18.4475562827461
0.012851899561073,18.4498681214611
0.0119437378181167,18.4522325675327
0.0110654727859796,18.454656063932
0.0102185558466163,18.4571452337982
0.00940428251232372,18.4597069969164
0.00862369799928276,18.4623487227691
0.00785566300408867,18.4651621747752
0.00710321928275188,18.4681692892767
0.00637010255383487,18.4713935494085
0.00566025686846209,18.4748620708347
0.00497780742306111,18.4786062439237
0.00432700023666593,18.482662579653
0.00371209735034729,18.4870739158419
0.00313720773460172,18.491891382982
0.00260605516998745,18.4971777996889
0.00212167097571445,18.5030141445321
0.0016862707369267,18.5095085272166
0.00131085567153977,18.5166033980898
0.000997344598719502,18.5242740317259
0.000739087560447069,18.5326433566499
0.00054667557878717,18.5415539642067
0.000424364514240368,18.5496197248407
0.000314411670031985,18.5596197248407
0.00023774711801448,18.5696197248407
0.000184531992191906,18.5796197248407
0.000148106833555897,18.5896197248407
0.000123609632589769,18.5996197248407
0.000107478235672994,18.6096197248407
9.71801207548497e-05,18.6196197248407
9.09682698742984e-05,18.6296197248407
8.76571830445759e-05,18.6396197248407
8.64450140187911e-05,18.6496197248407
8.67884490512468e-05,18.6596197248407
8.83203819644392e-05,18.6696197248407
9.07964444153391e-05,18.6796197248407
9.4059495909595e-05,18.6896197248407
9.80153893387185e-05,18.6996197248407
0.000102616280792191,18.7096197248407
0.000107849316698359,18.7196197248407
0.000113729282725901,18.7296197248407
0.000120294213230854,18.7396197248407
0.000127603260449544,18.7496197248407
0.000135736374363083,18.7596197248407
0.000144795558452727,18.7696197248407
0.00015490765135588,18.7796197248407
0.000166228756260081,18.7896197248407
0.000178950622267211,18.7996197248407
0.000193309504233621,18.8096197248407
0.000209598328206264,18.8196197248407
0.000228183424744175,18.8296197248407
0.000249527751498939,18.8396197248407
0.000274223559079335,18.8496197248407
0.000303039120387885,18.8596197248407
0.000336986909600296,18.8696197248407
0.000377425347138068,18.8796197248407
0.000426214581160763,18.8896197248407
0.000484205799364639,18.899349865701
0.000550070069713365,18.908346007911
0.000624681817573483,18.9166464283099
0.000709181628368164,18.9243050080167
0.000804890013433796,18.9313723798614
0.000913310030786922,18.9378955003072
0.00103614555108946,18.9439179314021
0.00117532627773827,18.9494801091712
0.00133303856675432,18.9546195604819
0.00151175935298838,18.959371107117
0.00171429673797659,18.9637670761552
0.001943837477679,18.9678375091698
0.00220400521610354,18.9716103458724
0.00249892749022827,18.975111594496
0.00283332381863324,18.9783655189559
0.00321261502788973,18.9813948372528
0.00364306568722191,18.9842209154647
0.00413197579043475,18.9868639913976
0.00468794545016955,18.9893434479598
0.00532125548265679,18.9916781487555
0.00603856420367551,18.9938705228374
0.00683039234564825,18.9958895551816
0.00770664891844228,18.9977692594546
0.00868235065843891,18.9995438585842
0.00978090148079976,19.0012499361281
0.0110437888246586,19.0029349960744
0.0125999249913645,19.0047239035609
0.0148964991064123,19.0069826677974
0.0165228852270783,19.00840923791
0.0182474779867813,19.0098358080226
0.0198241618657492,19.0111121182214
0.0212286133865077,19.0122706564374
0.0224890819267778,19.0133752176774
0.0236060889697044,19.0144682082635
0.0245618982560495,19.0155880932172
0.0253199546939611,19.016784897661
0.0258068667453908,19.0181529964108
0.0257971391127719,19.0200196125862
0.025221619015514,19.021612075504
0.0242236818189356,19.0232045384218
0.0230744074968066,19.02461790606
0.0217790621179343,19.0260093146561
0.0203436890208107,19.0274412562855
0.0187777524894647,19.0289525233796
0.0175404832038682,19.0301423385076
0.016334541094008,19.0313321536356
0.0151099263981304,19.0326097705099
0.0132439036570354,19.0347269984415
0.011495136003196,19.0369514309761
0.00965475676917701,19.0396351744751
0.00857047718766623,19.0414381240316
0.00759754407844594,19.0432410735882
0.00682018778514992,19.0448403193183
0.00616100394078589,19.0463339505155
0.00556191809488906,19.0478258556008
0.00498556918869335,19.0494095644563
0.0043909844842894,19.05123372011
0.00367545857538157,19.053764266745
0.00299458667205731,19.0566465418676
0.00247681617115861,19.0592908399034
0.00204760767679614,19.0619221351291
0.00164896633840963,19.064904866051
0.001271792894463,19.0685039991921
0.000968136993479417,19.0724147585086
0.000740577407653798,19.0766937585033
0.000598612040387334,19.081428290245
0.000564990839535165,19.0859318695252
0.000624182461175768,19.0899670039999
0.000762039307082554,19.0935975374867
0.000971561735506857,19.0968666719568
0.00125030805707771,19.0998239071801
0.00159917903830523,19.1025181024148
0.00202271191463584,19.1050002295908
0.0025296660978091,19.1073211292223
0.00313596763598404,19.1095374880864
0.00387320243870642,19.111726077085
0.00479385568878925,19.1139745968994
0.00601965546425476,19.1164574122444
0.00766703424613741,19.11924127472
0.00921490124929773,19.121483996574
0.0109875422472993,19.1237267184281
0.012696024810548,19.1256135033824
0.0143983926671024,19.1272605351666
0.0162065692824051,19.1287899878848
0.0181671232371309,19.1302323647018
0.0203249272291381,19.131606666702
0.0227297010558848,19.1329273777766
0.0254149395446023,19.134195479077
0.0284297590088465,19.1354176978543
0.0318160958213204,19.1365951524593
0.0356236670154369,19.1377304538682
0.0399108615799064,19.1388269057898
0.0447406128323833,19.1398869052864
0.0501857389396102,19.1409131351882
0.0563354177264157,19.1419091487699
0.0632926879616954,19.142878193706
0.0711798584687781,19.1438236225255
0.0801458657555952,19.144749179412
0.090373454308304,19.1456589683155
0.10208852244522,19.1465574544325
0.115575855673413,19.1474497181544
0.131200619025527,19.1483416707263
0.149446028772322,19.149240650211
0.170970865430718,19.1501560983976
0.196368690095504,19.1510891826275
0.2257665910827,19.1520256700152
0.259912689418355,19.1529750628635
0.29983660759378,19.1539524239407
0.347243713265011,19.1549881865062
0.384053782843969,19.1557337024501
0.422149826756034,19.1564792183939
0.455968372471992,19.157142837064
0.485609765294058,19.1577507748544
0.511590945277805,19.1583343632743
0.533863434796886,19.1589173475132
0.551890684146693,19.1595242373743
0.564419832877195,19.1601910794605
0.568406225881352,19.1609490900145
0.56082451124102,19.1617274744891
0.54045477767319,19.1625471138518
0.505399291434705,19.163425954979
0.455847570675061,19.1643338302464
0.392226496608617,19.1652617745472
0.344548035651772,19.1658651601316
0.292836498698473,19.1664685457159
0.247384239752985,19.1669745527019
0.208660291839666,19.1673995808843
0.174762146947042,19.1677752944766
0.144474326561734,19.1681206830805
0.117064958633366,19.1684475445688
0.0920281750974091,19.1687646115094
0.0689428430553227,19.1690799935583
0.047345292243685,19.1694039511842
0.026416245473439,19.1697567573022
0.00811451492530788,19.1701118895986
-0.00133707823142221,19.1703197077279
-0.00989892835917357,19.1705275258572
-0.0165488590938706,19.1707053127511
-0.0226403817165536,19.1708840819881
-0.0287894030273571,19.1710840980513
-0.0347377901199227,19.1713018236795
-0.0403194534708258,19.1715350801823
-0.0454415981269192,19.171783072762
-0.0500555366643462,19.1720459290821
-0.0541392589802438,19.1723244393933
-0.0576871505241492,19.1726199315033
-0.0607029055215688,19.1729342289215
-0.0633455683694224,19.1732950660736
-0.0652538581419266,19.173653383294
-0.0666644608124124,19.1740389358751
-0.0675938446506586,19.1744565008406
-0.0680542108118151,19.1749116480185
-0.0680537718605518,19.1754114491836
-0.067594528036609,19.1759650897122
-0.0666666288721682,19.1765862161579
-0.0652438477629668,19.1772929340398
-0.0632721577974766,19.1781126828157
-0.0606378627379541,19.1790933309147
-0.0570445533073555,19.1803456585191
-0.0528706300945367,19.1817567145131
-0.0488167804828395,19.1831229035196
-0.0449367450081004,19.1844492905961
-0.0412577290609134,19.1857380540849
-0.0377942725134087,19.1869899174733
-0.0345535990162187,19.1882048742468
-0.0315379558749031,19.1893825727856
-0.0287458425065241,19.1905225195291
-0.0261728037359375,19.1916241842401
-0.0238120418073314,19.1926870503197
-0.0216549437681602,19.1937106324657
-0.0196915566805582,19.1946944736291
-0.0179110190785141,19.1956381278796
-0.0162948984596255,19.1965452086458
-0.0147350552616801,19.1974752946898
-0.0132365870126261,19.1984295404362
-0.0118034888277236,19.1994099008945
-0.0104395856015908,19.2004186578427
-0.00914847461675321,19.2014585036866
-0.00793347333586683,19.2025326451813
-0.00679756443356182,19.2036449417531
-0.0057433379724006,19.2048000938902
-0.00477293013219069,19.2060039062332
-0.00388795718286741,19.2072636660026
-0.00308944210435519,19.2085887069263
-0.00237772884697281,19.2099912866315
-0.00175237441258188,19.2114880273033
-0.00121245058949656,19.2131009238594
-0.000780711638860894,19.2147523104053
-0.000439280927052345,19.2164606753295
-0.000172873332404395,19.2182448967
3.2813421444969e-05,19.2201297107639
0.000191483776157757,19.2221491683323
0.00031682091102628,19.22435361047
0.000423494497980824,19.2268253484585
0.000529590366495485,19.2297226543707
0.000666278341252935,19.233469207997
0.000821322147876542,19.2372883222409
0.00102016360938765,19.241609678329
0.00123951044348354,19.2459663514635
0.00146642470086194,19.250270786398
0.00170789077003848,19.2547847616964
0.00197689719853235,19.2598344041455
0.00223513421178483,19.264728075073
0.00249641910766956,19.2697226488888
0.00272209558748805,19.274038615614
0.00292996545650076,19.2779962856325
0.00313215185484055,19.2818091741737
0.00333478693405905,19.2855766772363
0.00354198982012423,19.2893587273885
0.00375713939708854,19.2931987245049
0.00398338320228852,19.2971320416087
0.004223907736968,19.3011900263404
0.00448215606720715,19.3054027996317
0.00476199900648708,19.3098007702227
0.00506794738184993,19.3144159023091
0.00540548670798938,19.3192830432121
0.0057816211523122,19.3244411051224
0.00617983207832184,19.3296043177946
0.00659687644783419,19.3346938015036
0.00703643171076423,19.3397162423312
0.00750151956806266,19.344661890828
0.0079970480773807,19.3495356132237
0.00852857192342551,19.354341541388
0.00910241990249271,19.3590838962914
0.00972551629007574,19.3637647597776
0.0104054490645177,19.3683844026153
0.0111654383709698,19.3730283180301
0.0120209986874488,19.3776998229576
0.0129927557556984,19.3824115746585
0.0141093486600781,19.387190942875
0.0154160326615233,19.3921016184894
0.0170013879639836,19.397306750772
0.0191333568848238,19.4033854093364
0.0208940817283641,19.4078836138465
0.0227605882144127,19.4123818183567
0.0243235962642476,19.4161230467269
0.025623347800148,19.4193926368614
0.0267121196127581,19.422452526542
0.0275831860672129,19.4254244419649
0.0281847976074066,19.4282555522254
0.0285182134967584,19.4310656052138
0.0285579046397711,19.4340027112619
0.028210587301507,19.4373574473398
0.0271906153482342,19.4416929286294
0.026291812769326,19.4443653910019
0.0252334578876929,19.4470378533745
0.0241611708782156,19.4494792492222
0.0230876159437631,19.4517758502842
0.0220133673193712,19.4539918398708
0.0209412548718385,19.4561633713644
0.0198749288122127,19.4583133210523
0.0188180762417583,19.4604578121749
0.0177741796487538,19.462609132477
0.0167464526964863,19.4647772246035
0.0157378301412651,19.4669705399738
0.0147509724315575,19.4691965768859
0.0137882794670969,19.4714622333616
0.0128518988877309,19.473774072113
0.0119437371658793,19.4761385182256
0.0110654721559742,19.4785620146708
0.0102185552398106,19.481051184588
0.00940428192965008,19.4836129477625
0.00862369744139127,19.4862546736771
0.00785566245593199,19.4890681258159
0.00710321874717023,19.4920752404651
0.00637010203358508,19.4952995007627
0.00566025636644332,19.4987680223757
0.00497780694228984,19.502512195676
0.00432699978021494,19.5065685316448
0.00371209692124959,19.5109798681069
0.00313720733570125,19.5157973355608
0.0026060548037474,19.5210837526322
0.00212167064402654,19.5269200979068
0.00168627044110869,19.5334144811128
0.00131085542291779,19.5405093523665
0.000997344392404742,19.548179986459
0.000739087391741983,19.5565493119421
0.000546675859781685,19.5654598984849
0.00042436457270573,19.5735256701402
0.000314411708613703,19.5835256701402
0.000237747143404408,19.5935256701402
0.000184532009518456,19.6035256701402
0.000148106845882987,19.6135256701402
0.000123609641589749,19.6235256701402
0.000107478242314946,19.6335256701402
9.71801256882391e-05,19.6435256701402
9.09682735785896e-05,19.6535256701402
8.76571858766256e-05,19.6635256701402
8.64450162351885e-05,19.6735256701402
8.67884508299531e-05,19.6835256701402
8.83203834263683e-05,19.6935256701403
9.07964456422671e-05,19.7035256701403
9.40594969569853e-05,19.7135256701403
9.80153902441766e-05,19.7235256701403
0.000102616281580919,19.7335256701403
0.000107849317386749,19.7435256701403
0.000113729283323976,19.7535256701403
0.000120294213743935,19.7635256701403
0.000127603260879369,19.7735256701403
0.000135736374708513,19.7835256701403
0.000144795558710133,19.7935256701403
0.000154907651519281,19.8035256701403
0.000166228756321065,19.8135256701403
0.000178950622214661,19.8235256701403
0.00019330950405322,19.8335256701403
0.000209598327879749,19.8435256701403
0.000228183424248263,19.8535256701403
0.00024952775080379,19.8635256701403
0.000274223558146378,19.8735256701403
0.000303039119166669,19.8835256701403
0.000336986908023875,19.8935256701403
0.000377425345116067,19.9035256701403
0.000426214578568681,19.9135256701403
0.000484205796301703,19.9232558110394
0.000550070066131931,19.9322519532869
0.000624681813410084,19.9405523737205
0.000709181623549318,19.9482109534593
0.000804890007876177,19.9552783253336
0.000913310024396711,19.9618014458067
0.00103614554376112,19.9678238769267
0.00117532626935298,19.9733860547189
0.00133303855717818,19.9785255060508
0.00151175934207059,19.9832770527054
0.0017142967255468,19.9876730217615
0.00194383746354457,19.9917434547925
0.0022040052000459,19.99551629151
0.00238602600182795,19.997758145755
0.00259311063782964,20
