ecg,time
0.00765223302362774,15.0021296645254
0.00814833020176479,15.0069789105949
0.00868618790154862,15.0117659835001
0.00927163730334828,15.0164905672995
0.00991114346440779,15.0211509147019
0.0106124996837943,15.025747991094
0.0114016619368817,15.0303772784633
0.0122926164038532,15.0350266378674
0.0133077397818143,15.0397121288348
0.0144782856407354,15.0444648198763
0.0158557851186714,15.0493599547153
0.0175481026988817,15.0545983796753
0.0199406349445166,15.0610027564637
0.0216269666384338,15.0650734800762
0.0233896975954955,15.0691442036886
0.0249139680741611,15.072678396868
0.0261964642137453,15.0758325445984
0.0272703577169663,15.0788164367739
0.0281099304195647,15.0816901565231
0.0286812136881362,15.0844485508358
0.0289819993676911,15.0872099115372
0.0289799213981338,15.0901295182609
0.0285573984199486,15.093551890254
0.0277788330666766,15.0967716297994
0.0266897860675105,15.0999913693447
0.025604585635737,15.1026554644368
0.0245344214607866,15.1050278569311
0.0234640827721792,15.1072610463552
0.0223923287872468,15.1094189801581
0.0213220710883312,15.11153531798
0.0202570057222163,15.1136314281662
0.0192008023488971,15.1157224909023
0.0181568982853042,15.1178201436815
0.017128448506074,15.1199338489613
0.0161183214729774,15.122071687957
0.0151291109312241,15.1242408581102
0.0141631472774934,15.1264480181462
0.0132225118816433,15.128699534461
0.0123090501250244,15.1310016733782
0.0114243774757879,15.1333607776881
0.0105698961493949,15.1357833992082
0.00974679965964276,15.1382764566666
0.00894933219983272,15.1408701712625
0.00816253908687275,15.1436359652761
0.00739019344304506,15.1465936090599
0.0066360915852858,15.1497667590686
0.00590428027056859,15.1531827949907
0.005199029378374,15.1568735327232
0.0045247837718151,15.1608760979557
0.00388607523457317,15.165234104045
0.00328736638190286,15.1699995076333
0.00273279360915897,15.1752360436188
0.00222584757039326,15.1810255046602
0.00176911626730022,15.1874782101698
0.00138028844164532,15.1944230952591
0.00106276643862927,15.2019162687416
0.000816672367712443,15.2100660795385
0.000640755484577415,15.2180113960704
0.000487688344855752,15.2273913519737
0.000372754953955656,15.2373913519737
0.000293823287613673,15.2473913519737
0.000240483189472113,15.2573913519737
0.000205143685857674,15.2673913519737
0.000182367709131163,15.2773913519737
0.000168377404172896,15.2873913519737
0.000160606710350017,15.2973913519737
0.000157331316257139,15.3073913519737
0.000157398360091939,15.3173913519737
0.00016004528204045,15.3273913519737
0.000164782863520831,15.3373913519737
0.000171319657006618,15.3473913519737
0.000179512668918009,15.3573913519737
0.000189335715889381,15.3673913519737
0.000200860834509124,15.3773913519737
0.000214250246044088,15.3873913519737
0.000229757678408809,15.3973913519737
0.000247738968824124,15.4073913519737
0.000268673138389126,15.4173913519737
0.000293196786821134,15.4273913519737
0.000322157056711065,15.4373913519737
0.000356692206844804,15.4473913519737
0.000398355224438228,15.4573913519737
0.000449307244442501,15.4673913519737
0.000508582243184065,15.4768081483833
0.000576248491118004,15.4855002427291
0.000653370052425298,15.4935173161869
0.000741232856469541,15.500912506352
0.000841309825762263,15.5077353197548
0.00095527209574048,15.5140316688875
0.00108501195751483,15.5198441506979
0.00123267163972377,15.5252122990137
0.00140067737707781,15.5301728085305
0.00159177766914993,15.5347597483493
0.00180908994484353,15.5390047678264
0.00205615491258977,15.5429372938433
0.00233700414928213,15.5465847185942
0.00265624290727293,15.5499725893632
0.003019156022897,15.5531248072121
0.00343184599026646,15.5560638370881
0.00390141661069868,15.5588109405675
0.00443622786269687,15.5613864531891
0.00504626167806749,15.5638101354286
0.00574344620139681,15.5661009793181
0.00651452556424005,15.5682086373637
0.00736915698786897,15.5701688929689
0.00832225645776366,15.5720182199774
0.0093972045853999,15.5737956360638
0.010635813461347,15.5755520828294
0.0121546412806374,15.5774058530473
0.0144312120846867,15.5797806401108
0.0159915952159398,15.5812339801567
0.0176408059051787,15.5826873202026
0.0191449424679725,15.583988832259
0.0204849429734499,15.5851745132553
0.0216849350161129,15.5863071811109
0.0227435454079743,15.5874293518648
0.0236420549768364,15.5885802948657
0.0243429312149622,15.5898117959228
0.0247704733784225,15.5912230580854
0.0246835016596631,15.5931709356703
0.024071895255128,15.5947714159192
0.0230675629779623,15.5963718961681
0.0219198093046009,15.5978051019222
0.0206335731831723,15.5992171793991
0.0192155203820858,15.6006682106435
0.0176750641187249,15.6021963897987
0.0167013027560328,15.6031590723931
0.0157460572706959,15.6041217549876
0.0146981329059983,15.605227369082
0.0123154656022569,15.6079890179496
0.0101688796809071,15.6108725521464
0.00847128737305389,15.6135334076307
0.0071032269541431,15.6160229062204
0.00591047347541675,15.618541624722
0.00486273416664487,15.6211225297531
0.00394014327920088,15.6237893460271
0.00312819228546259,15.6265605391897
0.00247882373392482,15.6291719051833
0.00195040945490706,15.6316492201276
0.00151064346965674,15.634030540453
0.00113527147109587,15.6363611268517
0.000805501389087078,15.6386971719037
0.000504527150742923,15.6411256065437
0.000208337325674972,15.643860869829
-1.35795209618789e-05,15.6461859328579
-0.000212571008434501,15.6485109958867
-0.000363725946699279,15.6504517057643
-0.000487804977571266,15.652170407591
-0.000600038363741829,15.6538309113802
-0.00070846484941886,15.655537021298
-0.00082044347804218,15.6574099629496
-0.000949034629179709,15.6597061439303
-0.0011770130558622,15.6641718598764
-0.00137085081440989,15.6683774892023
-0.00152201091409394,15.6719225309078
-0.00167116820052143,15.6756570140986
-0.0018463962944275,15.680390533899
-0.00202928047744281,15.6859866579999
-0.00215239740568877,15.6908475993763
-0.00221381966253156,15.6952409730891
-0.00220261405926887,15.6991825313426
-0.00211062119435638,15.7027270845873
-0.00193135591289413,15.7059431083022
-0.00165835699737318,15.7089002279118
-0.00128325056532423,15.7116652338063
-0.00079297699491308,15.7143050269622
-0.000163021325833464,15.7169019548964
0.000660920263052009,15.7195884584861
0.00180793761404295,15.7226112016973
0.00327441790709606,15.7258232669254
0.00509932984926624,15.7292477688331
0.00634526886692493,15.7313287925226
0.00771787957305185,15.733409816212
0.00914264431519332,15.7353486951274
0.0105759634194613,15.7370856467604
0.0121116479430502,15.7387316642955
0.0137927312996884,15.7403125298105
0.0156282302909616,15.7418172142834
0.0176693207634783,15.7432692813863
0.0199352155207264,15.7446633156151
0.0224659555847807,15.7460069202529
0.0252929529979962,15.7473003309322
0.0284507704788658,15.7485446182307
0.0319851373086261,15.7497438410102
0.0359441759602185,15.7509006418176
0.0403825191442164,15.7520177045066
0.0453658118703262,15.7530984203238
0.0509724913171754,15.7541465137957
0.0572943136650062,15.7551655629118
0.0644413591392929,15.7561593542863
0.0725472319883266,15.7571319506258
0.0817757960366679,15.7580877508842
0.0923340471321302,15.7590319020341
0.104486088297318,15.7599703302862
0.118579324823925,15.760910288521
0.135087397148537,15.761861148259
0.154688606621244,15.762835885479
0.177611052927466,15.7638216073821
0.204209239161501,15.7648156988409
0.235236313457487,15.7658307662535
0.271750123697427,15.7668859940144
0.315506761988735,15.7680178329853
0.350433285379489,15.7688558269577
0.386630603225666,15.76969382093
0.418819635596326,15.7704391327086
0.446985217409923,15.7711182475332
0.47153977674864,15.7717633872847
0.492436256331481,15.7723983718716
0.50921768972931,15.7730453931699
0.520888030252556,15.773731728178
0.525361562988746,15.774502522846
0.519466878821746,15.7753131737379
0.501786978688052,15.7761494172108
0.470835845581601,15.7770261323832
0.424780721594442,15.7779536930407
0.377096095191877,15.7787184586513
0.321551015056973,15.7794832242618
0.282644830781943,15.7799726420083
0.241960182475022,15.7804620597548
0.205455935173108,15.7808930731485
0.173118485065062,15.7812769576162
0.144072643532933,15.7816303937654
0.11770014399323,15.7819648454538
0.0935598881123903,15.7822889003778
0.0712825646720681,15.7826104185208
0.0504691184240468,15.7829389564082
0.0304602791728308,15.7832919710829
0.00885809297228639,15.7837353043117
-7.96317365929773e-05,15.7839465048705
-0.00818369437506197,15.7841577054293
-0.0146251414525354,15.7843426173524
-0.0205969616153021,15.7845311577302
-0.0265740403042548,15.7847408653976
-0.0323204636314791,15.7849683113076
-0.0376874910280612,15.7852114757987
-0.0425931429924431,15.7854696968695
-0.0469953004786903,15.7857432166614
-0.0508758522268718,15.7860329318343
-0.0543489733743417,15.7863534723596
-0.0571169095127794,15.7866784381388
-0.0593706363335984,15.7870250644876
-0.0611257141156827,15.7873965802084
-0.0623965151323312,15.7877967157869
-0.0631965756323361,15.7882300820317
-0.0635370815071244,15.7887024385946
-0.0634251627742756,15.7892210942983
-0.062861416076931,15.789795754081
-0.0618342923582651,15.7904405292556
-0.0603163372242825,15.7911740882684
-0.0582519141462977,15.7920250001892
-0.0555240130648002,15.793043584393
-0.0518213597568555,15.794349165055
-0.0477832861766484,15.7957399853925
-0.0438856308969633,15.7970857333275
-0.0401738626500574,15.7983906976757
-0.0366699982739324,15.7996570352456
-0.0333851027166201,15.8008855273056
-0.0303236737801916,15.8020762588502
-0.0274856709876964,15.8032289810328
-0.0248676519949038,15.8043433017217
-0.0224635427086987,15.8054187830575
-0.0202652430120974,15.8064549863744
-0.0182631458433354,15.8074514855903
-0.0164465968388097,15.808407860468
-0.0148043024995177,15.8093236760058
-0.0132453363525898,15.8102468877292
-0.0117467667967726,15.8111938403272
-0.0103128877014467,15.812166271899
-0.00894760712346426,15.8131663606403
-0.00765462658428936,15.8141966677797
-0.00643738943245582,15.8152602342382
-0.00529902863114898,15.8163607072577
-0.00424231230889726,15.8175025116756
-0.00326958694347943,15.8186910871842
-0.00238271758745835,15.819933226367
-0.00158302378956925,15.821237572715
-0.000871208523276678,15.8226153846966
-0.000247274850057131,15.8240817684117
0.000289580363603127,15.8256577978317
0.000723136565554185,15.8272959655967
0.00106085875268158,15.8289852505172
0.00131847559395279,15.8307440864514
0.00151031311126113,15.832595145184
0.00164989210566592,15.8345690992796
0.00175038260411311,15.8367102090858
0.00182531570143911,15.8390883309331
0.00189006782228992,15.8418299808494
0.00196661939432082,15.8452311266046
0.00206682124864563,15.8489907758083
0.00219458830467469,15.852863719897
0.00234157939238783,15.8566523647729
0.00250406481082215,15.8604267289432
0.00267870068056778,15.8642377705353
0.00286336354442263,15.8681247078335
0.00305732127167343,15.8721210532957
0.0032611072994429,15.8762579179758
0.00347630826611238,15.8805660288883
0.00370535904441987,15.8850772136544
0.00395141938779113,15.8898257706031
0.00421841837722439,15.8948499266397
0.00451134914995782,15.9001931544596
0.00483236107290806,15.905826361789
0.00515706865000563,15.9112616809825
0.00549562363948263,15.9166352740865
0.00584756459633519,15.9218922671604
0.00621747655273544,15.927057895407
0.00660899160697535,15.9321380837721
0.00702639135991702,15.9371435821701
0.00747403422494567,15.9420807241633
0.00795659709481378,15.9469537406786
0.00847913226605017,15.9517644906311
0.00904720132875052,15.9565130627901
0.00966697908994691,15.9611980671698
0.010345364022466,15.9658170804817
0.011101800396205,15.9704351323878
0.011954470187045,15.9750762841253
0.0129224765909364,15.9797465604345
0.014033119196976,15.9844696395264
0.0153285900766023,15.9893002054722
0.0168885423060196,15.9943760850491
0.0189326557828985,16.0001483795287
0.0208103506298559,16.00486415938
0.0228258073973947,16.0095799392312
0.0244656899452446,16.0133552968126
0.0258191802228317,16.0166038520945
0.0269568234553377,16.0196238021258
0.0278809507336552,16.0225579217263
0.0285331394542116,16.0253401369222
0.0289175998145377,16.0280871624133
0.0290137475996596,16.0309371610298
0.0287434702346621,16.0341401282404
0.0277853984136354,16.0384647997437
0.0269069753616697,16.0411254572643
0.0258560282771836,16.0437861147849
0.0247885743144141,16.0461995607461
0.023719033942629,16.0484580283604
0.0226474495767615,16.0506304778574
0.021576485072538,16.052754814381
0.0205097821732449,16.054854554054
0.019451047581581,16.0569460539396
0.0184037821273587,16.0590416561879
0.0173712087419569,16.0611512720646
0.0163562632683781,16.0632832762277
0.0153616026304311,16.0654450630025
0.0143896173281002,16.0676434200294
0.0134424473283291,16.0698847901413
0.0125219902163252,16.0721754875136
0.0116299156315549,16.0745218619164
0.0107676747993393,16.076930453635
0.00993650924887725,16.0794081435847
0.00913702848821001,16.0819637365901
0.00834732926779145,16.0846872071257
0.00757120446635874,16.0875974159623
0.00681238695528327,16.0907172362348
0.00607486386242699,16.0940731190638
0.00536285461510502,16.097695769362
0.00468076650660005,16.1016209871688
0.00403311858345123,16.1058907574767
0.0034244121168386,16.1105548405496
0.00285888250450734,16.1156738431111
0.00234020557417964,16.1213245552479
0.00187119132242574,16.1276095167073
0.00146601329579841,16.1344363562059
0.00113261405837911,16.1417883832246
0.000903868165937322,16.1487319263773
0.000703210086358368,16.156857016979
0.000538778484643285,16.165901279054
0.000409634609568998,16.175901279054
0.000320779056184125,16.185901279054
0.000260563756426853,16.195901279054
0.00022050948590131,16.205901279054
0.000194522624949535,16.215901279054
0.000178351827883307,16.225901279054
0.000169101066384261,16.235901279054
0.000164820872918669,16.245901279054
0.000164205183637923,16.255901279054
0.000166386198153076,16.265901279054
0.000170801473604655,16.275901279054
0.000177108097997899,16.285901279054
0.000185126654273105,16.295901279054
0.00019480499852733,16.3059012790541
0.000206196452748264,16.3159012790541
0.000219449482457539,16.3259012790541
0.000234807394075475,16.3359012790541
0.000252617787569616,16.3459012790541
0.000273352819596911,16.3559012790541
0.000297643033789156,16.3659012790541
0.000326329958943243,16.3759012790541
0.000360546514108891,16.3859012790541
0.000401840717656861,16.3959012790541
0.000452369655859052,16.4059012790541
0.000510893938527661,16.4152742368635
0.000577689424578293,16.4239265488976
0.000653822934254343,16.4319089694213
0.000740570173854947,16.4392739705303
0.000839389987217484,16.4460704256953
0.000951936431367067,16.4523436984353
0.00108008171229937,16.4581359069959
0.0012259446474467,16.4634861643363
0.00139192407884173,16.4684307934984
0.00158073648137082,16.4730035330391
0.00179546152090641,16.4772357351971
0.00203959521187333,16.4811565560433
0.00231711560615932,16.4847931378717
0.0026325633480352,16.4881707932138
0.00299114404883761,16.4913131965221
0.00339886127868765,16.4942425861894
0.00386269271782912,16.4969799873386
0.00439083297581411,16.4995454745262
0.00499303972230709,16.5019585003742
0.00568114891182388,16.5042383393027
0.00644409551741855,16.5063399217204
0.0072888597213493,16.5082909193947
0.00822925786216102,16.5101267561148
0.00928660132562765,16.5118845114703
0.0104977654655192,16.5136103645398
0.011955505269466,16.5153985828757
0.0140081991807454,16.5175580543001
0.0156052814399355,16.5190505383927
0.0173164449498178,16.5205430224852
0.0189121302744357,16.521890369043
0.0203231941632862,16.5230922736125
0.0215877296698724,16.5242243951156
0.0227123228563665,16.5253338371425
0.0236835083069878,16.5264590573244
0.0244705902659242,16.5276454081555
0.0250141258966669,16.5289694081006
0.0251630871786684,16.5306416207497
0.0247049132838444,16.5323939683302
0.0237192848515033,16.5341463159106
0.0225939553242106,16.5356061271059
0.0213341360534104,16.5370087317525
0.0199376556174236,16.5384384554135
0.0184131359170041,16.5399371556131
0.0167671729990384,16.5415426959459
0.0150388130367924,16.5433037923785
0.012295379034734,16.5464485907725
0.0101122721159815,16.5493835795946
0.00842036926531538,16.5520436512601
0.00705814474363108,16.5545314975154
0.00587056685823892,16.5570494038399
0.00482748838893201,16.5596301938202
0.00390912874601503,16.5622975135223
0.00309974490629779,16.5650745805095
0.00241034800632256,16.5678785196665
0.00185885688215191,16.5705220240931
0.00140727496226958,16.573044245121
0.00102768453146901,16.5754915838493
0.000701165521357086,16.5779037089088
0.000415186732322851,16.5803096634848
0.000159805305901598,16.5827438709111
-7.7844401959296e-05,16.5853025410922
-0.000328842941191351,16.5883728537178
-0.000478645738480309,16.5904138024125
-0.000617134383940675,16.5924547511072
-0.000732918948306153,16.5942824794932
-0.000834041668192028,16.5959731767452
-0.000929250355439382,16.5976473914539
-0.00102479160527655,16.5994084440654
-0.00112833760468184,16.6014079978475
-0.00125938320048743,16.6040705055873
-0.00146386888524162,16.608499798304
-0.00162565289483365,16.612224372333
-0.00176400764398718,16.6155552814402
-0.00191243225986992,16.6192840045222
-0.00209340074208424,16.6241122790262
-0.00227552747975246,16.6296180165895
-0.00239343688670426,16.634405922861
-0.0024411848918672,16.6387060605184
-0.00240786020708789,16.6425539419754
-0.00228591831124221,16.6460324268447
-0.00206873971759496,16.6492211822378
-0.00174959304865979,16.6521851754289
-0.00132217364982231,16.6549686163924
-0.000776446881324736,16.6576235228721
-8.7862808150499e-05,16.6602346304257
0.000795895553346874,16.6629247801305
0.00201638711737774,16.6659641998242
0.00355761929284829,16.6691829111212
0.00544584095865713,16.6725799391059
0.00672447957425419,16.6746314584606
0.00813194147586203,16.6766829778152
0.00956422880783832,16.6785581308958
0.0110771019564879,16.680322167084
0.0126525450837145,16.681945229612
0.0143801945145683,16.6835077634817
0.0162719051946163,16.6849999886276
0.0183737333185147,16.6864393655202
0.0207094753727069,16.6878231761251
0.0233155919559145,16.6891560134442
0.0262275527053162,16.6904398456459
0.0294793839844804,16.6916749706611
0.0331195115496346,16.6928658848234
0.0371983532862897,16.6940153308197
0.0417744457586583,16.6951263482105
0.0469143465181119,16.696201801579
0.052701488673873,16.6972457220748
0.0592328723009459,16.6982617933793
0.0666253371731954,16.699253931951
0.0750215909525812,16.7002263948837
0.0845980774846576,16.7011838641911
0.0955790785165904,16.7021318383964
0.108255038912179,16.7030768586539
0.123014208689028,16.7040271236629
0.14039838165654,16.7049935958236
0.161081240940805,16.7059863986117
0.185036596591627,16.7069822989232
0.212900596234356,16.7079920868881
0.24553232298638,16.7090311680467
0.284211537731132,16.7101248183918
0.328835584824552,16.711266103751
0.36894740639938,16.7122304198484
0.402541441685003,16.713026106003
0.431674994012377,16.7137348787059
0.45713227798692,16.7143988365685
0.479007728668091,16.71504396345
0.496983932961365,16.7156920226031
0.51029510839285,16.7163669441718
0.517402403664388,16.7171032411562
0.515329292585042,16.7179153948186
0.50201018415118,16.7187451642387
0.476153210032232,16.7196083290475
0.436091211577596,16.7205164317537
0.379975047878422,16.721478260432
0.33649912031939,16.7221048917998
0.28846541762953,16.7227315231676
0.245554937556262,16.7232582367521
0.208636733988988,16.7237005194253
0.176120595971805,16.7240908295945
0.146947953506872,16.7244487613215
0.120473966633904,16.7247864431202
0.0962529473996352,16.7251126756714
0.0739206104381511,16.7254352655784
0.0530987110816532,16.7257632824483
0.0332060531490781,16.7261121779887
0.0124497740294749,16.7265317304399
0.00159268031364457,16.7267844202359
-0.00573533768364388,16.7269729719572
-0.0124310681548995,16.7271615236785
-0.0182870746266354,16.7273423768962
-0.0242613102931415,16.7275462836645
-0.0300804122868823,16.7277691941967
-0.0355634927105572,16.7280084223648
-0.040609531904666,16.7282628849262
-0.0451651185982631,16.7285325446146
-0.0492052748608589,16.7288180911055
-0.0527452742101327,16.7291237970474
-0.0556896011477662,16.7294426667368
-0.0581182979482438,16.7297824139618
-0.0600448764787397,16.7301459132023
-0.0614834746761883,16.7305366147023
-0.0624479871841938,16.7309587732005
-0.0629505563038133,16.731417676927
-0.0629999771911884,16.7319199874166
-0.0625997597680369,16.7324742615296
-0.0617434306859373,16.7330929999212
-0.060410569426407,16.7337926357646
-0.0585589318883106,16.7345970849176
-0.0561026804068876,16.7355457567602
-0.0528409381008984,16.7367191415543
-0.0487850044898604,16.7381284195945
-0.044847407466858,16.7394881485574
-0.0410839520727878,16.7408053701128
-0.0375224434812072,16.7420831286309
-0.0341769732810702,16.7433226648316
-0.03105388786686,16.7445243037913
-0.0281544190252679,16.7456879201099
-0.0254760635407216,16.7468131825743
-0.0230134589447913,16.7478996812481
-0.0207590399973584,16.7489469892741
-0.018703586029922,16.7499546864299
-0.0168367003553166,16.7509223588769
-0.0151472349987138,16.7518495830039
-0.0135727398779076,16.7527664615149
-0.0120572086592614,16.75370676406
-0.0106052540568939,16.754671997306
-0.00922083188984427,16.7556642490777
-0.00790770668676652,16.7566859666177
-0.00666939849360308,16.7577400477653
-0.00550913134143837,16.7588299579016
-0.00442977942604334,16.7599598871902
-0.0034338109759774,16.761134966873
-0.00252322936468104,16.7623615749048
-0.00169951036502179,16.7636477818102
-0.000963533297815677,16.7650040265452
-0.000315501675259904,16.7664441905708
0.000245155448430697,16.7679874098082
0.000708368301725034,16.7696147766589
0.00107092144197506,16.7712881090838
0.00134923860030455,16.7730257080024
0.00155793595883836,16.7748486018893
0.0017107271260282,16.7767848446061
0.00182083625334949,16.7788741166434
0.00190161611611038,16.7811773032978
0.00196772515520455,16.7837997790609
0.00203840782847771,16.7869664620066
0.00213299172200817,16.7907022787235
0.00225531783946814,16.7945882998523
0.00239818206521008,16.7983811737736
0.00255823100516375,16.8021535350831
0.00273191158229856,16.805958055176
0.0029167172789281,16.8098347770343
0.00311154569721055,16.8138175970677
0.00331664137718162,16.8179377322773
0.00353340309494706,16.8222258449946
0.00376417474886277,16.8267135550183
0.00401210275732807,16.8314347952377
0.00428115200454463,16.8364272637732
0.00457636646484835,16.8417337293975
0.00490075762434924,16.8473396127294
0.00522913193510812,16.8527494262106
0.00557194828638851,16.8581022142417
0.00592859270410799,16.8633408052313
0.00630369362442731,16.8684896910301
0.00670093786266249,16.8735541968409
0.00712470525934079,16.8785447242835
0.00757947497439571,16.8834673787796
0.0080700633671029,16.8883262004696
0.00860167412918547,16.8931228355224
0.00918002909992676,16.8978571265002
0.00981147542005848,16.9025274642344
0.0105031044802601,16.9071313199078
0.0112788650261534,16.9117564111336
0.0121540241795181,16.9164022139436
0.0131496675181246,16.9210811662901
0.0142953072692654,16.9258209471746
0.0156383218589331,16.9306876318079
0.0172735342084105,16.9358529189805
0.0195015255631838,16.9419492121074
0.0212593580449092,16.9462620467703
0.0231174142616084,16.9505748814332
0.0246932372199071,16.9542131794136
0.0260104136314326,16.9574110081058
0.0271162494683038,16.960411227911
0.0279980984354625,16.9633136255444
0.0286100984536779,16.9660825827533
0.0289533235802845,16.9688351067687
0.0290016812709196,16.971716698777
0.028660035332376,16.9750173769033
0.0278954552750258,16.9784153045038
0.0270259472726514,16.9811288711703
0.0259717197045626,16.9838424378369
0.0249033961435543,16.986280785963
0.0238340037577379,16.9885517840162
0.0227625168344212,16.9907311233342
0.0216913206710485,16.9928591558546
0.0206240088479299,16.9949604771991
0.0195642990115907,16.9970520109459
0.0185157186531983,16.9991464282852
0.0174815218407634,17.0012538399197
0.0164646747635971,17.0033827446011
0.0154678644999629,17.0055406083093
0.0144935101382164,17.0077342545925
0.0135437774097283,17.0099701376893
0.0126205917281742,17.0122545517689
0.0117256454679871,17.0145938143954
0.0108604144602918,17.0169944048284
0.0100261616717649,17.0194631258656
0.00922395411361689,17.0220072304273
0.00843302602976034,17.0247115097346
0.00765526463928558,17.0276002942154
0.00689439916072899,17.0306960195075
0.00615439139369156,17.0340247064669
0.00543943728185061,17.0376165529086
0.00475392813186972,17.0415067401474
0.00410237724864753,17.0457364916413
0.00348929409135429,17.0503546126753
0.00291896500778429,17.0554202255559
0.00239514089829902,17.0610079331291
0.00192073152205838,17.0672168311205
0.00150808217443684,17.0739913957487
0.00123160694110103,17.0796442435236
0.00101812307858952,17.0852970912984
0.000790984401892027,17.0932351076066
0.000608793745763002,17.1018780841636
0.000465465115401727,17.1112458878006
0.000357954224955169,17.1212458878006
0.000284423062230785,17.1312458878006
0.000234962689056905,17.1412458878006
0.000202367330824005,17.1512458878006
0.000181525736444226,17.1612458878006
0.000168915896530862,17.1712458878006
0.0001621552440282,17.1812458878006
0.000159644007628319,17.1912458878006
0.000160313048222537,17.2012458878006
0.000163457638124437,17.2112458878006
0.000168630347621986,17.2212458878006
0.000175571464043559,17.2312458878006
0.000184163474517644,17.2412458878006
0.000194402161093423,17.2512458878006
0.000206380270686373,17.2612458878006
0.00022028156510271,17.2712458878006
0.000236384289250555,17.2812458878006
0.00025507425829149,17.2912458878006
0.000276869137825685,17.3012458878006
0.000302457333280082,17.3112458878006
0.000332757636126454,17.3212458878006
0.000369010170868207,17.3312458878006
0.000412916714733252,17.3412458878006
0.000466453762575219,17.3511766118611
0.000527751638044966,17.3603637686436
0.000597659461531854,17.3688386374844
0.000677325546830898,17.3766561891619
0.00076808602262993,17.3838683641682
0.000871463426603645,17.3905233506988
0.000989182923611827,17.3966658547032
0.00112319727383617,17.4023373701532
0.00127571706265912,17.4075764174356
0.0014492457217985,17.4124187597513
0.00164661950816071,17.4168976109308
0.00187105586313061,17.4210438361781
0.00212621071181876,17.4248861432773
0.00241624876719717,17.4284512675852
0.00274593170534118,17.4317641613789
0.00312073012768671,17.4348481925593
0.00354697091210261,17.4377253558608
0.0040320348830966,17.4404165114015
0.00458463248558889,17.4429416727594
0.0052152036746056,17.4453203767667
0.00592971128732071,17.4475527923269
0.0067200001283695,17.4496113651909
0.00759667848393812,17.4515315540111
0.00857600509975548,17.4533495152609
0.00968402460741208,17.4551052384597
0.0109690053581766,17.4568538987089
0.0125893826022222,17.4587516330369
0.0150730619822818,17.4612367548595
0.0166084910778435,17.4626195114135
0.0182107652297705,17.4640022679674
0.0196683497162348,17.4652528460022
0.0209733836470675,17.4664117824594
0.0221397739183266,17.4675321544645
0.023160341000471,17.4686537065269
0.0240113395077439,17.4698174912347
0.0246470365104444,17.4710837845203
0.0249680157006435,17.4725854748785
0.0245656075605244,17.4748822873625
0.0237953928140068,17.4763750238801
0.0227223179710693,17.4778677603976
0.0215089884065992,17.4792768658529
0.0201576296634522,17.4806979669639
0.0186774163275603,17.4821765990306
0.0170764780785774,17.4837496837996
0.0164518819856353,17.4843659385526
0.0158406864590793,17.4849821933057
0.013501101092559,17.4875215749148
0.0110885639233471,17.490533289799
0.00919138929361852,17.4933045047977
0.00768698380570859,17.4958633336272
0.00642025580634277,17.4983641665653
0.00531079638081441,17.5009133424709
0.00433478807060318,17.5035379860959
0.00347482708367716,17.5062612911444
0.00273654835346072,17.5090258287667
0.00214538981746903,17.5116310431215
0.00166244930925066,17.5141085784477
0.00125819402337833,17.5165004389249
0.000911130338954165,17.5188517425346
0.000605288521451744,17.5212122609292
0.00032698187346103,17.5236529684438
5.70773588886692e-05,17.5263487544979
-0.000159245849196715,17.5287923009927
-0.000353218553584351,17.5312358474875
-0.000496375902834087,17.5332129777036
-0.000612946854133782,17.5349424515389
-0.000718433960590871,17.5366060577126
-0.000820545680971672,17.5383098709852
-0.000926191777331626,17.5401726956062
-0.00104739328569701,17.542437796863
-0.00125078953868004,17.5465465119812
-0.00142475275081346,17.55036272507
-0.00156257631304716,17.5535793831404
-0.00170024914391766,17.5569631705487
-0.00185871659610406,17.5610883579053
-0.00206316104589115,17.5669306558653
-0.0022077610678442,17.5719727357653
-0.00229258460043911,17.5765330289582
-0.00230543568187523,17.5806132375346
-0.00223743965308979,17.5842787162027
-0.00208183734326246,17.5875955995958
-0.00183221064958666,17.5906400415842
-0.00148089376891186,17.5934789593758
-0.00101773452615545,17.5961703145535
-0.000424542303258044,17.5987836678917
0.000337182107258225,17.6014224310374
0.00136906930408866,17.604301848922
0.00272726960380319,17.6074296608147
0.00443982726234484,17.6107826424575
0.00576445912431348,17.6130820042072
0.00722880136372545,17.615381365957
0.00866620960174437,17.6174073261489
0.0101051642037522,17.6192184934725
0.0116098093433803,17.6208985043822
0.0132401924550905,17.6225011737987
0.0150188719679974,17.624029731147
0.0169884287755136,17.6255015955176
0.0191746096422027,17.6269164988783
0.0216137575903604,17.6282800015174
0.0243324535467314,17.6295904862609
0.0273722066015814,17.6308528975407
0.0307729187484675,17.6320691962021
0.0345771047088775,17.6332409426436
0.03884159429693,17.634372374082
0.0436287369417391,17.6354666864625
0.0490115004329398,17.6365272073558
0.0550764086406277,17.6375574632425
0.0619258059723488,17.6385610173864
0.0696856435628229,17.6395420035213
0.078509945851377,17.6405048345355
0.0885902459178887,17.641454393584
0.100170207540136,17.6423963465778
0.113567672040954,17.643337533513
0.12921174238229,17.6442866790936
0.147708735414282,17.6452556554637
0.169533213211827,17.6462435414104
0.194831967286845,17.6472370317913
0.224296522959587,17.6482476951333
0.258875359501837,17.6492924805555
0.300048102545261,17.6504011268362
0.336133845405973,17.6512938445336
0.374011736554313,17.6521865622309
0.407502592898592,17.6529663583585
0.436696429732909,17.6536655569892
0.462212269507095,17.6543218340486
0.484132028670544,17.6549608562282
0.502124160388043,17.6556045484243
0.515390909099126,17.6562775322793
0.52230716838485,17.657016451322
0.519798968990839,17.6578250067852
0.505916177784547,17.6586531438517
0.479324728833483,17.6595167909211
0.438301200975707,17.6604275283021
0.380940255862515,17.6613939936857
0.337106653680082,17.6620167823427
0.288794009946269,17.6626395709998
0.245692042290429,17.6631632784331
0.208629493645945,17.6636033353051
0.175999118790207,17.6639918868721
0.146733044956741,17.6643483685223
0.120180273599317,17.6646848361682
0.0958902775719237,17.6650100661061
0.0734937583693364,17.6653318876982
0.0526045903617663,17.665659486306
0.0326203498975343,17.666008766356
0.0116120977825478,17.6664328663457
0.00130013794287124,17.6666724133825
-0.0060095717073422,17.666859630098
-0.0126898240156957,17.6670468468136
-0.0185720488156835,17.6672276582981
-0.0245643729202208,17.6674313031286
-0.0303955101286944,17.6676537918153
-0.0358866906105381,17.6678925040968
-0.040938097277281,17.6681463949649
-0.0454970142532774,17.6684154495707
-0.0495388951700777,17.6687003717808
-0.0530496511819527,17.6690024309372
-0.056036858911455,17.6693249461126
-0.0584640883234798,17.6696642102887
-0.0603879367612213,17.6700272016913
-0.0618230670292804,17.6704174379114
-0.062783434801854,17.6708391951438
-0.0632811934996244,17.6712977909917
-0.0633250881393334,17.6717999297821
-0.0629184893281815,17.6723542330599
-0.0620546009676919,17.6729733208432
-0.0607124605441417,17.6736737904068
-0.058848738373988,17.6744798996413
-0.056375109210316,17.6754318434337
-0.0530828296873586,17.6766126723541
-0.049016756995855,17.678022008806
-0.0450693555270332,17.6793823166293
-0.0412962057810646,17.680700406028
-0.0377250107870275,17.6819792270685
-0.0343698755243399,17.6832199644682
-0.031237207898061,17.6844229076019
-0.028328318625777,17.6855879068932
-0.0256407849493055,17.6867146139406
-0.0231693179227581,17.6878026062103
-0.0209064140802435,17.6888514475618
-0.0188429006489082,17.6898607111343
-0.0169684143515922,17.6908299787639
-0.0152718265857427,17.6917588246956
-0.013694938909891,17.6926747313337
-0.0121768069395876,17.6936140194823
-0.0107220903082074,17.6945781611292
-0.00933475093507541,17.695569230573
-0.00801856199924671,17.6965896582047
-0.00677705448649204,17.6976423209082
-0.00561346573104823,17.6987306576263
-0.00453068568361933,17.6998588246197
-0.00353120088949553,17.7010319088226
-0.00261703575400479,17.702256228967
-0.00178969003755279,17.703539774234
-0.00105007040382687,17.7048928680429
-0.000398411764228472,17.706329220662
0.000165820065117402,17.7078677000416
0.000633524619432763,17.7094935229943
0.000999821457200774,17.7111645628555
0.00128124071995112,17.7128991170296
0.00149243798706892,17.7147179852339
0.0016471505226381,17.71664886252
0.00175860320193109,17.7187308114911
0.00184011186359979,17.7210235344887
0.00190621635157376,17.7236297240376
0.00197577669152449,17.7267659935985
0.00206897220128805,17.7305003756935
0.00219036892905311,17.7344103225149
0.00233200002174568,17.7382125139584
0.00249051889791841,17.7419846455106
0.00266234821483923,17.7457822125304
0.00284494301522465,17.7496466141862
0.00303715044443054,17.753612398825
0.00323914862339768,17.7577110400319
0.00345225084037019,17.7619731947753
0.00367869280565118,17.766430282693
0.00392147822247304,17.7711158332019
0.00418437203192782,17.7760669480226
0.00447212110396986,17.7813256190493
0.00479101025735541,17.7869401251735
0.00511514584182235,17.7923906805383
0.00545249827619246,17.7977763840142
0.0058029129188881,17.8030480326804
0.00617064527837042,17.8082261131716
0.00655934534191368,17.8133171696431
0.0069732683988565,17.8183320241866
0.00741677382483752,17.8232775521905
0.00789452103104349,17.8281584181063
0.00841152729142656,17.8329768384726
0.00897329760239387,17.8377331569914
0.00958593262610345,17.8424261743496
0.0102562388935017,17.8470535792151
0.0110011722117125,17.8516674261853
0.0118405319519912,17.8563059432816
0.0127923212771315,17.8609714764331
0.0138826705364454,17.8656856806057
0.0151511031884439,17.8704974049353
0.0166699257023478,17.875528079978
0.0186253092005754,17.8811537685864
0.0211013513632231,17.8873848730389
0.0226643870393497,17.891033017804
0.0242513097120265,17.8946811625691
0.0256336431713954,17.8979674287866
0.0268016160660324,17.901008985494
0.027762113815501,17.9039612333532
0.0284538164302039,17.9067583980764
0.0288784372671415,17.9095027735143
0.0290201183760957,17.9123264430147
0.0288140810986792,17.9154492370739
0.0279518082084047,17.9197043436836
0.0270907332617624,17.9224393309165
0.0260389570950535,17.9251743181494
0.0249705577289361,17.9276275550566
0.0239013436935721,17.9299064768619
0.0228299690228061,17.9320902671178
0.0217586630529626,17.9342207995233
0.0206909888904631,17.936323356095
0.0196306704936876,17.9384152217366
0.0185812516402172,17.9405092798393
0.0175460041405959,17.9426157761031
0.0165279127320501,17.9447432964922
0.0155296809549781,17.94689936807
0.014553744083434,17.9490908550418
0.0136022842002831,17.9513242364639
0.0126772390707003,17.9536058291687
0.0117803174567805,17.9559419544491
0.0109130073817068,17.9583390980498
0.0100765836110591,17.9608040644268
0.00927212644758727,17.9633440981382
0.00848053204907702,17.966037767584
0.00770185856652741,17.9689147635221
0.00693984366722542,17.9719972491349
0.00619843292862251,17.9753110212719
0.00548181010359479,17.9788860003297
0.00479435232019048,17.9827570641255
0.00414056982882485,17.9869650351482
0.00352498054351603,17.991558186181
0.00295188431687704,17.9965949814297
0.00242507814794708,18.0021488788252
0.00194752855442326,18.008317202443
0.00153061135070898,18.0150633909592
0.00125214435019348,18.0206668946358
0.00103673256926918,18.0262703983124
0.000806709941347952,18.0341575955088
0.000622283477693283,18.0427245212342
0.000476407849078918,18.052035463643
0.000366168828650866,18.062035463643
0.000290763460136947,18.072035463643
0.000240034297493838,18.082035463643
0.000206593348789768,18.092035463643
0.000185197795802652,18.102035463643
0.000172233700469984,18.112035463643
0.000165255823048373,18.122035463643
0.000162622057855141,18.132035463643
0.000163234633294692,18.142035463643
0.000166369432980457,18.152035463643
0.000171566027855969,18.162035463643
0.000178556272840606,18.172035463643
0.000187217610782569,18.1820354636431
0.000197543415819343,18.1920354636431
0.000209626228689361,18.2020354636431
0.000223651637675835,18.2120354636431
0.000239901829414003,18.2220354636431
0.000258769033132566,18.2320354636431
0.000280780503488973,18.2420354636431
0.000306638602042369,18.2520354636431
0.000337282388372448,18.2620354636431
0.000373981737613441,18.2720354636431
0.000418482916196863,18.2820354636431
0.000472364493997084,18.2918893415644
0.00053402831016752,18.3010035274512
0.0006043473655769,18.3094118443815
0.000684481640161029,18.317168767136
0.000775777081204596,18.3243256870373
0.000879765988194346,18.3309302988968
0.000998184165613834,18.3370268659202
0.00113299618423428,18.3426564821253
0.00128642583689227,18.3478573044446
0.00146099117611901,18.3526647655165
0.00165954491568531,18.3571117780197
0.00188532286202769,18.3612289321567
0.00214200181735634,18.3650446837776
0.00243377020072841,18.3685855375719
0.00276541704387652,18.3718762348718
0.00314244489307424,18.3749399505699
0.00357121833869787,18.3777985028537
0.00405916373687876,18.3804725908906
0.00461504767074015,18.3829820820955
0.00524938121329502,18.3853463814933
0.0059670184111897,18.3875623819498
0.00676067819867264,18.3896063922471
0.00764106325665554,18.391513618911
0.00862453524008152,18.3933199098589
0.00973732536112386,18.3950650020828
0.0110281144471546,18.3968038919272
0.012660066663157,18.3986960750938
0.0146175232170343,18.4006664179105
0.0162153621606354,18.4021220236223
0.017903011603624,18.403577629334
0.0194150995792751,18.4048605110227
0.0207621894917158,18.406031684321
0.0219687603902415,18.4071532909494
0.023032420878017,18.408267024036
0.0239334337341684,18.4094122369901
0.0246325974961219,18.4106420272599
0.0250497603415826,18.4120610694617
0.0249121194924203,18.4140749437937
0.0242690279596547,18.4156363764789
0.0232531671657828,18.4171978091641
0.0220901079658062,18.4186171853869
0.0207854967121583,18.4200244332129
0.0193471882350726,18.4214752714298
0.0177844533342725,18.423007399914
0.0168039030218655,18.4239671291312
0.0158444570202937,18.4249268583483
0.0146103147180101,18.4262259581731
0.0121816300737975,18.4290543677421
0.0100573449474534,18.4319292497442
0.00838083107755297,18.4345774747895
0.00702413237704447,18.4370660056228
0.00584083312900428,18.4395858907991
0.00480135210446085,18.4421693638355
0.0038860725258628,18.4448400314799
0.00307935093891723,18.4476211391128
0.00240421301663658,18.450376251298
0.0018619060300313,18.4529769370598
0.00141616766683691,18.4554616331704
0.00104030272907189,18.4578752952014
0.00071574183279154,18.4602595757241
0.000429447402583898,18.4626526356239
0.00017013438817575,18.4651097075221
-7.89838210541572e-05,18.4677857575211
-0.000288408589992441,18.4703207012351
-0.000438538041284007,18.472322518457
-0.000577273634812774,18.4743243356789
-0.000692267440449205,18.4761024278847
-0.000794502655018268,18.4777783816436
-0.000892047583998665,18.4794636488698
-0.000991260559458219,18.4812655992974
-0.00110127490062496,18.4833676387422
-0.00125209755417629,18.4864238482648
-0.00142265380288076,18.4901125076594
-0.00155796479852,18.4932055223278
-0.00168576907646522,18.4962568728024
-0.00182601527027365,18.4997532888194
-0.00199399472214901,18.5041816479312
-0.00218956119802613,18.5099093182629
-0.00232061783898783,18.514809968717
-0.00238624638428595,18.5192298031212
-0.00237447196877472,18.5231836027025
-0.00227724890095018,18.5267407805199
-0.00208794881282432,18.5299837048382
-0.00179988313454131,18.532983007644
-0.00140619749747778,18.5357914970281
-0.000897512449066299,18.5384607801736
-0.000254675805637823,18.5410617958868
0.000569418431667921,18.5437176051191
0.00170320811479061,18.5466870479262
0.00315885251503204,18.5498609161844
0.00496882951610423,18.5532418037746
0.00628213042010106,18.5554241857358
0.00773084378436425,18.5576065676971
0.00915779343555334,18.5595368391703
0.0106248819456023,18.5613076948576
0.012167388128433,18.5629567219573
0.0138466312393936,18.5645349351646
0.0156852297031331,18.5660438887005
0.0177259255258076,18.5674990184479
0.0199909469071392,18.5688969860307
0.0225186969846417,18.5702441821688
0.0253402162501538,18.5715407183726
0.028492170649748,18.5727885713316
0.0320194185115481,18.5739913318481
0.0359701655694793,18.5751516433911
0.0403978277529128,18.5762718838026
0.0453707234902178,18.5773561173247
0.0509663553731392,18.5784077891751
0.0572766707677058,18.5794304968095
0.0644121438586899,18.5804280698705
0.0725064243701068,18.5814045594954
0.0817254462313923,18.582364567851
0.0922778709502679,18.5833133243605
0.104431309383327,18.5842569403941
0.118539606677851,18.5852029617927
0.135088613538765,18.5861612413644
0.154782378816748,18.5871456617944
0.177729281685794,18.5881378178444
0.20437586289538,18.5891399141304
0.235498111046983,18.5901654588189
0.272203026319522,18.5912353463062
0.315694056845961,18.5923731362773
0.349955569974231,18.593207826528
0.385323112791511,18.5940425167787
0.416820143325969,18.5947888108085
0.444409331531132,18.5954721275511
0.468419211582198,18.596123066944
0.488756304224895,18.5967648525448
0.504928525543365,18.5974195163104
0.515898608592289,18.5981143424481
0.519516442071738,18.5988943869824
0.512710673278548,18.5997107961123
0.494122861388073,18.6005525253442
0.462270535211386,18.6014337469234
0.415364433757466,18.6023643468977
0.368863870672342,18.6031048418805
0.315132314008278,18.6038453368634
0.267416980859314,18.6044452801266
0.227360042483311,18.6049278129237
0.192651454684162,18.6053416040061
0.161790722326771,18.6057140720008
0.133937875451857,18.6060606394422
0.108559559773671,18.606391477962
0.0852587013238597,18.6067146666639
0.063675855498164,18.607038285698
0.0433706364024041,18.6073734531046
0.0234464794733947,18.6077446504776
0.0083579904133893,18.6080667133103
-0.000134530692569154,18.6082698499009
-0.00786640942813364,18.6084729864915
-0.0143072370820584,18.6086589668244
-0.0202518413465853,18.6088477113273
-0.0262098075638333,18.609057845986
-0.0319429762906536,18.6092858732494
-0.0373006760941328,18.6095297112073
-0.0421998327895778,18.6097886619115
-0.0465976815342947,18.6100629461776
-0.0504753528529651,18.6103534468674
-0.054062925833614,18.6106871813861
-0.056809882149501,18.6110139291754
-0.0590427701505407,18.6113622776356
-0.0607786028713305,18.6117356308403
-0.062031665696876,18.6121377372234
-0.062815371910048,18.6125732260518
-0.0631407716562861,18.613047878431
-0.0630148551587663,18.6135690284435
-0.0624380214640988,18.6141464571173
-0.0613985601160887,18.6147942928239
-0.0598689099055735,18.615531266184
-0.0577933530692562,18.6163860450092
-0.0550547869511637,18.6174091469243
-0.0513413701679809,18.6187205352971
-0.0473205383538644,18.620108655706
-0.0434424640919809,18.6214516009355
-0.039751576772926,18.6227536153226
-0.0362692871217963,18.6240168596515
-0.0330062454758775,18.6252421270365
-0.029966621642098,18.6264295172898
-0.02715010067417,18.6275787968768
-0.0245530096427091,18.628689588083
-0.0221690854566615,18.6297614657073
-0.0199900797625728,18.6307940013591
-0.0180062767135224,18.6317867763382
-0.0162069503236097,18.6327393744378
-0.0145807694034793,18.6336513608809
-0.0130273396414763,18.6345767866025
-0.0115347767507117,18.6355260607579
-0.0101072707729592,18.6365010006061
-0.00874871375803238,18.6375038167483
-0.00746278570163657,18.6385371110566
-0.00625290344152679,18.6396039753648
-0.00512216824800498,18.6407081216067
-0.0040733111719154,18.6418540581936
-0.00310863597822442,18.6430473349299
-0.00222995901624352,18.6442948929604
-0.00143854458191378,18.6456055821077
-0.000735032892128878,18.6469909579421
-0.000119355026867915,18.6484665745078
0.000409376661604573,18.6500542232683
0.00083303498976921,18.6516964065259
0.00116249251188954,18.6533914990872
0.00141326761444397,18.6551580346622
0.0015996003670619,18.6570192955519
0.00173496407215203,18.6590069419836
0.00183253797058239,18.6611669906665
0.00190596334871382,18.6635728298612
0.00197097528237938,18.6663596891379
0.00205092924047682,18.6698558905805
0.00215448024797247,18.6736300977245
0.00228446702300463,18.6774713736201
0.00243389602085619,18.6812498063725
0.00259903739488901,18.6850287498253
0.00277663077773126,18.6888552509181
0.00296467425130681,18.6927666242384
0.00316257296772129,18.6967954937085
0.00337101069059363,18.7009726894744
0.00359173899713626,18.7053290714403
0.00382738134603521,18.7098969380343
0.00408133657796499,18.7147114238518
0.00435787020937193,18.719811916035
0.00466248909099131,18.7252433910206
0.00498681426780698,18.7307891216991
0.0053187815701592,18.7361917813553
0.00566446761096345,18.7415113781259
0.00602536730787693,18.7467249804358
0.00640571663281203,18.7518497052825
0.00680945753719817,18.756893568166
0.00724095658284681,18.7618655081397
0.00770476238447849,18.7667710655487
0.0082057636381413,18.7716134936737
0.00874927729972024,18.7763938739968
0.00934117083224227,18.7811115976269
0.00998796956345501,18.7857647366184
0.0106994427745801,18.790365777655
0.0115002069378643,18.7949971484585
0.0124051234055953,18.7996500067242
0.0134373376023495,18.8043414360856
0.0146297624565614,18.8091060339481
0.0160378602161319,18.8140277553844
0.017782625950113,18.8193368171157
0.0202528788221573,18.825842133241
0.0218958401244433,18.8297664297334
0.0235998527223122,18.8336907262259
0.0250868501902476,18.8371537191775
0.0263418998600432,18.8402764716359
0.0273896563612713,18.8432495295103
0.0281948300441786,18.8461022323869
0.0287325856797117,18.8488542074698
0.0289978889178447,18.8516255831336
0.0289525287873433,18.8545818342534
0.0284547090575454,18.8581276976849
0.0276589824618446,18.8612273293366
0.0265832199936899,18.8643269609882
0.0255034870842183,18.8669457078201
0.0244339261779898,18.8693004546748
0.0233634294479068,18.8715248166809
0.0222916676078742,18.8736779223814
0.0212217154748239,18.8757918126364
0.0201572861594262,18.8778871122431
0.0191020326973698,18.8799785960683
0.0180593666971238,18.8820776621818
0.0170324160213514,18.884193625715
0.0160240223051005,18.886334478427
0.0150367533995469,18.8885073675467
0.0140729155342104,18.8907189290091
0.01313456604808,18.8929755315995
0.012223528719763,18.8952834606958
0.0113413980067398,18.8976490977187
0.0104895545316271,18.900079056465
0.00966917445764243,18.9025803288997
0.00887259092371667,18.9051898440512
0.00808703232841857,18.9079732192745
0.00731626961383895,18.9109505867899
0.00656412249530169,18.9141459408159
0.00583466005668056,18.9175870598907
0.00513216936207503,18.9213062452381
0.00446110754233193,18.9253412023587
0.00382600708835379,18.9297362701583
0.00323131108178613,18.9345443835805
0.00268110891704214,18.9398307080815
0.00217881151173453,18.9456793116864
0.00172691784211305,18.9522039991746
0.00134454715304844,18.959199150926
0.00103642489037017,18.9667523333288
0.000806519843350678,18.9746089759848
0.000627506405868755,18.9828870387316
0.000480635769704069,18.9921483296353
0.000368761176340999,19.0021483296353
0.000292098576028694,19.0121483296353
0.000240430796723166,19.0221483296353
0.000206308299720876,19.0321483296353
0.000184419087306,19.0421483296353
0.000171088216405774,19.0521483296353
0.000163825583292019,19.0621483296353
0.000160959124381855,19.0721483296353
0.000161371349134587,19.0821483296353
0.000164324460676297,19.0921483296353
0.00016934771169571,19.1021483296353
0.000176164498404599,19.1121483296353
0.000184644755753479,19.1221483296353
0.000194774605344215,19.1321483296353
0.000206638930856347,19.1421483296353
0.000220414550206311,19.1521483296353
0.000236372933025522,19.1621483296353
0.000254892577231147,19.1721483296353
0.000276482518915985,19.1821483296353
0.000301820265496355,19.1921483296353
0.000331810121034834,19.2021483296353
0.000367672165982069,19.2121483296353
0.000411079482460068,19.2221483296353
0.000464148973073979,19.2321096055768
0.000524922029193159,19.2413265728001
0.000594234531290021,19.2498293402942
0.000673224411740711,19.2576729109184
0.000763217065315499,19.2649093057741
0.000865723208577531,19.2715867952877
0.000982454590139962,19.2777501665035
0.00111534868021881,19.2834409925968
0.00126659859199576,19.2886978709772
0.0014386878104506,19.2935566389275
0.0016344296734716,19.2980505805414
0.00185701520343636,19.3022106265954
0.00211006955286465,19.3060655451929
0.00239772138002548,19.3096421259419
0.00272468950529874,19.3129653679666
0.00309639289363356,19.3160586769225
0.00351909509847565,19.3189440740235
0.00400009748456628,19.321642431017
0.00454800806181461,19.3241737526034
0.0051731301155119,19.3265575370568
0.0058830121164355,19.3287987782842
0.00666805889391983,19.3308639730483
0.00753853910516197,19.3327884590763
0.008510192121663,19.3346081905912
0.00960800247997007,19.3363624171731
0.0108775828087747,19.3381041050112
0.0124620301148267,19.3399750484048
0.0148669174450124,19.3424015015182
0.016420879807678,19.3438078639858
0.0180511830474371,19.3452142264535
0.0195347167076604,19.3464799195549
0.0208608707823529,19.347644953808
0.0220476790389855,19.3487658988051
0.0230903053909912,19.3498833409382
0.0239670944514408,19.3510373488573
0.024635839631668,19.3522842315873
0.0250079129021539,19.3537409370334
0.0247389032260151,19.3559244722688
0.0240275526088574,19.3574453645167
0.0229829142056434,19.3589662567646
0.0217945815958451,19.3603786410157
0.0204661968374181,19.3617922127831
0.0190065888470326,19.3632566033046
0.0174245458959314,19.3648088540519
0.016386488302517,19.3658302182611
0.0153852978658859,19.3668515824702
0.0130088016124758,19.3694965379726
0.0107070687638916,19.3724539585049
0.00889399861308093,19.3751771460027
0.00744652187424141,19.3777057957487
0.0062103180365502,19.3802123175373
0.00512628727920423,19.3827728751815
0.00417230464794987,19.3854130824372
0.00333163625454207,19.3881560943062
0.00261448257035421,19.3909247589285
0.00204012979936697,19.3935341516234
0.00157032883525906,19.396018299765
0.00117629278267681,19.3984208625093
0.000837496951076675,19.4007858093126
0.0005390577124853,19.4031582428581
0.000268466694000219,19.4056001083628
8.53806870511425e-06,19.4082653895376
-0.000210313627950933,19.4108020558105
-0.000366507863735206,19.412802922276
-0.000510412405708596,19.4148037887414
-0.000629275725284604,19.416580158395
-0.00073459435483638,19.4182535170001
-0.000834750443364471,19.4199352862777
-0.0009362553068073,19.4217322699508
-0.00104830806203981,19.4238258927626
-0.00120056685946643,19.4268552191903
-0.00137393409996331,19.4305569995991
-0.00151056038622475,19.4336573414059
-0.00163865038379117,19.4367062438044
-0.00177855125752153,19.4401963842304
-0.00194555607122764,19.4446155326881
-0.00214068557535648,19.4503560965389
-0.00227223466160137,19.4552676840274
-0.00234010060401859,19.4597034647231
-0.00233233378144599,19.4636733810177
-0.00224074718418551,19.4672418056089
-0.00205878641087535,19.4704870651032
-0.00177983053749822,19.4734814617326
-0.00139643668063224,19.4762837845232
-0.000898294596011361,19.478949407562
-0.000265701436076911,19.4815495543407
0.000548619439546932,19.4842070347277
0.0016745202502571,19.48718493172
0.00311905980524071,19.4903600463116
0.00492030918089284,19.4937492106206
0.00622675044239753,19.4959355388046
0.00766796146335939,19.4981218669885
0.00908438606351101,19.5000513338633
0.0105437692014561,19.5018252026745
0.0120762914457888,19.5034748080768
0.0137462823641635,19.505054935986
0.0155747926614403,19.5065655166436
0.0176049020194127,19.5080224358092
0.0198583753434345,19.5094220472235
0.0223736233750471,19.5107708684833
0.0251808163386274,19.5120686693641
0.0283173387858591,19.5133178700902
0.0318272565397573,19.5145218214305
0.0357583877523727,19.5156831520823
0.0401636047288699,19.5168042058577
0.0451108607062313,19.5178890918804
0.0506768831400449,19.5189412205021
0.0569527324022291,19.5199641713258
0.0640477274184048,19.5209617493543
0.0720938033987752,19.5219379509012
0.0812550298447017,19.5228973620328
0.0917368817822651,19.5238451214664
0.103802397784809,19.5247872264749
0.11779826826729,19.5257310441828
0.134198336255394,19.526686126793
0.153684862504333,19.5276658204024
0.176453900070897,19.5286557608311
0.20288185029857,19.5296545918985
0.233725669492526,19.5306752915416
0.270054057306775,19.5317376737583
0.313449349970725,19.5328743984689
0.348104383934552,19.533717147143
0.383995659801077,19.534559895817
0.415935082596222,19.5353103886793
0.443893922634931,19.5359948264786
0.468256500186168,19.5366450312749
0.488964744143068,19.537284655394
0.505559439011203,19.5379357048894
0.51705203427168,19.5386249921527
0.521397636404694,19.5393961166351
0.515471026139235,19.540209866829
0.497828110686952,19.5410481479611
0.467006934237784,19.5419255802393
0.421215840941296,19.5428523914706
0.374134414528139,19.5436116228947
0.31934178287048,19.5443708543188
0.280776181602052,19.5448592944723
0.240452520150582,19.5453477346257
0.204241313035212,19.5457782942402
0.172129599793986,19.5461621967834
0.143265303636794,19.546515918747
0.11704441685254,19.5468508173918
0.093034105411409,19.5471754330647
0.0708702516547551,19.5474976114855
0.0501572573138446,19.547826926996
0.0302375895023046,19.5481809357635
0.00869999294422216,19.5486262926243
-0.000144875512668976,19.5488368865109
-0.00816881679403609,19.5490474803974
-0.0145897794172573,19.5492330667345
-0.0205487728405262,19.54942252059
-0.026508898820169,19.5496331453234
-0.0322360924311827,19.5498615184581
-0.0375830536155682,19.5501056326277
-0.0424686951119774,19.5503648366194
-0.0468514343116583,19.5506393822257
-0.0507132406399141,19.5509301753266
-0.0542811622316416,19.5512640501489
-0.0570123384969558,19.5515911967256
-0.0592295349626016,19.5519400362237
-0.0609497976972882,19.552313992755
-0.0621874390433389,19.5527168444309
-0.0629558397064164,19.5531532591834
-0.063265951601018,19.5536290702481
-0.0631245845090859,19.5541516846637
-0.0625317695469298,19.5547310388649
-0.0614752652250553,19.5553813984927
-0.0599266372347496,19.556121793036
-0.0578284408328456,19.5569814800059
-0.0550592760847177,19.5580124559006
-0.0512899109204448,19.5593407365967
-0.0472690375081412,19.5607273081943
-0.0433931896796394,19.5620690502562
-0.0397055521791966,19.5633700646695
-0.0362270262981118,19.5646324189921
-0.0329680013763497,19.5658568556227
-0.0299324933584064,19.5670434465018
-0.0271200862998243,19.5681919425969
-0.0245270361735382,19.5693019575173
-0.0221470282072287,19.5703730611618
-0.0199717765679384,19.5714048222739
-0.0179915391892465,19.5723968202805
-0.016195573214717,19.573348637441
-0.0145725384548711,19.5742598373477
-0.0130201643981753,19.5751856830138
-0.0115287531993589,19.576135400049
-0.0101024739633777,19.5771108211544
-0.00874521524659243,19.5781141631558
-0.00746065260365876,19.5791480358268
-0.00625219757551856,19.5802155409818
-0.00512294523500655,19.5813204033134
-0.00407561949651477,19.5824671477906
-0.00311251600942017,19.5836613461144
-0.00223544197941953,19.5849099690647
-0.00144565145717172,19.5862219077472
-0.000743773185668645,19.5876087773615
-0.000129725306183038,19.5890862221745
0.000397394707513212,19.5906761787986
0.000819089998180856,19.5923191503195
0.00114689452423502,19.5940153881562
0.00139628363067436,19.5957834476882
0.00158147740423141,19.5976467340298
0.00171593553275045,19.5996371073592
0.00181283270015438,19.6018009422654
0.00188582174260565,19.6042123533792
0.00195069104735369,19.6070083908726
0.00203103986471634,19.6105243819265
0.00213484521971127,19.6143018145058
0.00226514814301317,19.6181479520604
0.00241463096938847,19.6219277762612
0.00257953811525908,19.6257057585055
0.00275663620301545,19.6295295460856
0.0029439612670878,19.6334367453944
0.00314094824768426,19.6374601143806
0.00334829501735992,19.6416305240118
0.00356774941073949,19.6459788078888
0.00380191277194506,19.6505371828312
0.00405414116999573,19.6553406419937
0.00432863144069823,19.6604283822005
0.00463078404069974,19.6658451354672
0.00495421357833543,19.6714088679618
0.00528452141827703,19.6768191253625
0.00562853505447308,19.6821498241228
0.00598739615042043,19.6873724544104
0.00636540075156842,19.692505648571
0.00676642883236133,19.6975571003167
0.00719482321181563,19.7025360987111
0.00765508813849703,19.7074483466643
0.0081520627944249,19.7122972893603
0.00869100424361973,19.7170841652733
0.00927771184619653,19.721808506913
0.00991863346237165,19.7264684910126
0.0106217421473124,19.7310661987298
0.0114128917036265,19.7356959170896
0.0123061638921347,19.7403458517369
0.0133240437894371,19.7450322373083
0.0144980201105142,19.7497866616356
0.015880180704727,19.7546856160578
0.017580212173846,19.759934031961
0.0199966897063958,19.7663841413309
0.0216745124687943,19.7704259346593
0.0234257587307269,19.7744677279878
0.0249431371748646,19.7779884489714
0.0262207142573384,19.7811367634573
0.0272899838870726,19.7841185958056
0.0281234784929829,19.7869885318774
0.0286888603299649,19.7897457474079
0.0289834305452378,19.7925088082265
0.0289738385906125,19.7954346550966
0.0285386551750229,19.7988773166516
0.0277571024350727,19.8020754923725
0.0266707016996616,19.8052736680934
0.0255866030469635,19.8079299730633
0.0245165968991874,19.8102995299193
0.0234462500578132,19.8125314072432
0.0223744910714121,19.8146887151146
0.0213042621125107,19.8168048436442
0.0202392629796739,19.8189010422259
0.0191831607407478,19.8209924297617
0.018139388158696,19.8230906113309
0.0171110952093302,19.8252050335504
0.0161011451798537,19.8273437731595
0.0151121267179606,19.829514031585
0.0141463653300906,19.8317224785907
0.0132059374417411,19.8339754989497
0.0122926840975681,19.8362793833925
0.0114082164492798,19.8386405072378
0.0105539324574476,19.8410654641729
0.00973102238962026,19.8435612231207
0.00893373747092484,19.8461580682629
0.00814718618637976,19.8489273644395
0.00737514502484214,19.8518889417208
0.00662141383344836,19.8550665281768
0.00589004252363731,19.8584875897709
0.00518530316054251,19.8621840485418
0.00451164185730914,19.8661931592888
0.00387358964732869,19.8705586980183
0.00327560483880583,19.8753328393322
0.00272181468355971,19.8805796306512
0.00221569462876137,19.8863813505557
0.0017598148327055,19.8928490673245
0.00137220369325778,19.8998040070224
0.0010583651894371,19.9073091027035
0.000809668620091903,19.9156638517553
0.000635624342699962,19.923654518403
0.000485825251051872,19.9329773636217
0.000372589858973781,19.9429773636217
0.00029495738073106,19.9529773636217
0.000242614212495362,19.9629773636217
0.000208033694095915,19.9729773636217
0.000185840004839941,19.9829773636217
0.000174028993354754,19.9914886818108
0.000166785476498729,20
