ecg,time
0.0147497955560046,15.0004757334509
0.0120628321799315,15.0035527823805
0.00991531190878331,15.006445473905
0.00824691137607792,15.0090795115239
0.00690103110275799,15.0115528716456
0.00572911674226177,15.0140583977395
0.00470147870774312,15.0166278874174
0.00379846738802448,15.0192846385549
0.00300446135119617,15.0220516575794
0.00237707047100829,15.0246350549206
0.00187170487627313,15.0270647703288
0.00145410122939516,15.029385417128
0.00110105311777512,15.0316349593902
0.000798571320986903,15.033830043429
0.000539334549925842,15.0359578292268
0.000318034809314126,15.0379955635298
0.000128008322091749,15.0399411477761
-3.79430465280218e-05,15.0418146516504
-0.000186416082381673,15.0436501388088
-0.000323665523121578,15.0454989644387
-0.000457576063513553,15.0474606817335
-0.000609240459234405,15.0498918410785
-0.000699121731850906,15.0514466811193
-0.000784208935891622,15.0530015211601
-0.000857551311427902,15.054408690126
-0.000923360624220602,15.0557251871928
-0.000986599227628107,15.0570386984521
-0.00105119056189314,15.0584292886063
-0.00112249916953913,15.0600213606419
-0.00121537212680274,15.0621820526088
-0.0013532431934194,15.0655615003321
-0.00146966759460255,15.0685621962312
-0.00157394600997665,15.0713533710265
-0.00168926054303053,15.0745434537971
-0.00184481859062466,15.0789969663237
-0.00205172929934242,15.0851520661227
-0.00222229833839013,15.0906188922926
-0.00234807716812942,15.0954122739421
-0.00242098273439711,15.0996144127124
-0.00243442124876924,15.1033550957248
-0.00238088088332463,15.1067530475252
-0.00225265743257899,15.1098491859376
-0.00204529773106044,15.1126542482598
-0.00175487286082084,15.1152110655034
-0.0013725198375376,15.1175907664547
-0.000877775594431531,15.1198865446802
-0.000215103032890655,15.1222631665171
0.000696076192123523,15.1248693452743
0.00151709801740493,15.1268771907258
0.00241537963622886,15.1288850361774
0.00331787135281317,15.1308005591233
0.00435947216736997,15.1329476355286
0.00544831004717663,15.1351310391094
0.00658755871705173,15.1373144426901
0.00760644302053049,15.1391322110671
0.00866512496722681,15.1408534795372
0.00979913737459173,15.1425002321896
0.0110500987593981,15.1440979145952
0.0124626668655266,15.1456660792949
0.0140493470400034,15.1471851050619
0.0158452880304783,15.1486613426889
0.0178730684305441,15.150089064297
0.0201456335215572,15.1514589064844
0.0226967725673875,15.152776050918
0.0255566873663411,15.1540416959397
0.0287593779999673,15.1552577243962
0.0323445809940332,15.1564267937122
0.0363559727181215,15.1575512314909
0.0408504560668785,15.158635185288
0.0458916492147094,15.159681994095
0.051554033150265,15.1606949948483
0.0579253560189433,15.1616775466111
0.0651094414438678,15.1626330290636
0.073230769296394,15.1635649711016
0.0824391911163218,15.1644770255437
0.0929172754550634,15.165373081281
0.104890186026344,15.1662573727209
0.118639468231687,15.1671346213637
0.134523445388541,15.16801026707
0.153007570444912,15.1688907904521
0.174715061550199,15.1697843493454
0.200483841460825,15.1707008775104
0.230257861547376,15.1716184239822
0.264762080800581,15.172545408973
0.304982344556551,15.173495237175
0.35251251562717,15.1744946934935
0.390349443108619,15.1752295098507
0.429679168975369,15.1759643262079
0.464565255043421,15.1766151916451
0.495127457477177,15.1772086980986
0.521997399362748,15.1777773192672
0.545184772827411,15.1783450339737
0.564197491158772,15.1789363317529
0.577837950790029,15.1795874663728
0.583055961098277,15.1803316356164
0.576609997200435,15.1810969292394
0.557307754046152,15.1819052350431
0.523646730277455,15.1827668607533
0.477047386950051,15.1836370186683
0.41522365876056,15.1845544647022
0.364581626558513,15.1852004371793
0.309015984472312,15.1858464096564
0.260679036057026,15.1863781144813
0.220092256708313,15.1868160806365
0.184879765018229,15.1871984828141
0.153575707231305,15.1875472935032
0.125337100905131,15.1878755226356
0.0996054141394002,15.1881923704621
0.0759369412848081,15.1885059561366
0.0538752374209549,15.1888258995893
0.0326961180910499,15.1891695232747
0.00980897404467396,15.1896021465391
0.000433734296097861,15.1898064677699
-0.00806425385718426,15.1900107890008
-0.0146848201943832,15.1901860167229
-0.020818421489472,15.1903642210463
-0.0269990141079775,15.1905633570187
-0.0329709075938507,15.1907799679942
-0.0385707911644961,15.1910119667627
-0.0437073972108038,15.1912586101644
-0.0483329085126779,15.1915200549521
-0.0524258647619018,15.1917971087244
-0.0559810425463674,15.1920911108064
-0.0590032425932929,15.1924038938372
-0.0615011613523921,15.192737801616
-0.0635906018148064,15.1931206602887
-0.0650138258324986,15.1935048119619
-0.0659534771831435,15.1939206538552
-0.0664234345156369,15.1943740993154
-0.0664321096528258,15.1948722681676
-0.0659816193976575,15.1954244190628
-0.0650621302571724,15.1960443122152
-0.0636471371105136,15.1967502867748
-0.0616816666979593,15.1975702662141
-0.059048998925621,15.1985533716984
-0.0554390211985317,15.1998155036066
-0.0512747924121083,15.2012281981881
-0.0472301379956036,15.2025966506557
-0.0433586853155192,15.2039257414959
-0.0396876393275733,15.205217530916
-0.0362315979957409,15.2064726674802
-0.0329978837159612,15.2076910932446
-0.0299888635402632,15.2088724188411
-0.0272031610526955,15.2100161216489
-0.0246364365695739,15.2111216485224
-0.0222819902243705,15.2121884648807
-0.020131283493576,15.2132160718557
-0.0181744114627833,15.2142040031327
-0.0164005332260877,15.2151518079303
-0.0147982592750026,15.2160590236708
-0.013256918139355,15.2169866073756
-0.0117770970415702,15.2179381866579
-0.0103628701769729,15.2189156634322
-0.00901811623159634,15.219921280882
-0.0077465001502835,15.220957683347
-0.00655142287853037,15.2220280172254
-0.0054359692877656,15.2231360650287
-0.00440285421173366,15.224286427528
-0.0034543665210739,15.2254847774098
-0.00259231076496109,15.2267382229147
-0.00181794523907695,15.2280558475399
-0.00113191416181328,15.2294495455708
-0.000534169393653232,15.2309353853903
-2.38724082934395e-05,15.2325359893051
0.000379354112718294,15.2341824273857
0.000690235221146317,15.2358838002078
0.000923892233819414,15.2376587635608
0.00109425741484772,15.2395312942073
0.00121448263233608,15.2415341907226
0.00129738185738357,15.243715519991
0.00135613059954168,15.2461528651517
0.00140578825851206,15.2489921115984
0.00146870359827085,15.2526038602085
0.001551880415834,15.2563973411342
0.00167085372063246,15.2606379614829
0.00183637708785897,15.2655761842433
0.00201042067602907,15.2702987851275
0.00217733784022925,15.274670090927
0.00234135091258654,15.2789357867521
0.00251091738983819,15.2833618010247
0.00270419593276093,15.2884299849483
0.00289149655634721,15.2933034597302
0.00308566169815546,15.2982378387439
0.00326297117308799,15.302607825018
0.00342890846159103,15.3065741364738
0.00359307669094762,15.3103760436468
0.00376036617156,15.3141219975708
0.00393413221715772,15.3178753233116
0.00411724432717691,15.3216809437539
0.00431249334239131,15.3255749690878
0.0045228103936092,15.3295891387164
0.00475144788992208,15.3337537683355
0.00500212991355735,15.3380993626443
0.0052792437005522,15.3426579138424
0.00558814347769461,15.3474642413678
0.00593566450464313,15.3525573587389
0.0063143200978858,15.357758059728
0.00671176185915786,15.3628530137757
0.00713438088441401,15.3678905986593
0.00758377023941534,15.3728453723039
0.0080648460586481,15.3777249538019
0.00858288340970419,15.3825323578908
0.00914408663621595,15.3872720619417
0.00975523724752265,15.3919460163666
0.010423766533049,15.3965542206435
0.0111703652547199,15.401168879464
0.0120122169157283,15.4058066120514
0.012968719455722,15.410474954394
0.0140669842768172,15.415196893641
0.0153486228113803,15.4200257292541
0.0168914351205765,15.4250954100406
0.0189064152287159,15.4308393098716
0.0207948031461632,15.4356196410699
0.0224006486113664,15.4394157477006
0.0240447494310011,15.4432118543313
0.0254593864609283,15.4465630845085
0.0266535537004816,15.4496349404691
0.0276410256043873,15.4525966868365
0.028368925444893,15.4554154043656
0.0288302395247124,15.4581643483785
0.0290130971284304,15.46097058549
0.0288634115274716,15.4640309895394
0.0281538222711846,15.467968670066
0.0273157484035325,15.4708299824695
0.0262576186781781,15.473691294873
0.0251854127703797,15.4762087905654
0.0241156306230995,15.4785206905785
0.0230441036984,15.4807238396869
0.0219722393218527,15.4828663607637
0.0209034388124522,15.4849761482701
0.0198414335829647,15.4870718068952
0.0187898231849312,15.4891669586984
0.0177519481741614,15.491272280891
0.0167308655033201,15.493396603305
0.0157293497245156,15.495547572011
0.0147499052971357,15.4977320756262
0.0137947807684259,15.499956539976
0.0128659778667232,15.5022271565834
0.0119652651571846,15.5045500533543
0.0110941874009516,15.5069314468951
0.010254072960163,15.5093777866306
0.00944604687412352,15.5118958792231
0.00865364446655198,15.5145536301182
0.00787346496037997,15.5173902647042
0.0071092354528883,15.5204270667926
0.00636484705214791,15.5236889527095
0.00564443194496593,15.5272047927146
0.00495232555731976,15.5310081923893
0.00429300622736476,15.5351384627748
0.00367098666837504,15.5396419993412
0.00309061303587809,15.5445747203398
0.00255579289641981,15.550006392409
0.00206966854983955,15.5560286787545
0.00163939701145426,15.5626815411598
0.00127701069197054,15.5698258988018
0.0010328867880347,15.5759184625663
0.000847050167860811,15.5820110263308
0.000653649478755793,15.5905651592263
0.000504226453100949,15.5998132338316
0.000392296514425842,15.6096928022769
0.00031522247319653,15.6196928022769
0.000264379890108965,15.6296928022769
0.000232341280851178,15.6396928022769
0.000213729524325832,15.6496928022769
0.000204766404086423,15.6596928022769
0.000202892783143844,15.6696928022769
0.000206431899095322,15.6796928022769
0.000214325618308617,15.6896928022769
0.0002259518617582,15.6996928022769
0.00024100923755864,15.7096928022769
0.000259449400616506,15.7196928022769
0.000281442329173816,15.7296928022769
0.000307366553264186,15.7396928022769
0.000337821946176578,15.7496928022769
0.000373666969095258,15.7596928022769
0.000416086512517967,15.7696928022769
0.000466702294932901,15.7796928022769
0.00052774719396524,15.7896928022769
0.00060234129903581,15.7996928022769
0.000690347771691207,15.8092390958111
0.000790779961244979,15.818030256591
0.000905101453352252,15.8261177079666
0.00103516450467176,15.8335615772147
0.0011831119862684,15.8404176393951
0.00135138966852202,15.8467373461296
0.00154278600591757,15.8525683196389
0.00176048574045213,15.85795476556
0.00200814045390267,15.8629377707328
0.00228994807518014,15.8675556429191
0.00261076982257657,15.8718442976258
0.00297627447869011,15.8758376862041
0.00339314793650475,15.8795682096265
0.0038693816153426,15.8830672775669
0.0044147263252818,15.8863661427155
0.00504143047631633,15.8894971619017
0.00576551503096906,15.8924958912306
0.00659053347214331,15.8953459166904
0.00754546077924899,15.8981208368406
0.0086973945537654,15.9009584935768
0.00997037146191245,15.9036658930386
0.0113426764864025,15.90627321321
0.0125471608895313,15.9084217175325
0.0135460590121257,15.9101842806856
0.014418224602478,15.9117753199368
0.0151833659542426,15.9132859219298
0.0158379735696904,15.9147687989696
0.0163666596336446,15.9162697567379
0.0167411085895731,15.9178444581551
0.0169081307561444,15.9195879932079
0.016732156240978,15.9217481701982
0.0162362180061182,15.9236558229165
0.0155154936694965,15.9254489591601
0.0146092201006707,15.9272194631598
0.0136189516894089,15.9288960766116
0.0125620481604694,15.9305444648633
0.0114477051584107,15.9322096694529
0.0103224658687218,15.9339246123233
0.00946521792853261,15.9353300681454
0.00808864594245541,15.9378203177672
0.00685279532405091,15.94037558198
0.00575859953609454,15.942983875826
0.00478934481516612,15.9456691173931
0.00393146488398876,15.9484553766793
0.00317404254682032,15.9513674227186
0.00250832387978987,15.954432239259
0.00192772538680312,15.9576805576076
0.00142836082989688,15.9611486463039
0.00101038350539076,15.9648806516572
0.000680991772523499,15.9689319041096
0.000479713218520904,15.9728510487091
0.000401225354758891,15.9764046832217
0.000427299137390407,15.9796681837012
0.000550963291432489,15.9827042300409
0.000774112357759069,15.9855869103151
0.00111031854206283,15.9884128925106
0.00159765777490494,15.9913425970117
0.00229008887687285,15.9944990365821
0.00322640275303758,15.9979090891204
0.00444052761590969,16.0015989938347
0.00532410053365289,16.0039430436052
0.00631732307260382,16.0062870933757
0.00731467522265119,16.0083522101887
0.00835670167966932,16.0102318461307
0.00948894596693795,16.011999099725
0.0107438916794075,16.0136842913294
0.0121539378145332,16.0153065542477
0.0137432129940456,16.0168691626008
0.0155334482050511,16.0183720672384
0.0175513727520383,16.0198186778645
0.0198198195297524,16.0212083812137
0.0223686288373227,16.0225442523573
0.0252280402114904,16.0238279573808
0.0284354731502315,16.0250628779702
0.0320324761195331,16.0262519369655
0.0360682192301692,16.0273985319369
0.0406000976194798,16.0285061166371
0.0456950914224053,16.029578113464
0.0514330434150454,16.0306181595399
0.0579088017259874,16.031629940407
0.0652363976833927,16.0326173069167
0.0735548784808148,16.0335844099585
0.0830360429643269,16.0345358114538
0.0938958609564303,16.0354766800082
0.106411921453338,16.0364131039821
0.120951546099264,16.037352611864
0.138018903048434,16.0383050200056
0.158343504550754,16.0392841221788
0.181968847535162,16.0402688029596
0.209401665974766,16.0412637218243
0.241437662729272,16.0422822265698
0.279215524774574,16.0433452287083
0.324043406991058,16.0444784835201
0.367083449373878,16.0454896988425
0.402436240096458,16.0462996027984
0.432805728533225,16.0470082316085
0.45935439296104,16.0476662524135
0.482317189386213,16.04830207824
0.501461669677844,16.0489380745441
0.516112452361066,16.0495979390723
0.52487652697263,16.0503151012342
0.5248508827438,16.0511179220354
0.513620125344329,16.051937321659
0.489936217631631,16.0527902917871
0.452113498942505,16.0536896691731
0.398220886709181,16.0546442711109
0.352543503896637,16.055314675515
0.30131692736781,16.055985079919
0.255828746764025,16.0565393470197
0.217171554412531,16.0569961605084
0.183399619147158,16.0573943305227
0.153243043459342,16.0577565352514
0.125958699124992,16.0580962159512
0.101053078019408,16.0584227159159
0.0781403195770259,16.0587439290947
0.0568443745536395,16.0590684610652
0.0366420097282875,16.059409736024
0.0161873038740142,16.0598044196429
0.00761781758319048,16.0599906114232
-0.000278209448946934,16.0601768032035
-0.00816802007678255,16.0603804250409
-0.0146989515778285,16.0605657073938
-0.0206537148598302,16.0607513345513
-0.0266475393199974,16.060958616231
-0.0324328237764076,16.0611839553146
-0.0378509211490206,16.0614251439911
-0.042813935532796,16.0616813977845
-0.0472762159127044,16.0619528743685
-0.0512175029586454,16.062240404961
-0.0546373026776126,16.0625465934348
-0.057483642382722,16.062867988505
-0.0598148002520802,16.0632107777289
-0.0616446176068141,16.0635779429021
-0.0629874396189087,16.0639730956412
-0.0638570132421089,16.064400698077
-0.0642649600826494,16.0648663144145
-0.0642191073292011,16.0653769870008
-0.0637213807958841,16.0659418255301
-0.0627620586493891,16.0665744887558
-0.0613164315988202,16.0672926296632
-0.0593341036402887,16.0681228773543
-0.0567107198472544,16.0691108904312
-0.0531835959494951,16.0703583568953
-0.0491140890813758,16.0717578863228
-0.0451750791642122,16.0731110146508
-0.0414169995648764,16.0744228624844
-0.0378644214463107,16.0756958998327
-0.0345298399585976,16.0769310634315
-0.0314186969473165,16.0781285127313
-0.0285316465309971,16.0792880309984
-0.0258657843199504,16.080409236374
-0.0234154563763138,16.0814916907499
-0.0211728836106197,16.0825349512892
-0.0191286921060467,16.0835385879155
-0.0172723820086287,16.0845021793049
-0.015592744667062,16.0854252942685
-0.0140167989617835,16.0863443838786
-0.0125002214556512,16.0872870115571
-0.011047503126502,16.0882547660332
-0.00966257384282121,16.0892497662856
-0.00834916519335041,16.0902744990447
-0.00711075736131061,16.0913319118322
-0.00595052672349741,16.0924255332437
-0.0048712909973301,16.09355963502
-0.00387545176819604,16.0947394555461
-0.00296493375690905,16.0959715165873
-0.00214111938092475,16.0972640869497
-0.0014047757503671,16.0986278883073
-0.000755968538550753,16.100077222816
-0.000193951532625883,16.1016318883135
0.000268705632284266,16.1032629148149
0.000632508980816655,16.1049417229828
0.000913713467414596,16.1066866329099
0.00112692794824812,16.1085192329661
0.00128592095802073,16.1104684627083
0.00140406761862092,16.1125755393486
0.00149503984037374,16.1149043201803
0.00157418458353547,16.1175670284204
0.00166259783133773,16.1208104988688
0.00177645921626898,16.124551673439
0.00191416906823345,16.1283414723332
0.0020743232136962,16.1321455665938
0.00225382818249703,16.1360071113452
0.00244892997000156,16.1399621723223
0.00265678093628397,16.1440429672143
0.0028759962459748,16.1482803411792
0.00310669617937968,16.1527055383504
0.00335034537715284,16.1573516191843
0.00360958221035469,16.1622548852284
0.00388817708738096,16.1674561693749
0.00419127234339832,16.1730022777764
0.00451219418626445,16.178703487887
0.0048356820384575,16.1842289409607
0.00516917129905956,16.1896624756393
0.0055139259325295,16.1949763457344
0.00587427321861423,16.2001935226165
0.00625387445291049,16.2053235858184
0.00665671835639203,16.2103775061607
0.00708682029817686,16.2153620328221
0.00754844932738033,16.2202817700834
0.00804622254304195,16.225139257072
0.00858522396078232,16.2299353322538
0.009171107206562,16.2346693434034
0.00981019683490546,16.2393394290695
0.0105096023087955,16.2439429963217
0.0112942825743403,16.2485722771952
0.0121790524837454,16.2532226259508
0.013185542210231,16.2579081026797
0.0143440591195354,16.2626581342102
0.0157038641050776,16.2675431817246
0.0173656227955217,16.2727484841982
0.0196661627298279,16.2789895803387
0.0213878317475183,16.2831906304525
0.0231976901969216,16.2873916805663
0.0247477886392465,16.2909867089445
0.0260476585330117,16.2941695545967
0.0271376665266583,16.2971670521035
0.027999481405107,16.300062230858
0.0285922109302789,16.3028318579129
0.0289154655891261,16.3055936475495
0.0289405222585357,16.3084975840193
0.0285628550401792,16.3118570513906
0.0277926214777183,16.3151760658427
0.026689072366323,16.3184950802949
0.0255994148590754,16.3211928981468
0.0245286869484456,16.3235802407317
0.0234583191311863,16.3258234094041
0.0223864701490927,16.327989324513
0.0213159600264338,16.3301125906088
0.0202504762940053,16.3322150294796
0.0191936972857156,16.3343120935201
0.0181490729702127,16.3364156077308
0.017119771450704,16.3385351783449
0.0161086738023696,16.3406790074124
0.0151183857517904,16.3428544020754
0.0141512486528919,16.3450681284579
0.0132093549897118,16.3473266614537
0.0122945598054163,16.3496363859535
0.0114084885226732,16.3520037743254
0.0105525543569316,16.3544355215679
0.0097279602308366,16.3569387160793
0.00893202044378014,16.3595334777658
0.00814673307625945,16.3623002541985
0.00737589905440341,16.365258635478
0.0066233006430374,16.3684322065604
0.00589296716801072,16.3718482564268
0.00518914961279863,16.3755384734886
0.00451626966731147,16.3795398205504
0.0038788344506982,16.3838956815917
0.00328127945983208,16.3886576967478
0.00272771648446162,16.3938891110456
0.00222161812421626,16.399670894169
0.00176556181978238,16.4061119226284
0.0013761646911796,16.4130606128973
0.00106301277409841,16.4205580128508
0.000839085920727026,16.4279680124222
0.000650639472800959,16.4363082929545
0.000499355715485956,16.4454144793542
0.000381423341818835,16.4554144793542
0.000300231135295922,16.4654144793542
0.000245071931550626,16.4754144793542
0.000208132223216177,16.4854144793542
0.000183835287756211,16.4954144793542
0.000168317962406168,16.5054144793542
0.000158956470210307,16.5154144793542
0.000153981238205841,16.5254144793542
0.000152199946263497,16.5354144793542
0.000152813369355588,16.5454144793542
0.000155296262377622,16.5554144793543
0.000159319546112608,16.5654144793543
0.000164698500919916,16.5754144793543
0.000171358345428183,16.5854144793543
0.000179312407231524,16.5954144793543
0.000188650057120883,16.6054144793543
0.000199532721046813,16.6154144793543
0.000212197192743475,16.6254144793543
0.000226966391960734,16.6354144793543
0.000244268782462209,16.6454144793543
0.000264669054507883,16.6554144793543
0.000288914697294941,16.6654144793543
0.00031800629230678,16.6754144793543
0.000353304768226941,16.6854144793543
0.000396698429564914,16.6954144793543
0.000447601980261065,16.7048666270003
0.000506056943411884,16.7136049146669
0.000573030180055939,16.7216754814805
0.00064968330562022,16.7291291548631
0.000737343510054936,16.7360135571804
0.00083751526937548,16.742373033478
0.000951900868053929,16.7482488628717
0.00108242542867391,16.7536794619475
0.0012312659520482,16.758700572985
0.0014008842070791,16.7633454433119
0.00159406544400267,16.7676449994895
0.00181396361487579,16.7716280165901
0.00206415602400325,16.775321282171
0.00234870919247243,16.7787497587017
0.00267226096771384,16.7819367490605
0.00304012411837188,16.7849040673442
0.00345842011020233,16.7876722199067
0.00393425702215635,16.7902606067173
0.00447597290548439,16.7926877571555
0.00509348103257433,16.7949716234705
0.00579670615681483,16.7971241859187
0.00657283673282878,16.7991021023945
0.00743055005536103,16.8009376192625
0.00838292766123614,16.8026627969704
0.00944959523906586,16.8043102880787
0.0106632895489181,16.8059190220317
0.0121154423520159,16.8075774088935
0.014063540001311,16.8094896619552
0.0158518379156419,16.811036701158
0.0177991418917232,16.8125837403607
0.0195592719035541,16.8139209373028
0.0210961212765021,16.8150877389016
0.0224739862768099,16.8161766334603
0.0237075092566161,16.8172377406483
0.0247866438617188,16.8183087259867
0.0256836535490807,16.8194315102372
0.026344714036503,16.8206729282401
0.0266428031024944,16.8222001020416
0.0263030573290813,16.8239617396725
0.0253407707380808,16.8257233773033
0.0242087010072565,16.8271579046932
0.0229301458637115,16.8285247961599
0.0214994714503776,16.8299187902792
0.0199244095090264,16.8313838466218
0.0182111191806032,16.8329585871226
0.0168706083908193,16.8342134819089
0.0155995306059959,16.8354683766953
0.0130101734204283,16.8382902690248
0.0106552858894441,16.8412778598766
0.00882505487408169,16.8440015798007
0.0073693753621479,16.8465259317707
0.00613128642777078,16.8490208207586
0.00504672872280979,16.8515688277877
0.00409309032669499,16.8541956355537
0.00325340669699404,16.8569242210297
0.0025137043221113,16.8597784246524
0.00189505620399315,16.8626181798195
0.00139308938186353,16.8653405772814
0.000969061440964369,16.8680348058555
0.000599952721396534,16.8707690427473
0.000282094340054218,16.8734994033795
1.97069224691431e-05,16.8760834797076
-0.000195107531814393,16.8784693065531
-0.000375475532018336,16.8806921520766
-0.000531636075669431,16.8827990994513
-0.000670596377218803,16.8848293678873
-0.000797697660541287,16.8868222769219
-0.000917974125519801,16.8888315913173
-0.00103843107751796,16.8909646011267
-0.00117932014131499,16.8936076751155
-0.00126532562051381,16.8952944495006
-0.00134887595319115,16.8969812238858
-0.00142274698075726,16.8985079301056
-0.00149063710012817,16.8999366476406
-0.00155743979914649,16.9013630542827
-0.00162739755866291,16.9028750755384
-0.00170688601235824,16.9046110304043
-0.00181488421237955,16.9069912204622
-0.00197474131128435,16.9105383172939
-0.00211170017799034,16.9135837223859
-0.00223965707852904,16.9164279084288
-0.00238540431597528,16.9196683661741
-0.0025779999914768,16.9239743677484
-0.00282266337954659,16.9296239224661
-0.00301914156625477,16.9347640467203
-0.0031453752030902,16.9392962145806
-0.00319351978724337,16.9434714252836
-0.00315043928054435,16.9473379287893
-0.00300819560606417,16.9508755411258
-0.00277048548449003,16.9540379028102
-0.00244106636344369,16.9568924573841
-0.00201944591289131,16.9595133353724
-0.00149657891808433,16.9619824851632
-0.000846881976881287,16.9644030375033
4.42746216968641e-06,16.9669697560952
0.00114529826378139,16.969824679558
0.00214670649123302,16.9720330604309
0.00322126872878966,16.9742414413037
0.00437533516446995,16.9765111682836
0.00558419521775907,16.9788067554484
0.0068522097823698,16.9811023426132
0.00804438824687161,16.9831138351929
0.00919358074314741,16.9848857350938
0.0104015475501976,16.9865608516087
0.0117323641087207,16.9881955680973
0.0132026384722896,16.9897759806592
0.0148532397856555,16.991315664197
0.0166970002917266,16.9927999061826
0.018768714214849,16.9942349183441
0.0210916042596639,16.9956170935148
0.0236875030325648,16.9969434439657
0.026593895421374,16.9982189171752
0.029846847043714,16.9994455878045
0.0334881542816218,17.0006261803385
0.0375642463036714,17.0017631977901
0.0421342836910127,17.0028606966319
0.0472653475620811,17.0039221443208
0.0530363252738243,17.0049510417368
0.0595408035709451,17.0059509724301
0.066890532397675,17.0069256185761
0.0752213541648485,17.007878953653
0.084699281315264,17.0088152131034
0.0955307250300424,17.0097390945256
0.107977001292704,17.0106559746295
0.122376678828794,17.0115722592546
0.139181194989767,17.0124959312532
0.159016343105647,17.0134375370647
0.182434213215469,17.0143982165228
0.209549671249643,17.0153630568348
0.241071037497148,17.0163422587612
0.277958478261231,17.0173509471961
0.321713070836823,17.0184167132111
0.35870025624882,17.0192456995533
0.397403070529907,17.0200746858954
0.431655677267564,17.020802073607
0.461504925924296,17.0214568108849
0.48763219553381,17.0220755043561
0.510116623724281,17.0226834640275
0.528576156536624,17.0233035259532
0.542077147897171,17.0239640082521
0.548560898054291,17.0247142246371
0.544517851310235,17.0255035951297
0.528497070262493,17.0263219411588
0.498950391098887,17.0271864204184
0.453838184343459,17.0281094743941
0.392588004438441,17.0290754198345
0.34631826259996,17.0296967446422
0.295600457272935,17.03031806945
0.250743182569625,17.0308382091427
0.212444282459712,17.031273574284
0.178880467677916,17.0316572036163
0.148866415071035,17.0320088926791
0.121689447522788,17.0323408216534
0.0968610358193769,17.0326618408922
0.0739821957553008,17.0329799040625
0.0526324430521806,17.0333045347214
0.0321340963827569,17.0336529017856
0.0100836699238626,17.0340886364599
0.000796970878538029,17.0342999859551
-0.00761148211081267,17.0345113354502
-0.0141469149319744,17.0346923680076
-0.0201893672855172,17.0348762960574
-0.0262568854442924,17.0350813272501
-0.0321044480338492,17.0353040103002
-0.037576414692608,17.0355422801311
-0.0425864838282761,17.0357954298731
-0.0470899217577875,17.0360636586094
-0.0510670964280146,17.0363478201544
-0.0545137684951923,17.0366493041531
-0.0576164399015499,17.0369944088344
-0.0599415657662232,17.037335610885
-0.061760119523547,17.0377010205488
-0.06308944878378,17.0380946515815
-0.0639435779517019,17.0385210729728
-0.0643341841319717,17.0389859947561
-0.0642688795484895,17.0394966728365
-0.0637488648335938,17.0400626270042
-0.062763058886778,17.0406979716955
-0.061284154442225,17.0414213035611
-0.0592562565132806,17.0422611334894
-0.0565611068044449,17.0432678050602
-0.0528822584169222,17.0445613076612
-0.0487978488105979,17.0459607072227
-0.0448459709217046,17.0473155643142
-0.0410751396474301,17.0486302753002
-0.0375092942397465,17.0499069301803
-0.0341608536822855,17.0511462404265
-0.0310354159868379,17.0523482236595
-0.0281338823943869,17.0535125685892
-0.0254536167609023,17.0546388272116
-0.0229892177134909,17.055726513656
-0.0207331233205517,17.0567751503214
-0.0186761317398014,17.0577842824966
-0.0168078667261164,17.0587534728853
-0.0151171953301824,17.0596822823454
-0.0135464792720322,17.060597952842
-0.0120346025958992,17.061537011101
-0.0105862291668791,17.0625009241666
-0.00920532697543232,17.0634917631032
-0.00789567824033954,17.0645119549583
-0.00666082623543787,17.0655643730139
-0.00550402431238585,17.0666524521568
-0.00442818287401145,17.0677803438806
-0.00343581438089645,17.0689531292836
-0.00252897612750504,17.0701771196644
-0.00170920998773615,17.0714602943488
-0.000977477425911285,17.0728129631193
-0.000333987739825573,17.0742488164349
0.00022173802303293,17.0757866917225
0.000680771243742165,17.0774121900444
0.00103828942258732,17.0790828297418
0.00131069482769958,17.0808168987422
0.00151249867206951,17.0826351657793
0.00165725396389063,17.0845652794532
0.00175793133556553,17.0866462247388
0.00182746162259001,17.0889375581973
0.00187972360426142,17.0915416470343
0.00193218047270935,17.0946741161334
0.00200432692789449,17.0984080154957
0.00210438435729368,17.1023635325839
0.00225056961006507,17.1069354718921
0.00243510237370312,17.1118854496292
0.00263183881223395,17.1167484597728
0.00284025244404678,17.1217057418789
0.00301972043191913,17.1258813338053
0.0031891849239412,17.1297676239254
0.00335638611115141,17.1335406204548
0.00352573797145937,17.1372857899468
0.00370057584963827,17.1410574238423
0.00388384919734171,17.1448962919672
0.00407841295684411,17.1488364105276
0.00428721674693653,17.152908706794
0.00451346461363377,17.1571434209677
0.00476076203656603,17.161571531752
0.00503331695233512,17.1662260279519
0.00533627415888732,17.1711433401048
0.00567626989864438,17.1763645630566
0.00603924540695468,17.1816096537867
0.00642010482285448,17.186766605142
0.00682277148220265,17.1918513580637
0.00724982875144243,17.1968523101968
0.0077058854144612,17.2017767197731
0.00819599709246416,17.2066294717274
0.00872591632872986,17.2114155739203
0.00930188167508268,17.216137378378
0.00993069368178525,17.2207950319141
0.0106201121570676,17.2253889669639
0.0113959902073109,17.2300159926562
0.0122721511264522,17.2346636605601
0.013270548275487,17.2393473145147
0.0144214828823974,17.2440959853063
0.0157741462013355,17.2489798368123
0.0174289049885559,17.2541835491994
0.0197210341952007,17.2604202150157
0.0214396670534208,17.2646233125562
0.0232471280478617,17.2688264100967
0.0247949462885938,17.2724218727372
0.0260927306953898,17.2756046158063
0.0271807560693298,17.2786018754523
0.0280403623481319,17.2814958261622
0.0286310756475174,17.2842643151674
0.0289524095877878,17.2870250753719
0.028975407230092,17.289928100869
0.0285952057398628,17.2932870291437
0.0278230852108228,17.2966029679131
0.0267181712760034,17.2999189066825
0.0256275565152468,17.3026148149243
0.0245561880612907,17.305000433913
0.0234854298040834,17.3072418089353
0.0224134030471901,17.3094057784761
0.0213429104745906,17.3115268871699
0.020277633453329,17.3136268955555
0.0192212496341922,17.3157211896685
0.0181772128655137,17.3178215167236
0.0171486967210793,17.3199373938296
0.0161385904599958,17.3220769151671
0.0151495081665788,17.3242472612825
0.0141838005420255,17.3264550455964
0.0132435699101428,17.328706558494
0.0123306789847753,17.3310079671328
0.0114467614218146,17.3333654770385
0.0105932359499581,17.3357854640554
0.00977130856358598,17.3382746309403
0.00897498384722936,17.3408637606925
0.00818930174587577,17.3436241324937
0.00741802483659035,17.3465753595884
0.00666493841078002,17.3497409023074
0.0059340760961835,17.35314790368
0.00522969439376451,17.3568278857724
0.0045562219300832,17.3608176289493
0.00391817401452792,17.3651603347393
0.00331999770694368,17.3699074779997
0.00276582008614992,17.3751222102021
0.0022591379073808,17.380885539222
0.00180256281784097,17.3873067047279
0.00141268723999759,17.3942377546863
0.00108653961144827,17.4017143064744
0.000822162292503809,17.4101533247126
0.000659662668562857,17.4174287468082
0.000503100234731679,17.4269314898945
0.000391406984046015,17.4365934994425
0.000311872222818757,17.4465934994425
0.000258887753313888,17.4565934994425
0.000224901525092309,17.4665934994425
0.000204427626749625,17.4765934994425
0.000193599434844601,17.4865934994425
0.000189788066636556,17.4965934994425
0.000191259424859266,17.5065934994425
0.000196903612365391,17.5165934994425
0.000206046751601515,17.5265934994425
0.000218331171702579,17.5365934994425
0.000233643743086605,17.5465934994425
0.000252076777498081,17.5565934994425
0.00027391284689623,17.5665934994425
0.000299630400150677,17.5765934994425
0.000329931064457658,17.5865934994425
0.000365793226478217,17.5965934994425
0.000408561346444357,17.6065934994425
0.000460088188051476,17.6165934994425
0.000522960512268438,17.6265934994425
0.000597882289247276,17.636243708517
0.000683495719136266,17.6451368265261
0.000781037448816081,17.6533193660124
0.000892103258602492,17.6608506920097
0.00101854120472502,17.6677859998117
0.00116245756562074,17.6741761499459
0.00132624606653357,17.680068105603
0.00151262816220951,17.6855053159467
0.00172470416841289,17.6905280264016
0.00196601190791453,17.6951735783812
0.00224060334184592,17.6994767103605
0.00255313798794164,17.7034698607081
0.0029090084231221,17.7071834576491
0.00331450256559814,17.710646244071
0.00377703570410986,17.7138856770673
0.00430548516423386,17.7169284337226
0.00491069680349949,17.7198011005728
0.00560631114871789,17.7225312444848
0.00638734964605868,17.7250810761089
0.00726827545873538,17.7274940609049
0.00827956578900699,17.729837356316
0.00948578266658301,17.7322177399468
0.0110997489142704,17.7349363320852
0.0123642286900411,17.7368269054429
0.0137190297429894,17.7387174788006
0.0149487007292895,17.7403822038104
0.0160242561422372,17.7418566853747
0.0169768752743086,17.7432368212028
0.0178106480897759,17.7445789148913
0.0185137451832817,17.7459264776496
0.0190608814594859,17.7473272792427
0.0194053820873338,17.7488549225177
0.0194411577109114,17.7506823807181
0.0189831192623926,17.7527813812636
0.0180584739685879,17.754880381809
0.0170452484043512,17.7565764920726
0.0159547937810967,17.7581503181565
0.0147791381002918,17.7597135068714
0.0135254498612975,17.761312771938
0.0127872154646325,17.7622432237202
0.0120708809118649,17.7631736755024
0.0101941357847892,17.7658296894399
0.00855515662614264,17.7684850211533
0.00719843254277801,17.7710114642828
0.00625585016725658,17.7730021664317
0.0054139745642668,17.7749928685806
0.0047233288622108,17.7768152268044
0.00412233975118899,17.7785741995039
0.00356597340603001,17.780379953234
0.00301843845472664,17.7823631881735
0.00242572152476965,17.7848014796236
0.00177856808652801,17.7879195994892
0.00121160312236847,17.7911872600058
0.00077225825662446,17.7941955970918
0.000378153069877618,17.79737712613
-1.17420037107283e-05,17.8011389812939
-0.000386887478849495,17.8055775030901
-0.000717374348304874,17.8105181905486
-0.000967768038212057,17.8154632862525
-0.00112191941216584,17.8198904145965
-0.00119350184845987,17.8239114172198
-0.0011847127277332,17.8275636560909
-0.00109409870993217,17.8309002338087
-0.00091715482578307,17.8339810655889
-0.000645602263626145,17.8368726444462
-0.000264975652393095,17.8396501168198
0.000255781837783648,17.8424310384305
0.000994387540187278,17.8454371371879
0.00198939656873376,17.8486437626993
0.00330328034731195,17.8521399089063
0.00448871719474051,17.8548754261179
0.00582629996313733,17.8576109433295
0.00703777615485997,17.8598008711679
0.00822103411415296,17.8616949919698
0.00948074730238789,17.8634720652421
0.0108442716253514,17.8651546324342
0.0123466561733585,17.8667666325499
0.0140203569449585,17.8683205847094
0.0158856457872314,17.8698142057327
0.0179725748092916,17.8712526687372
0.0203081453375078,17.872636897176
0.0229164107276762,17.8739657000326
0.0258347951463856,17.8752439646239
0.0291002934195,17.876474036769
0.0327533385125253,17.8776580221529
0.0368459058333431,17.8787999223755
0.0414364579275639,17.8799031190677
0.0465931992536027,17.8809710089808
0.0523961995408208,17.8820070170922
0.0589413373174964,17.8830148105685
0.0663445611684735,17.8839983249186
0.0747462780037174,17.8849616683171
0.0843197732558707,17.8859093560209
0.0952824794693753,17.8868464876315
0.107913789047336,17.8877790886931
0.122582593479616,17.8887145776267
0.139793416755705,17.8896625657114
0.160272832277419,17.8906364724218
0.184097356005977,17.8916167170069
0.211751987367276,17.8926066576987
0.244029667640837,17.8936192733433
0.282060278955035,17.8946748798208
0.327423834744257,17.8958053367395
0.361949647737043,17.8966081879353
0.397467022065129,17.897411039131
0.429070027108797,17.8981310115462
0.456751404361123,17.898793112699
0.480832557313068,17.8994271526667
0.50119150485467,17.9000562560993
0.517278938673259,17.9007033638187
0.527924797376248,17.9013988439268
0.530565052696999,17.9021965787318
0.522167241385405,17.9030072274967
0.501587909855764,17.9038488154108
0.467206165218624,17.9047355739895
0.417078884627536,17.9056771738252
0.369520070001846,17.906402452081
0.315098066152794,17.9071277303368
0.267021957876902,17.9077161797678
0.226691043836912,17.9081911303903
0.191759694425465,17.9085994394687
0.160716154520333,17.9089676366585
0.132710436439098,17.9093107598997
0.107199961131402,17.9096388181674
0.0837778260767473,17.9099598702214
0.0620701609578443,17.9102821601406
0.0416040449559934,17.9106174541156
0.0213508442434805,17.9109933807396
0.00540076880726727,17.9113354013314
-0.00252832155324583,17.9115268528119
-0.00977163009816623,17.9117183042924
-0.0160169328409882,17.9118993123473
-0.0220331990271563,17.9120912764964
-0.0280041589977084,17.9123036042288
-0.0337092766065045,17.9125330940562
-0.0390146242923488,17.912778038904
-0.0438470471757136,17.9130379776701
-0.0481697018201121,17.9133132887898
-0.0519677144782469,17.9136049729517
-0.0553815293928116,17.9139308945989
-0.0580618480432047,17.9142587078303
-0.0602287571392966,17.9146086270899
-0.0618984599491052,17.9149840403081
-0.0630853821867462,17.9153888308236
-0.0638028096739699,17.9158278069981
-0.0640613512286142,17.9163069937742
-0.0638671530068058,17.9168340699245
-0.063218862469667,17.9174195378028
-0.0621022015946452,17.9180782024781
-0.0604852532176181,17.9188302546344
-0.0583035176181606,17.9197072987617
-0.0554174215386834,17.9207674511145
-0.0514180486047895,17.9221640810297
-0.0473878151676055,17.9235460713916
-0.0435106970094737,17.9248843592315
-0.039825182430023,17.9261827229057
-0.0363505122420311,17.9274428876736
-0.0330962630224112,17.9286654038075
-0.0300660006190305,17.9298502342962
-0.0272590344596178,17.9309970667899
-0.024671440476824,17.9321054772318
-0.0222967804153674,17.9331750125501
-0.0201266826049554,17.9342052269797
-0.0181513464337727,17.9351956902159
-0.0163599915517596,17.9361459772956
-0.0147412571639117,17.9370556456353
-0.0131892333810293,17.9379822447224
-0.0116983321367863,17.9389327612023
-0.010272680484599,17.9399090563556
-0.00891615753161856,17.9409133582816
-0.00763242738424887,17.9419482912485
-0.00642488814213715,17.9430169755333
-0.00529661918106663,17.9441231595688
-0.00425032616266573,17.9452713992634
-0.00328828355428412,17.9464673073597
-0.00241227394197398,17.9477179103223
-0.00162352257358045,17.9490321769894
-0.000922624038949888,17.9504218350579
-0.000309455029471863,17.9519026993597
0.000216939243741138,17.9534969815635
0.000637276819257823,17.9551414039699
0.00096432785654464,17.9568397651664
0.00121350844688152,17.9586106617207
0.00139902685273493,17.9604777300939
0.00153435121209894,17.9624732085617
0.00163269595100367,17.9646441508942
0.00170781145333394,17.9670660568691
0.00177572596242696,17.9698794764478
0.00186085140209418,17.9734334511883
0.00196919992883501,17.9772171897466
0.00210065091590822,17.9809850577973
0.00225331391532761,17.9847670271491
0.002423541434648,17.9886065174679
0.00260782051235372,17.9925392219586
0.00280382393516125,17.9965970592324
0.00301068750312821,18.000810623889
0.00322893749597989,18.0052109584248
0.00346029423521396,18.0098309037507
0.0037075079317393,18.0147065285963
0.0039743448944303,18.0198784768024
0.00426585724061828,18.0253934158491
0.00457850428048284,18.0311142942105
0.00489386935053919,18.0366424897208
0.00522029956475553,18.0420841473631
0.0055585006989384,18.0474029559226
0.00591283360185031,18.0526245337443
0.00628684077024769,18.0577579991171
0.00668446288020989,18.0628148284391
0.0071096544279063,18.067801920218
0.00756662947878939,18.0727240255142
0.0080599492078712,18.0775837668131
0.00859464426431784,18.0823820606476
0.00917631495900823,18.0871183095518
0.00981123289107343,18.0917906926046
0.0105064530484619,18.0963966322316
0.0112861739746478,18.1010249524989
0.0121656379848946,18.1056746278958
0.0131661419582617,18.1103587343994
0.0143175942969708,18.1151059800731
0.0156683149194778,18.1199848045732
0.0173160794929833,18.1251740814428
0.0195796439104115,18.1313490332801
0.0213166083753057,18.1356050771989
0.023147173413474,18.1398611211177
0.0247079670493331,18.1434793558536
0.0260148068967829,18.1466718621959
0.0271112123976213,18.1496730235181
0.027981706826912,18.152574540713
0.0285828035686384,18.1553465826689
0.0289148537311182,18.1581066227633
0.0289503987479589,18.1610026305803
0.0285894649355594,18.1643368467999
0.027821596319976,18.1676958397177
0.0267105271736962,18.1710548326356
0.025618707550414,18.1737630792268
0.0245475827170152,18.1761536236537
0.023477058380195,18.1783983357938
0.0224050445339499,18.180565157824
0.0213343230412346,18.1826889772777
0.0202685750084285,18.1847917410947
0.0192114788195556,18.1868889720375
0.018166486258312,18.1889925400757
0.0171367675683559,18.1911120833954
0.0161252060411618,18.1932558286551
0.015134409408829,18.1954311039876
0.0141667208099035,18.1976446950495
0.0132242346572117,18.1999030955636
0.012308807246614,18.202212711858
0.0114220656290211,18.204580039169
0.0105654244699151,18.2070117994926
0.00974008801492404,18.2095151138846
0.00894398264325129,18.2121080661011
0.00815848062471167,18.2148728630662
0.0073873867214966,18.217829050242
0.00663447929623135,18.2210001906243
0.00590378375921937,18.2244135525576
0.00519954771845832,18.2281008063659
0.00452618994520767,18.2320989059192
0.00388821614317035,18.2364512398062
0.00329006314814869,18.2412094713747
0.00273584826860992,18.2464368911993
0.00222905402542981,18.2522145509731
0.0017722682967459,18.2586515341242
0.00138224410249276,18.2655949410924
0.00106260905193146,18.2733466961242
0.000858915796595441,18.2801259696022
0.000663800666304918,18.2886879704109
0.000514546602285608,18.2976289920956
0.000395998941464641,18.3076289920956
0.000314858684385188,18.3176289920956
0.000260239132241946,18.3276289920956
0.000224198229361883,18.3376289920956
0.000201085135142017,18.3476289920956
0.000187000458101784,18.3576289920956
0.000179306815861161,18.3676289920956
0.00017623529942254,18.3776289920956
0.000176605454064654,18.3876289920956
0.000179640732915,18.3976289920956
0.000184850185322028,18.4076289920956
0.000191952251838507,18.4176289920956
0.000200825531586739,18.4276289920956
0.000211478265751993,18.4376289920956
0.000224032244763435,18.4476289920956
0.000238719033985759,18.4576289920956
0.000255887952284147,18.4676289920956
0.000276026808453367,18.4776289920956
0.000299798417188426,18.4876289920956
0.00032809883729548,18.4976289920956
0.000362147896983344,18.5076289920956
0.000403630421893772,18.5176289920956
0.000453712694176579,18.5274143332814
0.000511221478760587,18.5364691916378
0.000577034234660919,18.544828660865
0.000652282996623252,18.5525456464116
0.000738272152455448,18.5596700880734
0.000836482589615182,18.5662484279618
0.000948589528757904,18.5723238424446
0.00107648688148881,18.5779364750376
0.00122231600898291,18.5831236473627
0.00138849863380542,18.5879200547767
0.00157777481072202,18.5923579533069
0.00179324788491033,18.5964673406651
0.00203843809027757,18.6002761305774
0.00231734752885913,18.6038103237852
0.00263454094249752,18.6070941809592
0.00299524736950293,18.6101504016994
0.0034054918979101,18.613000313646
0.00387227031672336,18.615664081793
0.00440378822711279,18.618160953682
0.00500980059191905,18.6205095642729
0.00570211460314364,18.6227283455555
0.00646804624079221,18.6247696666344
0.00731516554994884,18.6266632638983
0.008256633443784,18.6284427188269
0.00931236979279422,18.6301424629756
0.0105159266493081,18.6318039251934
0.0119528427347434,18.6335121891616
0.013901455187542,18.635502441391
0.0156044886471709,18.6370392089436
0.0174504775143068,18.6385759764961
0.0191496705680562,18.6399323816402
0.0206385309584856,18.6411220448426
0.0219725470789782,18.6422334966646
0.0231644794268413,18.6433168818641
0.0242037661106983,18.6444103297789
0.0250625263537397,18.6455564240481
0.0256869063280545,18.6468231684892
0.0259495012688762,18.6483809649309
0.0255868955615511,18.650165346532
0.0246214366619442,18.6519497281331
0.0234964787674539,18.6534035647051
0.022231905027088,18.6547870292697
0.0208221967776042,18.6561950541502
0.0192753065241342,18.6576714757527
0.0175978316361246,18.6592544011672
0.0158155454669131,18.660992050553
0.0144836971797607,18.662384705477
0.0119279841775522,18.6653647855358
0.00982401673696382,18.668233748134
0.00817405342295806,18.6708626578787
0.00683215867010024,18.6733466732263
0.00566119351934607,18.6758649731837
0.00463239121483413,18.6784487783876
0.00372639095570364,18.681121484188
0.00292768214868577,18.683906301554
0.00222321158746341,18.6868279880152
0.00163924404903344,18.6897104861198
0.00116021898584957,18.6925029151688
0.000751131649384825,18.695297216964
0.000395173975067856,18.698130761994
9.37452095190564e-05,18.700903666484
-0.000153465079390112,18.7034928492528
-0.000358459997776065,18.7058944516081
-0.000533916377252091,18.7081578504313
-0.000688975870273812,18.710332417344
-0.000830332177517593,18.7124652684134
-0.000964133992317879,18.7146192801822
-0.00109885777592639,18.7169192929949
-0.00126173046053379,18.7198653572074
-0.00135470452819648,18.721620216258
-0.00144533052022651,18.7233750753086
-0.00152619241169291,18.7249725890058
-0.00160165224493074,18.7264859032029
-0.00167686965544051,18.7280118735907
-0.00175680178344538,18.7296482538088
-0.00184977850142711,18.7315650697208
-0.00198605960688972,18.7343886591601
-0.00214752005181355,18.7377386456824
-0.00228504009766338,18.7405886723732
-0.00242167597208372,18.7434193778523
-0.00257907216511542,18.7466935132427
-0.00277939104410219,18.7509377952312
-0.00301384699714708,18.7562549947334
-0.00319525567792356,18.7613107607457
-0.00328977054624514,18.7657846352833
-0.00329239898574066,18.7696380004711
-0.00320554800791062,18.773193638603
-0.00301284878097426,18.7766832885205
-0.00271602736736663,18.7799103769825
-0.00232647895653609,18.7828328727738
-0.00184485999215611,18.7855274107966
-0.00126193263754743,18.7880760074228
-0.000551640332231085,18.7905792181271
0.000360555230744248,18.7932252254242
0.00157810578118579,18.7961892666891
0.00307145349821299,18.7993516523457
0.00438560696664935,18.8019040980471
0.00603867936130228,18.804916168529
0.00719111942512342,18.8068822627873
0.00843034895920431,18.8088483570456
0.00967223059740136,18.8106451453489
0.0109842248521383,18.8123498441942
0.0123972141221144,18.8139767668748
0.0139583604381283,18.8155529408144
0.0156930226532198,18.8170762643344
0.0176317586507564,18.8185491182693
0.0197961013293063,18.8199667953319
0.0222197643671705,18.8213331767408
0.0249308296296847,18.8226475232477
0.0279610207047754,18.8239106752034
0.0313530220659194,18.8251267582399
0.0351519346126056,18.8262985477209
0.039410238713474,18.8274291630181
0.0441875729201502,18.8285215483305
0.0495580563715324,18.8295796718881
0.0556075142883157,18.8306071442602
0.0624384544344761,18.8316077177658
0.0701745815724032,18.8325853490879
0.0789671349737445,18.8335443089225
0.0890046031227056,18.8344893994732
0.10052540004648,18.8354260950608
0.11383886092659,18.8363609418876
0.129358815246629,18.8373021508421
0.147662913419215,18.8382607002313
0.169363446567251,18.8392422540999
0.194498732985569,18.840227606012
0.223735163671616,18.841227430904
0.257973106187004,18.8422571031559
0.298574666072193,18.8433427409776
0.345516371149253,18.8444811841142
0.385230988402345,18.8453926665662
0.418404117782376,18.8461490143352
0.447220968277813,18.8468295070462
0.472378747583096,18.8474727137621
0.493902201863433,18.8481034629528
0.511388904306973,18.8487439642913
0.523919456427416,18.8494207921633
0.529569720718424,18.8501768847124
0.525107224722841,18.850982582221
0.508953202698896,18.8518126635599
0.479657087604685,18.8526827802197
0.435380705619126,18.8536040187652
0.374131590500492,18.8545849243553
0.330614779147475,18.8551799572661
0.283208362455293,18.8557749901768
0.240913348623125,18.8562796907615
0.204382455282823,18.8567081134924
0.172127145929527,18.8570890738389
0.143151974673201,18.8574403449776
0.116836746793482,18.8577732524064
0.0927418144974969,18.8580962974797
0.07049499259728,18.8584173825099
0.0496852905635392,18.8587463505693
0.029606258211675,18.8591018703337
0.00742291972105458,18.8595613680903
-0.000791691841508923,18.8597577493114
-0.00828414609215322,18.8599541305326
-0.0146323455177582,18.8601367631786
-0.0206306416133947,18.8603266076947
-0.0266126223483855,18.8605372568825
-0.0323485473931261,18.8607653746614
-0.0376960623213491,18.8610090811076
-0.0425769894619568,18.8612678031047
-0.0469514847041402,18.8615418421632
-0.0508028416716342,18.8618321394164
-0.0542283126182253,18.8621516239067
-0.0569696218678099,18.8624772735814
-0.0591971575433497,18.8628247695747
-0.0609264287435174,18.863197361324
-0.0621718867597611,18.8635988340874
-0.0629470432523479,18.8640338703958
-0.063262944744334,18.8645083267687
-0.063126438363229,18.8650296478402
-0.0625375074938284,18.8656078265858
-0.0614837066539131,18.8662572319328
-0.0599360709004876,18.8669970918354
-0.0578359049616145,18.8678570829943
-0.0550584013784075,18.8688903179313
-0.0512597617695859,18.8702276987794
-0.0472310067205912,18.871615698823
-0.0433464141079432,18.8729592805722
-0.0396491886884485,18.8742624582982
-0.0361604234932424,18.8755272153518
-0.0328907168787654,18.8767542385779
-0.0298442959978643,18.8779435609854
-0.0270209459533145,18.8790949047469
-0.0244171042241507,18.8802078614493
-0.0220266116307373,18.8812819840061
-0.019841308551615,18.882316828354
-0.0178515485143608,18.8833119649218
-0.0160466542715205,18.884266970688
-0.0144153231123835,18.8851814077727
-0.0128636059663622,18.8861053542973
-0.0113725191877372,18.8870530814313
-0.00994632421284472,18.8880263543946
-0.00858892970931539,18.8890273621336
-0.00730403756928002,18.890058679525
-0.00609509178845076,18.8911233647173
-0.00496522664769864,18.8922250869521
-0.00391721282071148,18.8933682995802
-0.00295340135600445,18.8945584799344
-0.00207566506000629,18.895802471433
-0.00128533612690653,18.8971089881898
-0.000583137676056445,18.8984893903297
3.08953958736639e-05,18.899958937077
0.000557515548012777,18.9015389472661
0.000980083803585239,18.9031784512798
0.00130730792753083,18.9048696921623
0.00155476559029213,18.9066311332333
0.0017366620253295,18.9084856532942
0.00186638199768417,18.9104642594306
0.00195692919287393,18.9126118056076
0.00202160711407549,18.9149993368073
0.00207543297585476,18.9177562776833
0.00213970537526278,18.9211891895585
0.00222662392271236,18.9249533958014
0.00234960099658091,18.9290874420699
0.00252729553815199,18.9339813776691
0.00269801812721727,18.938155330715
0.00286664272369075,18.9420439780127
0.00303574279759397,18.9458203035648
0.00320718276213461,18.9495694978199
0.00338295925904543,18.9533457473725
0.00356533511560015,18.9571896571072
0.00375684112974411,18.9611352997175
0.00396026171799995,18.9652136302912
0.00417866525108157,18.9694549373029
0.00441545829442647,18.9738902780004
0.0046745191712977,18.9785527816601
0.00496047418173111,18.9834790889723
0.00527918450052319,18.9887105839548
0.00562441521467135,18.9940782770531
0.00598214231687877,18.999317980918
0.00635896768312371,19.0044927709371
0.0067560770464875,19.0095743614728
0.00717806848980264,19.0145765216182
0.00762936208951719,19.0195036904487
0.0081151388921087,19.02436284617
0.00864091197873386,19.029157627599
0.0092126883351653,19.0338895701906
0.00983702519862929,19.0385581132566
0.0105211543769396,19.043161303557
0.0112888692752689,19.0477866988717
0.0121553228870652,19.05243343322
0.0131414227445793,19.05711371533
0.0142762630618667,19.0618543985355
0.0156062268977306,19.0667195240971
0.0172231369509008,19.0718746406034
0.0194106026055875,19.0779163390094
0.0211824286679122,19.0822977945557
0.023060181797699,19.0866792501019
0.0246434002011885,19.0903468013322
0.0259640661433641,19.0935588936965
0.0270728794033373,19.0965673552159
0.0279599518174338,19.0994805264429
0.0285769864622836,19.1022565585397
0.0289255728563716,19.105012587461
0.02898059675454,19.1078929467735
0.0286501775440541,19.1111801613808
0.0276370852530014,19.1154711705399
0.0267452807412596,19.1180907961336
0.0256925294294312,19.1207104217273
0.0246246431420702,19.1231018295877
0.023554382892163,19.125350210859
0.0224824689902772,19.1275185152451
0.0214117935593763,19.1296421506537
0.0203460330770142,19.1317434747694
0.0192888767139695,19.1338382158582
0.0182437958783332,19.1359383330714
0.0172139828040634,19.1380534844239
0.0162023447225178,19.140191863891
0.0152115124040014,19.1423607273098
0.0142438523787014,19.144566747632
0.0133014820443321,19.1468162652466
0.0123862781113909,19.1491154932758
0.0114998885524649,19.151470679372
0.0106437449600491,19.1538882453905
0.00981906700108759,19.156374940816
0.00902218475182723,19.1589537248118
0.00823568441455783,19.1617026274834
0.00746334037484526,19.1646409883829
0.0067089194952333,19.1677920516718
0.00597643814614493,19.1711827017407
0.00527013849013706,19.1748441459314
0.00459443859417927,19.1788127813652
0.00395385092353423,19.1831313213581
0.00335283730647212,19.1878505334433
0.00279555002275191,19.193032582959
0.00228553821752476,19.1987568231315
0.00182547458586489,19.2051298374538
0.00143081626250475,19.2120284174394
0.00110029403957422,19.2194661457535
0.000890900651248799,19.2258547090645
0.000687529022536896,19.2342326602331
0.000526459963158677,19.2434200101913
0.000405175063723383,19.2531886765782
0.000319577025938048,19.2631886765782
0.000262043634831165,19.2731886765782
0.000224505322849546,19.2831886765782
0.000201108945186272,19.2931886765782
0.000187730174800682,19.3031886765782
0.000181556570936988,19.3131886765782
0.000180717812215054,19.3231886765782
0.000183996414475839,19.3331886765782
0.000190626626688892,19.3431886765782
0.000200165073967759,19.3531886765782
0.000212411140773491,19.3631886765782
0.00022736026692047,19.3731886765782
0.00024518047842619,19.3831886765782
0.000266207903154335,19.3931886765782
0.000290960640020496,19.4031886765782
0.000320173298535486,19.4131886765782
0.000354858010087966,19.4231886765782
0.000396402944676553,19.4331886765782
0.000446728076440118,19.4431886765782
0.000508533343141097,19.4531886765782
0.000579907693243502,19.4625040371028
0.000661361142695711,19.4710828757696
0.000754195478556574,19.4789818501439
0.000859961627988127,19.4862571790967
0.000980434881267209,19.4929607990947
0.00111763116215094,19.4991406457679
0.00127383706685062,19.5048410314166
0.00145164766428282,19.5101029669113
0.00165401205310324,19.5149644412983
0.00188428576820121,19.5194606907711
0.00214629755415274,19.5236244596475
0.00244442993720512,19.5274862506148
0.00278372300817612,19.53107456949
0.00317001022239489,19.5344161916242
0.00361010102864133,19.5375364649897
0.00411203765752377,19.5404596653738
0.00468546677753979,19.5432094537233
0.0053422098486196,19.545809523809
0.00608267372583869,19.5482411090218
0.00690858108114223,19.5505081396705
0.00783754175951843,19.5526577691207
0.00889985488337358,19.5547460668021
0.0101574910899448,19.5568596454111
0.0117977472570472,19.5592222348039
0.013213663450016,19.5610268851444
0.0147448014705931,19.562831535485
0.0161408479231595,19.5644140105516
0.0173573342439962,19.5657992987783
0.0184385667521748,19.5670891796062
0.0193935516344829,19.5683405226894
0.0202119750377264,19.5695953919951
0.0208689298810955,19.5708987732889
0.0213179026182939,19.5723185863987
0.0214553120074815,19.5740100705315
0.021055277285173,19.5760405481136
0.0203407256439228,19.5776640765037
0.019347608910864,19.5792876048939
0.0182355714226781,19.5808019107579
0.0170154234847547,19.5823026266635
0.0156967245211243,19.5838388674245
0.0142887807442477,19.5854462210891
0.0128399358502693,19.5871620839539
0.0105967222215314,19.5901360163971
0.00882119643821674,19.5928663732259
0.00739356831061878,19.5954036585839
0.00615955482564462,19.5979365969996
0.00511599914172106,19.6004137505436
0.00423029449081053,19.6028416974626
0.00345771286012527,19.6052861617355
0.00274965976493767,19.6078831834103
0.00205387169021241,19.6108839075497
0.00164603088399466,19.6129158987606
0.00128186486033949,19.6149478899714
0.000986638880336327,19.6167780799926
0.000735010640082424,19.6184918408218
0.000504583346636771,19.620206250258
0.000280153553964967,19.622030260324
4.39009756642428e-05,19.6241406227374
-0.000252751712449578,19.6271153052117
-0.000595328391183199,19.631092492193
-0.000846342595064778,19.6344530731927
-0.00106124518695842,19.6376832204073
-0.00128116470715032,19.6413771768077
-0.00153112171117818,19.6461459285195
-0.00177538091371699,19.6516582522602
-0.00194111970735734,19.6564809509749
-0.00203584992673621,19.6608704864049
-0.00205211877548431,19.6648361254075
-0.0019834076857493,19.6684323216837
-0.00182408904214798,19.6717093300622
-0.00156866815968444,19.6747280450284
-0.00120963658383911,19.6775527689759
-0.000732887340085132,19.6802605830035
-0.000107124125942808,19.6829618764845
0.000739128880701452,19.6858351144747
0.00187317258496997,19.688958277168
0.00333993040611464,19.6923551111713
0.00473466093116822,19.6951931881279
0.00591245625961842,19.6973676947689
0.00720761198739166,19.6995422014098
0.00848371755072049,19.7014673387202
0.00982404636841038,19.7032692414372
0.0112363634774372,19.7049460025743
0.0127837127911683,19.7065563997637
0.0144879787662797,19.7081008116011
0.0163837101297324,19.7095895149004
0.0184937123419732,19.7110206390817
0.020851205717777,19.712398965521
0.0234808268428986,19.7137227883205
0.0264207826573307,19.7149967055975
0.0297092443463494,19.7162230712026
0.0333894951057051,19.7174045006378
0.0375093400844898,19.7185433489452
0.0421302312234902,19.7196437375735
0.04732112352638,19.7207090305103
0.053163357212787,19.7217427090424
0.059753786664522,19.7227484038681
0.0672080090384827,19.7237298329092
0.0756685687592396,19.7246912345703
0.0853104655856625,19.7256371298212
0.0963535396352481,19.7265726436252
0.109080059309799,19.727503805138
0.12386226311796,19.7284380086643
0.141210212785588,19.7293848973712
0.161858250609365,19.7303579117278
0.185863446489538,19.7313366695544
0.21372880510604,19.7323252555374
0.24625383526394,19.7333366696488
0.2845805403709,19.7343913751289
0.330280871609947,19.7355209842762
0.364755785954732,19.7363169502047
0.400174968003939,19.7371129161331
0.431693075281179,19.7378277480333
0.45930445565535,19.7384862144287
0.483315830200219,19.7391177406117
0.50359164036996,19.7397453621151
0.519564077526963,19.740392221521
0.530025306602623,19.741089438036
0.5323265685666,19.7418858487916
0.52353544346528,19.74269616917
0.502487014752678,19.7435384235165
0.467534384977214,19.7444267922286
0.416710288547307,19.7453708578541
0.369096156029172,19.7460908846148
0.314747701727721,19.7468109113755
0.26675852466663,19.7473958295832
0.226477040232791,19.747868695964
0.191574064364231,19.7482756643457
0.160549754343326,19.7486429215565
0.132558638336872,19.748985361368
0.107059503463571,19.7493129324289
0.0836451629910816,19.7496336809719
0.0619395252058496,19.7499558929153
0.0414622628474365,19.750291512668
0.0211492545369039,19.7506690731697
0.00414779632453255,19.7510364837086
-0.00356184117346698,19.7512252743845
-0.0106074523475483,19.7514140650604
-0.0167086396426901,19.7515932696178
-0.0227416880975558,19.7517885701197
-0.0286883920645093,19.7520036383345
-0.0343417493453503,19.7522354652805
-0.0395798680525342,19.7524825869493
-0.0443367941292599,19.7527447020405
-0.0485800133131781,19.7530223013246
-0.0522970968353787,19.7533164746759
-0.0556989954206268,19.7536536574101
-0.0582868919507817,19.7539852845779
-0.0603628090099833,19.7543394452089
-0.061944041025515,19.7547197582198
-0.0630449680230578,19.7551302662879
-0.0636785352842429,19.755575982658
-0.0638546987701787,19.7560632071695
-0.0635785604010598,19.7566000020275
-0.0628466903818795,19.7571977085547
-0.0616420825227662,19.757871866077
-0.0599282042147264,19.7586442970265
-0.0576310648963117,19.7595499743753
-0.0545849871901193,19.7606562883065
-0.0504794724935375,19.7620834389711
-0.0464745319472476,19.7634575029369
-0.0426322243212543,19.7647886567465
-0.0389857731181853,19.7660803844333
-0.0355522453294244,19.767334122373
-0.0323399680948241,19.7685502702239
-0.0293516691858317,19.7697287160046
-0.0265860410198357,19.770869112555
-0.0240386858590294,19.7719710220539
-0.0217028007357105,19.7730339880004
-0.0195697407641766,19.7740575652065
-0.0176295124363681,19.7750413239811
-0.01587121362227,19.7759848373443
-0.0142754431383636,19.7768923334109
-0.0127365157781352,19.7778228309601
-0.0112595293549821,19.7787774946661
-0.00984850241054185,19.7797582851253
-0.00850728637398328,19.7807674901632
-0.00723950976457764,19.7818078089544
-0.00604852769134766,19.7828824561221
-0.00493736906160816,19.7839953005657
-0.0039086816220604,19.7851510545635
-0.00296467460077494,19.7863555379144
-0.00210705821700461,19.787616057994
-0.0013369784600673,19.7889419763327
-0.000654943974102704,19.7903455905773
-6.07388268779087e-05,19.7918435835975
0.000445986335886794,19.7934570176602
0.000844591922594393,19.7951091185603
0.0011526637153592,19.7968183768592
0.00138524378459503,19.7986037287278
0.00155633362775602,19.8004899958192
0.00167924652504971,19.8025113687289
0.0017671141953499,19.8047184411662
0.00183373628317756,19.8071940513715
0.0018955626741429,19.8100978706859
0.00197903395798391,19.8138441082256
0.00208483590568315,19.8176672368801
0.00221305052301637,19.8214361159496
0.00236102647822544,19.8252013773518
0.00252496182121637,19.8290107262739
0.00270161593399966,19.8329018413161
0.00288905004357478,19.8369074797625
0.00308674260518927,19.8410583829234
0.00329545371372483,19.8453852428274
0.00351701036293609,19.8499200964169
0.00375413387362603,19.8546977075339
0.00401041368727805,19.859757006561
0.00429053126531426,19.8651424571999
0.0046004976095251,19.8708992761106
0.00491118469844039,19.8764189306074
0.00523442344727216,19.8818777550193
0.0055690578675852,19.8872069028176
0.00591978346788871,19.8924387114609
0.00628994809609912,19.8975796206283
0.00668355124032929,19.9026423814689
0.00710455118014011,19.9076343025145
0.00755717061839398,19.9125606503428
0.00804595277646584,19.9174243066902
0.00857590212553188,19.9222264281164
0.00915257920034796,19.926966576526
0.00978220504931144,19.9316430364325
0.0104717721298868,19.9362532705273
0.0112441075209153,19.9408795362738
0.012115270471362,19.9455277422239
0.0131059324667103,19.9502090394035
0.0142452497060343,19.9549507314482
0.0155797583465509,19.9598173408332
0.0172018139483578,19.9649756502992
0.0193980030120217,19.9710286923203
0.0211682395094325,19.975399572008
0.0230431091893373,19.9797704516958
0.0246254903147075,19.9834343762007
0.0259459418702703,19.9866453136105
0.0270546398593833,19.989653533592
0.0279415402790386,19.9925668839717
0.0285583605883272,19.9953435378434
0.0288711198885555,19.9976717689217
0.0289792538642497,20
