ecg,time
0.00322834901104643,15.001154003374
0.00365715095225867,15.003986312885
0.0041438224391307,15.0066347104029
0.00469684804004556,15.0091185377979
0.00532635706326477,15.0114565869881
0.00604083357419276,15.0136567546062
0.00682908081522877,15.0156812953273
0.00770064888006626,15.0175640550697
0.00867002370701235,15.019339033508
0.00975955020835033,15.0210420692255
0.0110081914019928,15.0227185925356
0.0125308783608297,15.0244804755099
0.0147083172593771,15.0266401649065
0.0163531082065071,15.0280914785384
0.0181090509627696,15.0295427921703
0.019728956097817,15.030843962926
0.0211664466959345,15.0320128150065
0.0224569636344212,15.0331194977168
0.0236050348246495,15.0342086131051
0.0245956483477309,15.0353182055042
0.0253958740880247,15.0364950674551
0.0259410091155852,15.037821981307
0.0260546947231922,15.0395484354965
0.0255874984097136,15.041161388089
0.0246597397098783,15.0427743406814
0.0235505525330844,15.0441980214253
0.0222899865499606,15.0455839684039
0.0208860177018457,15.0470011531092
0.0193489279014837,15.0484898871491
0.017685627263932,15.0500883401629
0.0159290218968078,15.0518462045444
0.0142503537013501,15.0536747272424
0.0128810671052535,15.0553049541292
0.0117474077512346,15.0567725505852
0.0107308765409882,15.0581998729868
0.0097648605822601,15.0596750412528
0.00879042503423547,15.0613069306198
0.00770537552728677,15.0633385770384
0.00654906268042922,15.0658330461284
0.00553770757293882,15.0684018688065
0.00471987613842525,15.0708560422635
0.00398795339918754,15.0734657381034
0.00332364771174534,15.0763363628224
0.00275845583917707,15.0793651070697
0.00228670241909689,15.0825793203832
0.00190469223672249,15.0860151603394
0.00161275601280446,15.0897169318765
0.00141780243031392,15.0937403724406
0.00133883040821549,15.0980985715909
0.00138506978133261,15.1019628721294
0.00153021606562034,15.1054396282147
0.00176056626085743,15.1085691947827
0.00206938712944119,15.1113994383287
0.00245470556904552,15.1139763457425
0.00291935445921604,15.1163486213685
0.00347117115971967,15.1185645552051
0.00412517381462756,15.1206755927161
0.00490768873575968,15.122740123735
0.00586790922293855,15.124837497992
0.00710335203600468,15.1270903851782
0.00879271399244034,15.1296685865239
0.0108995306476881,15.1323702792555
0.0129207708646511,15.134583009996
0.0147923865629041,15.1363652766048
0.0166938120502675,15.1379516145846
0.0187063688573028,15.1394198433487
0.0208869468663869,15.1408052109733
0.0232950575016369,15.1421316136227
0.0259646707592853,15.1434016328116
0.028949869037083,15.1446249615632
0.0322898433995941,15.145801851334
0.036041102426153,15.1469373487483
0.0402568715522758,15.1480331221844
0.0450018348468288,15.1490922085511
0.050350099565461,15.1501176185844
0.0563854026095049,15.1511120553373
0.0632093185842696,15.1520788965232
0.0709412679795924,15.1530214695238
0.0797242124051062,15.1539432638348
0.0897325475837144,15.1548481167043
0.101181142397954,15.1557402420591
0.114338040286786,15.1566243283715
0.129543513704656,15.1575057565098
0.147239891320622,15.1583909817123
0.168017950973462,15.1592880714486
0.192704690564665,15.1602079890197
0.221332190683038,15.1611310065412
0.254520027187249,15.1620623047905
0.293192190333797,15.1630142814875
0.338777541149449,15.1640103729359
0.377191707036825,15.1647805747281
0.417466325366341,15.1655507765203
0.453120841728617,15.1662259969974
0.484212352840924,15.1668338956165
0.511548899901475,15.1674108121725
0.535243043840562,15.1679817952546
0.554901270543948,15.1685704537816
0.569510720307572,15.1692088541409
0.576602834287378,15.1699562868951
0.572230110379311,15.1707198938475
0.555329262822101,15.1715215628368
0.524129086696607,15.1723810433769
0.479521335236825,15.1732563259789
0.419845609219311,15.174174337452
0.368580565311863,15.1748453565218
0.311817892544762,15.1755163755916
0.262540353786947,15.1760640044974
0.221368314304517,15.1765110277884
0.185762168972327,15.1768989781084
0.154162071572811,15.1772514263463
0.125685858340982,15.1775820458533
0.0997594100579888,15.1779002912103
0.0759366970080231,15.1782142694167
0.0537755861462357,15.1785331964369
0.0326197048847869,15.1788726672977
0.0104437702660368,15.1792838475584
-0.000598412976929632,15.1795197212404
-0.0081440315506452,15.1796974817199
-0.0150511961606977,15.1798752421994
-0.0210770249749859,15.1800449464705
-0.0272668216597247,15.1802371174131
-0.0333365781723318,15.1804480754488
-0.0390853836235109,15.1806750489623
-0.0443991343289284,15.1809168474666
-0.0492163599120294,15.1811733278501
-0.0535072786967723,15.1814450746094
-0.0572615163772867,15.1817332384541
-0.0604806901990596,15.182039471206
-0.0631695663055747,15.1823659239165
-0.0654043672010897,15.1827294296505
-0.0670202336979828,15.1831027812348
-0.0681477049107925,15.1835060963543
-0.0688011595322446,15.1839446772943
-0.0689906789840799,15.1844249787798
-0.0687210184881716,15.1849553113229
-0.0679876806096306,15.1855473983909
-0.0667712295470451,15.1862175047981
-0.0650299697192743,15.186988888796
-0.0626781024905963,15.1878998153472
-0.0595148783103595,15.1890280013148
-0.055315179766528,15.1904614084982
-0.0512066126209256,15.1918447158043
-0.0472532699704198,15.193187158942
-0.0434901821870539,15.1944916577641
-0.0399361243043781,15.1957592978704
-0.0366010952852036,15.1969902405083
-0.0334894196597355,15.1981841998807
-0.030601259811889,15.1993406956088
-0.0279335192963007,15.2004591850006
-0.0254805015453284,15.2015391289866
-0.0232344610374945,15.2025800194489
-0.0211860968764131,15.2035813826216
-0.019325002756045,15.2045427666067
-0.0176400738992242,15.2054637174801
-0.0160531390464563,15.2063835944683
-0.0145250165314821,15.2073270776785
-0.0130601274661002,15.2082957904927
-0.0116623719942519,15.2092918632822
-0.0103354455991833,15.2103177983118
-0.00908278456612619,15.2113765635396
-0.00790751144603097,15.2124717143503
-0.0068123775134368,15.2136075577708
-0.00579970175749193,15.2147893792053
-0.00487130527793945,15.2160237642063
-0.00402843882524406,15.2173190702622
-0.00327169917226105,15.2186861463884
-0.0026009260088454,15.2201394854875
-0.00201506249608016,15.2216991876204
-0.00152841783417395,15.2233316506027
-0.00113925221765693,15.2250127188151
-0.000831235065157022,15.226760716053
-0.000589582555215132,15.228597478392
-0.000400256908295522,15.2305523428947
-0.00024946441209742,15.2326672242454
-0.000122844333570175,15.2350073455454
-3.76985894215984e-06,15.2376881353788
0.000131913552434915,15.2409670581418
0.000295359305878782,15.2447110689682
0.000491510322178894,15.2487528663896
0.000744480608301527,15.2534899799993
0.00103046039847584,15.2585542514929
0.00129660843716387,15.2631892837834
0.00154469587636272,15.2675373163684
0.00178721035893835,15.2718527418912
0.00204040362237784,15.2764353960029
0.00231280001397845,15.2814358379134
0.00257739578971681,15.2863227570799
0.00285016510035737,15.2913544563292
0.00308197547179731,15.2955862296368
0.00329951159847188,15.2995060425507
0.0035137672440292,15.3033023750092
0.00373052521916125,15.3070649799073
0.00395390603773498,15.3108498413293
0.00418747460589467,15.3146984963735
0.00443469517394546,15.3186452773021
0.00469919997612283,15.3227209595564
0.00498502472577331,15.3269553672376
0.0052968145410678,15.331378753229
0.00564010089500372,15.3360230117566
0.00602174297501841,15.3409229807597
0.00644627282935945,15.3460657085469
0.0068868583374846,15.3510740806178
0.00735525077499141,15.3560519657196
0.00785130931471868,15.3609530031617
0.00838052023519343,15.3657854333803
0.00894836458082109,15.370548674778
0.0095616795116814,15.3752466243591
0.0102280792132356,15.3798816320693
0.0109667769767653,15.3845192315235
0.0117961135894331,15.3891875639498
0.0127348495400282,15.393893793903
0.013809432351789,15.3986618150921
0.0150598419108361,15.4035439600656
0.0165594114556032,15.4086692780597
0.0185002297931673,15.4144444804802
0.0203934525317044,15.4194493024949
0.0219761476723311,15.4233518176097
0.0235970261425366,15.4272543327245
0.024989746326017,15.4306944852381
0.0261622746743632,15.4338403714805
0.0271295215625043,15.43686844534
0.0278439881910209,15.4397638608952
0.0282924539883134,15.4425841817863
0.0284631686556762,15.445459457785
0.0283026789441766,15.4485900418747
0.0275881974051541,15.4525992150513
0.026740705081758,15.4555476496964
0.025672462904199,15.4584960843415
0.0245933785193399,15.4610864853291
0.0235186695179073,15.4634649542575
0.022443542756027,15.4657323201981
0.0213692205829032,15.4679384349232
0.0202990343342916,15.4701121992819
0.0192366968088233,15.4722729120076
0.0181858128851785,15.4744347377912
0.0171497472577375,15.4766088026031
0.0161315891883227,15.4788043362042
0.0151341517987129,15.4810293522319
0.0141599827773436,15.4832910837936
0.0132113707922046,15.4855962984346
0.0122903600249217,15.4879515147055
0.0113987575352224,15.4903631857267
0.0105381402080015,15.4928378557191
0.00970986664502453,15.4953822869269
0.00891508170407529,15.4980036013517
0.00814579534882031,15.5007424957386
0.00739040079993185,15.5036659223446
0.006652712559496,15.5067950899025
0.00593654919495519,15.5101552430029
0.00524599301683659,15.5137755224859
0.00458524565611809,15.5176897124193
0.00395850418074842,15.5219372526342
0.00336988401832012,15.5265647877068
0.00282321992246332,15.5316287658429
0.00232178170856906,15.5372003998637
0.00186807389658268,15.5433732305833
0.00146423395600131,15.5502653899799
0.00112525993812404,15.557692190522
0.000844400927087642,15.5657615394515
0.000615174116969001,15.5746193767024
0.000437433777168982,15.5846193767024
0.00034064132921756,15.5926381368291
0.000253170336590714,15.6026381368291
0.000192228209954411,15.6126381368291
0.000149953911493007,15.6226381368291
0.000121098195518661,15.6326381368291
0.000101819744774882,15.6426381368291
8.92801312198733e-05,15.6526381368291
8.1446862909355e-05,15.6626381368291
7.69130113075296e-05,15.6726381368291
7.47236049474771e-05,15.6826381368291
7.42335363903137e-05,15.6926381368291
7.50062140600587e-05,15.7026381368291
7.67467246330175e-05,15.7126381368291
7.92586056919834e-05,15.7226381368291
8.24152770886854e-05,15.7326381368291
8.61405656763937e-05,15.7426381368291
9.0395243447831e-05,15.7526381368291
9.51678273439836e-05,15.7626381368291
0.000100468510565207,15.7726381368291
0.000106325420038977,15.7826381368291
0.000112782622528399,15.7926381368291
0.00011989949173271,15.8026381368291
0.000127751208357264,15.8126381368291
0.000136430297147354,15.8226381368291
0.000146049218402153,15.8326381368291
0.000156744140355987,15.8426381368291
0.000168680139041872,15.8526381368291
0.000182058222313429,15.8626381368291
0.000197124778619088,15.8726381368291
0.000214184344032032,15.8826381368291
0.000233617018224124,15.8926381368291
0.00025590253236342,15.9026381368291
0.000281654033382255,15.9126381368291
0.000311666368793859,15.9226381368291
0.000346986518477574,15.9326381368291
0.000389018724470622,15.9426381368291
0.000439685548896147,15.9526381368291
0.00049950598077768,15.9623155395354
0.000567302828363646,15.9712610647566
0.000643960295926927,15.9795149002928
0.000730621240575813,15.9871307432091
0.000828607033664644,15.99415895983
0.000939420866943305,16.0006462413185
0.00106476657984537,16.0066358976305
0.00120657391669165,16.0121681306511
0.00136702995951843,16.0172802419749
0.00154861264680783,16.0220068343914
0.00175413236273191,16.026380026248
0.00198677933879411,16.0304296683141
0.00225018320422075,16.0341835234849
0.00254847923568484,16.0376674315531
0.00288639761715721,16.0409054991938
0.00326937396674644,16.0439203025402
0.00370369166670638,16.0467330749137
0.00419667518181359,16.0493639297485
0.0047569568730073,16.051832137265
0.00539485930374852,16.0541564556641
0.00611636329548009,16.0563373700556
0.00691244382010538,16.0583461363806
0.00779306423051959,16.0602165698761
0.00877329061860061,16.0619826484969
0.00987659474339603,16.0636807096482
0.0111445626453713,16.0653579473597
0.0127082456097039,16.0671404370063
0.0150144449426218,16.0693899779498
0.0166494716750983,16.0708123451404
0.0183834103701262,16.0722347123309
0.0199689026264676,16.0735072725257
0.0213814301858429,16.0746623402875
0.0226495651123525,16.0757636045572
0.0237739814705757,16.0768533918581
0.024737023564128,16.0779700981309
0.0255022015235739,16.0791636794466
0.0259962184245359,16.0805284425399
0.0259937307407754,16.0823919031679
0.0254361965944487,16.0839531136937
0.0244679341465465,16.0855143242195
0.0233308202069707,16.0869224913619
0.0220432293271829,16.0883104128598
0.0206141130426054,16.0897379675806
0.0190535215336888,16.0912438021924
0.0173672692518123,16.0928671789753
0.0160269640205235,16.0942130731437
0.0142078987231393,16.0961919636158
0.0128372550461566,16.0978283063221
0.0117089127728251,16.0992933638133
0.010695259197909,16.1007209224287
0.00973014169333231,16.1021994244364
0.00875422734167042,16.1038397192004
0.00766170395204613,16.1058949883437
0.00651077286412575,16.1083919730699
0.0055044366306782,16.1109634363624
0.00469066874251008,16.1134210082964
0.00396050449431822,16.1160429034521
0.00330015425870139,16.1189192212869
0.00273867248760857,16.1219545785641
0.00227042718794698,16.1251766887133
0.00189184844375483,16.1286219784299
0.0016034621432295,16.1323351258759
0.00141251018570764,16.1363724007585
0.00133862772364297,16.1407117378058
0.00138866897283746,16.1445617083482
0.00153698579398696,16.1480255557174
0.00177016546031057,16.151143845938
0.00208166425121938,16.1539643987455
0.00246966695300107,16.1565332473931
0.00293721646129785,16.1588993379376
0.00349225741094874,16.1611105459755
0.00415028753525922,16.1632191219063
0.00493848273293323,16.1652844200128
0.0059068436977909,16.1673857255785
0.00715463282890068,16.1696466538301
0.00886367624034139,16.1722383405784
0.0109834750651214,16.1749396018546
0.0129959341970184,16.1771299793249
0.0148657569031453,16.178901223572
0.0167705613735759,16.1804821240105
0.0187886464755894,16.1819465165751
0.0209772990258543,16.1833293328088
0.0233948522515252,16.1846533623403
0.0260757277800399,16.1859213378567
0.0290739367218091,16.1871427711454
0.0324289174169462,16.1883179407404
0.0361972043219421,16.1894518050342
0.0404327300044573,16.1905461547787
0.0451998351384608,16.1916038482048
0.0505733375752205,16.1926279809505
0.0566376509020629,16.1936212867517
0.0634947711199464,16.1945871069834
0.0712650597833987,16.1955287944288
0.0800926635413283,16.1964498596453
0.0901531557620963,16.197354130199
0.101663316035259,16.1982458469534
0.114893630082366,16.1991297219948
0.130187783503958,16.2000111728893
0.147992774116542,16.200896698443
0.168906655537839,16.2017944520141
0.193768595530829,16.2027155567897
0.222563712843642,16.2036387342683
0.255950626829895,16.2045705804126
0.294866133377333,16.2055237535311
0.340771805857757,16.2065224334043
0.379005059575207,16.2072866610576
0.41901771048397,16.2080508887109
0.454451210184094,16.2087222481039
0.485380964723977,16.2093282991419
0.51257256139654,16.2099045330305
0.536115255689599,16.2104757524976
0.555595386253301,16.2110656910682
0.569966137431356,16.2117070671971
0.576649130677853,16.2124546798417
0.571839635138222,16.2132193002763
0.554450090427412,16.2140227600364
0.522682168416081,16.2148846911102
0.477543326347852,16.2157610696339
0.417321126109125,16.2166801690007
0.366350041608862,16.2173436984543
0.310051412563556,16.2180072279078
0.261123364494886,16.2185502717759
0.220167695175742,16.2189948356046
0.184707601569604,16.2193813720577
0.153217516443834,16.2197329531115
0.124829700887601,16.2200630497642
0.0989762612383148,16.2203810373795
0.0752132062880457,16.2206950169274
0.0530961107229269,16.2210142949262
0.0319541120439986,16.2213548621269
0.00964424256340109,16.221770896693
-0.000918708280560678,16.2219977600214
-0.00842242346153479,16.2221751415313
-0.0152914878626155,16.2223525230412
-0.0213155111560487,16.2225227847786
-0.027505485758062,16.2227157483422
-0.0335658602306716,16.2229273651272
-0.039299527333611,16.2231549262085
-0.0445949549455696,16.2233972899942
-0.0493922161778501,16.2236543461803
-0.0536624679000335,16.2239267033988
-0.0573959148809783,16.2242155324684
-0.0605945314347398,16.2245225042308
-0.0632628103255174,16.2248497897105
-0.065464878750162,16.2252119846851
-0.0670644862002187,16.2255862234373
-0.0681763134867167,16.225990600752
-0.0688145152363617,16.2264304310442
-0.0689890332534738,16.2269122199204
-0.068704407984131,16.2274443501401
-0.0679557246105768,16.2280387012359
-0.0667229912272672,16.2287116871067
-0.0649635306213465,16.2294868980104
-0.0625894056454543,16.2304033300456
-0.0593932124385397,16.2315409884747
-0.0551952338618017,16.2329725806963
-0.0510904175731336,16.2343546547438
-0.0471421799320235,16.2356959834352
-0.0433849039529059,16.2369994166827
-0.0398370435026354,16.2382660044805
-0.0365084041639707,16.239495890458
-0.0334031747712299,16.2406887807322
-0.0305214134949097,16.2418441918633
-0.0278599408501091,16.2429615806808
-0.0254129941028228,16.2440404088309
-0.0231727764096731,16.245080169271
-0.021129949032271,16.2460803891311
-0.019274080127677,16.2470406168565
-0.0175940504249063,16.2479603980319
-0.01600871585504,16.2488809349034
-0.0144823400194631,16.2498251103514
-0.0130193109995069,16.2507945716841
-0.0116235239537477,16.2517914587154
-0.0102986677138661,16.252818285587
-0.00904817039967349,16.2538780351423
-0.0078751447995112,16.2549742816666
-0.00678233073892244,16.2561113565628
-0.00577203396033334,16.2572945772674
-0.00484606036153451,16.2585305723917
-0.00400564329124857,16.2598277589404
-0.00325135950788839,16.2611970710901
-0.0025830253303485,16.2626531290858
-0.00199955575668581,16.2642162346927
-0.00151595923272977,16.2658498276156
-0.00112933355058829,16.267532558225
-0.000823419204469395,16.2692827660161
-0.000583459023568023,16.2711224582308
-0.000395430169154401,16.273081244937
-0.000245536180851333,16.2752015187087
-0.000119382040226867,16.2775494401341
-2.30097402448889e-07,16.2802426522214
0.000136478825830914,16.2835460857801
0.000300485770332573,16.2872927321479
0.000497955217344674,16.2913490974332
0.000753022306390668,16.2961145645609
0.00104002914623392,16.3011917986045
0.00130545898876102,16.3058140200869
0.00155314028238596,16.3101568033433
0.0017957129248357,16.3144757770397
0.00204971034684039,16.3190756158279
0.0023215301804589,16.3240670883431
0.00258610193744611,16.3289540159924
0.00285944939676668,16.3339955104063
0.00309046477094499,16.3382107636046
0.00330773292203224,16.3421234289856
0.00352199558292608,16.345917132679
0.00373893771188083,16.3496796909933
0.00396264481174601,16.353466291927
0.00419667187695625,16.3573181023238
0.00444448544857557,16.3612692654589
0.00470972922748868,16.3653504808826
0.00499645817235312,16.3695915646893
0.00530934555603681,16.3740228106357
0.00565396422511618,16.3786762014288
0.00603723630228762,16.3835867125276
0.00646230480115734,16.3887240966263
0.00690390930647379,16.393731899745
0.00737326231703468,16.3987069179418
0.00787047133701114,16.4036054098784
0.00840101361803425,16.408435179267
0.00897043111254919,16.4131959308505
0.00958558818159652,16.4178914917528
0.0102541313734812,16.4225241790325
0.0109959802018848,16.4271632406018
0.0118290025256023,16.4318326655896
0.0127722750178799,16.436540682382
0.0138525739878104,16.4413117479408
0.0151106331207352,16.4461998928213
0.0166218575106483,16.4513389846781
0.0185877596669486,16.4571578205469
0.0204563932839951,16.4620787184757
0.0220334163197207,16.4659607843255
0.0236458301715206,16.4698428501753
0.0250306714595199,16.4732694883287
0.026196552862644,16.4764091870691
0.0271570798431141,16.4794358018862
0.0278628308665492,16.4823269843553
0.0283025553569324,16.4851468960431
0.0284636362667859,16.4880266381636
0.0282904180065806,16.4911712581964
0.0275456488596709,16.4952420210465
0.0266932185814003,16.4981622512464
0.0256266932593359,16.5010824814463
0.024548445620637,16.5036596480439
0.0234738004743756,16.5060318811527
0.0223986614070988,16.5082958936589
0.0213244411291413,16.5105001655225
0.0202545093702923,16.5126730412149
0.0191925802983712,16.5148335401224
0.0181422503787848,16.5169956673712
0.0171068730592707,16.5191704513922
0.0160895261690901,16.52136705934
0.0150930113875655,16.523593465002
0.0141198655393063,16.5258568762578
0.0131723668137787,16.5281640463112
0.0122525491285978,16.5305214881312
0.0113622101864283,16.5329356546643
0.0105029173187071,16.5354130973057
0.00967602016132704,16.5379605903579
0.00888265485439305,16.5405852736619
0.00811387462021705,16.5433315070229
0.00735914685106852,16.5462630840577
0.00662228093511594,16.549401389013
0.00590710416403691,16.5527718167601
0.00521771143607705,16.5564036861175
0.0045583028204097,16.5603309952903
0.00393307513082476,16.5645934497499
0.00334613629412841,16.5692380442769
0.00280130419049471,16.5743217193308
0.00230181914031061,16.5799164545171
0.0018501515083748,16.5861169342422
0.00144911829559243,16.5930290252592
0.00111266045535178,16.6004797175282
0.000834039698339106,16.608578233796
0.000606797668792436,16.6174720881409
0.00043213219011516,16.6274720881409
0.000335823014912053,16.6355792643384
0.000249807173163279,16.6455792643384
0.000189869305623609,16.6555792643384
0.000148324009295706,16.6655792643384
0.000119997484725004,16.6755792643384
0.000101095286945535,16.6855792643384
8.88186302089773e-05,16.6955792643384
8.11685121919103e-05,16.7055792643384
7.67635336523149e-05,16.7155792643384
7.46665480610139e-05,16.7255792643384
7.42443539253991e-05,16.7355792643384
7.50683018027784e-05,16.7455792643384
7.68489105223865e-05,16.7555792643384
7.93935424809989e-05,16.7655792643384
8.25783665438866e-05,16.7755792643384
8.6329213607766e-05,16.7855792643384
9.06083424828342e-05,16.7955792643384
9.54054073390764e-05,16.8055792643384
0.00010073151461711,16.8155792643384
0.000106615574655208,16.8255792643384
0.000113102379538359,16.8355792643384
0.00012025202764303,16.8455792643384
0.000128140473747251,16.8555792643384
0.000136861114449726,16.8655792643384
0.000146527431559243,16.8755792643384
0.000157276825117692,16.8855792643384
0.000169275888901141,16.8955792643384
0.000182727533241039,16.9055792643384
0.000197880567213592,16.9155792643384
0.00021504265050267,16.9255792643384
0.000234597971094462,16.9355792643384
0.000257031691467809,16.9455792643384
0.000282964291167711,16.9555792643384
0.000313200694036703,16.9655792643384
0.000348802002142691,16.9755792643384
0.000391192692863149,16.9855792643384
0.000442325058655998,16.9955792643384
0.000502502157267849,17.0052216226938
0.000570691266143183,17.0141334613538
0.000647790673234341,17.0223561983438
0.000734951682242497,17.0299433910621
0.000833503894313372,17.0369452269602
0.000944959391036401,17.0434082318334
0.00107103198744508,17.0493755641182
0.0012136627301947,17.0548872856146
0.00137505161371186,17.0599805666327
0.00155769109602108,17.0646898886174
0.00176440834439751,17.0690472587938
0.00199841271084478,17.0730824264949
0.00226335596477693,17.076823060514
0.00256339916375108,17.0802949149342
0.00290330277778856,17.0835220202558
0.0032885388198031,17.0865268853797
0.00372543463947007,17.0893306857457
0.0042213692959108,17.0919534886746
0.004785044842008,17.0944145323353
0.00542687525393368,17.0967325609016
0.00615166673855254,17.0989046728819
0.00695141792197818,17.1009062402075
0.00783628953898308,17.1027710684244
0.00882162907358864,17.1045331385119
0.00993146062943986,17.1062290454635
0.0112086775742285,17.1079068760551
0.01279238816226,17.1096997218445
0.0151678167854286,17.1119985345016
0.0167947914955455,17.1134045322034
0.0185143987078128,17.1148105299053
0.0200838959261146,17.1160702644803
0.021484599364971,17.1172192444902
0.0227418600396385,17.1183182532923
0.0238546230407193,17.1194087082912
0.0248039473360668,17.1205293056426
0.0255514804365491,17.1217317846572
0.0260191007848631,17.123117101978
0.025948392384711,17.1250659852968
0.0253429001887098,17.1266053918451
0.0243498524110823,17.1281447983935
0.0231951987850227,17.1295466701635
0.0218912343989937,17.1309368154779
0.0204469772704534,17.1323712990084
0.0188721824932915,17.1338881583455
0.0177294779964201,17.1349864779311
0.0166134240842773,17.1360847975166
0.0154581315208855,17.1372822641429
0.0138460231562616,17.1390814324733
0.0125572548925903,17.1406519770862
0.011463862108738,17.1420989856997
0.010466665980916,17.1435307110754
0.00950480043072038,17.1450350514759
0.00851485576760393,17.1467392342746
0.00735776185661099,17.1489878248514
0.00624379989882713,17.1515040634074
0.00530073348743034,17.1540125053447
0.00451638501695244,17.1564759490234
0.00379657426128918,17.1591745599321
0.00315993775573081,17.1620860568281
0.00262077250998337,17.1651622056692
0.00217372629114183,17.1684330280918
0.00181603382540289,17.1719366500833
0.00154949160710661,17.1757201080138
0.00138354256500968,17.1798430443116
0.00134022246358203,17.1840658853646
0.00141348074246704,17.1878270321828
0.00158134166148498,17.1912106769662
0.00183212960167919,17.1942592920972
0.00216060376832655,17.1970214055733
0.00256574016583943,17.1995414376095
0.00305167501966579,17.2018690756654
0.00362782119569038,17.2040531348183
0.00431158814210076,17.2061463729197
0.00513424977055032,17.2082121642879
0.00615345183382318,17.2103363352409
0.00748530140804835,17.212656483674
0.0093194927275548,17.215330253619
0.0109675251826523,17.2173910926083
0.0128502276510325,17.2194519315976
0.0147215125795291,17.2212428409405
0.0166179704734899,17.2228331882535
0.0186174587533166,17.2243000250857
0.0207976793264409,17.2256931857752
0.0231925796501364,17.2270199566265
0.0258530484594881,17.2282931847392
0.0288228361646396,17.2295175373399
0.0321503614063295,17.2306971746506
0.0358830657939548,17.2318339067379
0.0400803015964716,17.2329314924386
0.0448024605906326,17.2339918750086
0.0501246532952696,17.2350184640414
0.0561316550505242,17.236014207294
0.0629218779036993,17.2369820478622
0.0706149516653336,17.2379254900682
0.0793531924351989,17.2388480557673
0.089309184505464,17.2397535164386
0.100695732587722,17.240646052343
0.11377870621942,17.2415303534455
0.128895368430708,17.2424117856459
0.146482784704547,17.2432967231861
0.167124550731777,17.2441931549447
0.191635750514752,17.2451118936729
0.220094935201654,17.2460347631999
0.25308309074244,17.2469655305562
0.291511589329848,17.2479163374473
0.336777677984108,17.2489099030352
0.375392383946213,17.2496865583577
0.415951039787009,17.2504632136801
0.451825831754949,17.251142335364
0.483075255250791,17.2517520832566
0.510552109959401,17.252329699677
0.534392104210029,17.2529004913487
0.554221065019361,17.2534879605386
0.569057926093335,17.2541235728061
0.576541818645393,17.2548705650705
0.572592173709819,17.2556332179032
0.556163951463202,17.2564331730902
0.525512307793592,17.2572902930391
0.481414892812187,17.2581645907513
0.422276655983536,17.2590814291359
0.370728295185919,17.2597597881887
0.313514033432496,17.2604381472416
0.263897176099133,17.260990248485
0.222516062070742,17.2614396597514
0.186769494744024,17.2618289776684
0.155063933854601,17.2621822637828
0.126503097321346,17.262513389685
0.100506782989902,17.2628318878775
0.0766269158287996,17.2631458731928
0.0544233742695317,17.2634644795275
0.0332528829617193,17.2638029428413
0.0111927298611367,17.2642098016247
-0.000358790357169162,17.2644553929554
-0.00793563204549485,17.2646334332767
-0.0148711984953688,17.2648114735981
-0.0209188609836888,17.2649813659058
-0.0271088767551428,17.2651730268976
-0.0331846856261819,17.2653835480083
-0.0389434026269048,17.2656101324347
-0.0442692116087165,17.2658515574177
-0.0490996056959382,17.2661076579194
-0.0534041731057027,17.2663790023568
-0.0571721507818391,17.2666667280887
-0.0604049158821865,17.2669724743173
-0.0631074119957855,17.2672983789914
-0.0653641248510921,17.2676627748616
-0.0669907080478199,17.2680355453127
-0.0681284861219909,17.2684381641932
-0.0687919883266935,17.2688759264355
-0.0689913868818517,17.2693552535585
-0.0687315767982494,17.2698844089718
-0.0680083316613164,17.2704750144097
-0.0668025778965439,17.2711432381343
-0.0650732548917629,17.2719121236945
-0.0627359380281129,17.2728194663981
-0.0595940956812004,17.2739415327347
-0.0553933110882705,17.2753761398889
-0.0512823287342991,17.2767602531113
-0.0473256737353389,17.2781034234844
-0.0435588065935853,17.2794086169776
-0.0400007145670989,17.2806769427482
-0.0366615238110587,17.2819085737147
-0.0335456479016702,17.2831032294495
-0.0306533174512244,17.2842604316207
-0.0279814904694627,17.2853796378743
-0.0255245136050916,17.2864603086841
-0.0232746750283918,17.2875019352317
-0.0212226987343782,17.2885040431613
-0.0193581952232867,17.2894661803398
-0.0176700693191903,17.2903878931484
-0.0160820922308608,17.2913073401395
-0.01455283185782,17.2922503723541
-0.0130867309149721,17.2932185975727
-0.0116876927760312,17.2942141400351
-0.0103594172427892,17.2952394942942
-0.00910534590606387,17.2962976186462
-0.00792860766179431,17.2973920562116
-0.00683196123108196,17.2985270982059
-0.00581773422366083,17.299708009267
-0.00488775763087501,17.3009413470477
-0.00404329352473705,17.3022354305022
-0.00328495170205254,17.3036010535573
-0.0026125870549176,17.3050526268381
-0.00202516104153763,17.3066101202846
-0.00153652269988991,17.3082418535068
-0.00114569569226752,17.309921845775
-0.000836302555389076,17.3116684119245
-0.000593541952999974,17.3135032776051
-0.000403366159451466,17.3154556041175
-0.000251982927340735,17.3175669991437
-0.000125053206075614,17.3199020855344
-6.02052324376323e-06,17.3225748821391
0.000129015261995056,17.3258381579888
0.000292107119866507,17.329580602502
0.000487412298639816,17.3336131115256
0.000739042438002394,17.3383322232183
0.00102437192027053,17.3433884648965
0.00129098273134433,17.3480318359236
0.00153933554239111,17.3523833623098
0.00178182233922925,17.3566967103158
0.00203452430760425,17.3612688114568
0.00230729909571036,17.3662751601793
0.00257192040398187,17.3711622482776
0.00284433614746724,17.3761879533886
0.00307666149049304,17.3804303828597
0.00329437245424038,17.3843547924754
0.00350862764340034,17.3881528329264
0.00372527325606846,17.3919155078559
0.00394845242923959,17.3956993117337
0.00418173659707101,17.3995460183978
0.0044285887872722,17.4034900811758
0.004692634224574,17.4075623246964
0.00497789673489097,17.4117925790748
0.00528900402701001,17.4162110724889
0.00563146202697639,17.4208496448737
0.00601209107499729,17.4257430488384
0.0064362846499218,17.4308890974398
0.00687623494371018,17.4358978047728
0.00734402979361659,17.44087747245
0.00783937317251302,17.4457800955221
0.00836775705368604,17.4506141882265
0.00893462417855792,17.4553789861244
0.00954679459141935,17.4600784284398
0.010211862267658,17.4647148853662
0.0109486028004638,17.4693515746254
0.011775651079321,17.4740192329287
0.0127115719772215,17.4787243623842
0.0137826121223959,17.483490517121
0.0150282927299539,17.4883689984369
0.016520698970457,17.4934859543841
0.0184463739021034,17.4992351013843
0.0208571644320256,17.5055528292934
0.0223810050382235,17.5092698332141
0.0239232128687222,17.5129868371347
0.0252625079076252,17.5163382173363
0.0263901462533895,17.5194454336823
0.027311428488673,17.522466284831
0.0279665890403749,17.5253355069923
0.0283550965314438,17.528155798438
0.0284589023603228,17.5310657152848
0.028207477254195,17.5343034166545
0.0272781499379505,17.5387210356642
0.0263974023462128,17.5414963779196
0.0253367668542959,17.5442717201749
0.0242618960998432,17.546776314886
0.0231873731096212,17.5491127331951
0.0221122409724221,17.5513572056451
0.0210388267787405,17.5535508278731
0.0199706832301352,17.5557187903428
0.0189115178929762,17.5578784874085
0.0178648688590613,17.5600429841844
0.0168340181779852,17.5622227269741
0.0158219688463813,17.5644265138388
0.0148314517464524,17.5666620776022
0.013864933426501,17.5689364804346
0.0129246261467519,17.5712563920356
0.0120125013324487,17.573628290211
0.0111302931493832,17.576058643635
0.0102795095839516,17.5785540521977
0.00946144472187618,17.5811213686327
0.00867717882979164,17.5837678537431
0.00791175814930038,17.5865614760809
0.00716141956648274,17.5895457002914
0.0064299383548352,17.5927430567826
0.00572120510584916,17.5961799098912
0.00503937454326047,17.5998867514511
0.00438864227891426,17.6038989773915
0.00377319770264853,17.6082580444439
0.0031970917659001,17.6130132892625
0.00266402482791147,17.6182249741603
0.00217704108756656,17.6239702777718
0.00173839635713049,17.6303515475363
0.00135500159567457,17.6373949034853
0.00103435484555949,17.6450030301711
0.000769794297142323,17.6532940151574
0.000555786050506671,17.6624260441726
0.000433646517041472,17.6699723766078
0.000318562161270674,17.6798467226577
0.000237593789810776,17.6898467226577
0.000181213928815411,17.6998467226577
0.000142325760941531,17.7098467226577
0.000115958376363157,17.7198467226577
9.84525140573907e-05,17.7298467226578
8.71474020395688e-05,17.7398467226578
8.01705538672896e-05,17.7498467226578
7.62383737876711e-05,17.7598467226578
7.44810050303398e-05,17.7698467226578
7.43092065270123e-05,17.7798467226578
7.5323203956968e-05,17.7898467226578
7.7253206484755e-05,17.7998467226578
7.99205209956188e-05,17.8098467226578
8.32114153687459e-05,17.8198467226578
8.70591238454117e-05,17.8298467226578
9.1431417568216e-05,17.8398467226578
9.6322182123169e-05,17.8498467226578
0.000101745940363242,17.8598467226578
0.000107734555640328,17.8698467226578
0.000114335577856991,17.8798467226578
0.000121611883419657,17.8898467226578
0.000129642414537949,17.8998467226578
0.000138523949709365,17.9098467226578
0.000148373947767747,17.9198467226578
0.000159334617534622,17.9298467226578
0.000171578490280013,17.9398467226578
0.000185315932100513,17.9498467226578
0.000200805253823873,17.9598467226578
0.000218366395870681,17.9698467226578
0.000238399646324247,17.9798467226578
0.000261411594412205,17.9898467226578
0.000288051703078861,17.9998467226578
0.000319164809933075,18.0098467226578
0.000355868091259381,18.0198467226578
0.000399666589519991,18.0298467226578
0.000452631330817515,18.0398467226578
0.000514201653739542,18.0493553716295
0.000583922685067942,18.0581386874314
0.00066274831201267,18.0662427804496
0.000751862623126742,18.0737206750976
0.000852627285446924,18.0806218767708
0.000966589131029679,18.0869922809835
0.00109550095036411,18.0928744682676
0.00124134797812465,18.0983079649291
0.00140638059868056,18.1033294400721
0.00159314807201188,18.1079729122416
0.00180454311711603,18.1122699652737
0.00204385006297696,18.1162499614661
0.0023148071818385,18.1199402106813
0.00262167681089263,18.1233661408705
0.00296933832844259,18.1265514934927
0.00336340674939329,18.1295185221942
0.00381038293037187,18.1322881841725
0.00431786171141374,18.1348803751066
0.00489482141796841,18.1373142164543
0.00555204029551299,18.1396084081047
0.00628970502503678,18.1417472600411
0.00710386908631664,18.1437217069016
0.00800549234925631,18.1455655458239
0.00901108966257317,18.1473128522389
0.0101470166071534,18.1490013885952
0.0114618421790824,18.1506832035732
0.0131300104195238,18.1525216507341
0.0156862628105922,18.1549288002784
0.0172823311014674,18.1562802558473
0.0189503576962288,18.1576317114161
0.0204691447824519,18.1588530251164
0.0218306442091869,18.1599839366237
0.0230506201730866,18.16107702678
0.0241226811792996,18.1621714749981
0.0250234044043225,18.1633076652403
0.0257072325539669,18.1645449013612
0.0260751148563595,18.1660140829261
0.0257813836188077,18.1680950532925
0.0250623276690407,18.1695707405885
0.0240173289073409,18.1710464278846
0.022816996454993,18.1724358923511
0.0214693888479763,18.1738349727084
0.0199846468074126,18.1752905470527
0.0183715871396343,18.1768398445909
0.0173203964881282,18.1778539985347
0.0163048158786486,18.1788681524784
0.0144313848000885,18.1808791347046
0.0130092746425467,18.1825561181516
0.0118573037395802,18.184034942285
0.0108322699973986,18.1854622054615
0.00986373238303151,18.1869281424469
0.00889364986889364,18.1885364100753
0.00782931108353367,18.1905033934863
0.00665782947201019,18.1929910779473
0.0056323319143781,18.1955527543213
0.00480240916068948,18.1979997304353
0.00406546952589595,18.2005766775275
0.00339012745504182,18.2034318964201
0.00281458702271368,18.2064427231267
0.00233305492795882,18.209635533601
0.00194149771023728,18.2130457641568
0.00163972074112375,18.2167167195508
0.0014337436086662,18.2207027127016
0.00134069752596299,18.2250739053606
0.00137527784646095,18.2289843596159
0.0015107422892085,18.2325004743605
0.00173248552438089,18.2356645772343
0.00203312756236643,18.2385241370738
0.00241017198450823,18.2411249895183
0.00286612721191805,18.2435168272509
0.00340814988892232,18.2457471544772
0.00405010835883775,18.2478661813048
0.00481733553291069,18.2499328724642
0.00575571486126279,18.2520229755132
0.00695461081763952,18.254250925391
0.00858643325471813,18.2567888890454
0.010654353616035,18.2594906440964
0.0122600626315744,18.26130683821
0.014076585381216,18.2631230323236
0.0159536105666916,18.2647706244426
0.0179097332533432,18.2662741736551
0.0200203849737801,18.2676895933603
0.0223363883964352,18.2690382650092
0.0248972369492965,18.270328021604
0.02775613975393,18.2715695178746
0.0309514786942481,18.2727633532247
0.0345379439641038,18.2739147987332
0.0385670400061405,18.2750256509677
0.0430990516763333,18.2760985722657
0.0482048122134977,18.2771367245743
0.0539630168574084,18.2781427161619
0.0604689121960175,18.2791198612416
0.0678341528710113,18.2800714313548
0.0761916610241318,18.2810008193225
0.0857029076885193,18.2819117462474
0.0965658920988654,18.2828082752949
0.109026090994792,18.2836948791154
0.123392909738303,18.284576631144
0.140065155137993,18.2854595390806
0.159568704858529,18.2863509417703
0.18262428331735,18.2872604498078
0.209669591961778,18.2881825556188
0.240985088539045,18.2891094592789
0.277386979408163,18.2900514459217
0.320048846596754,18.2910262235209
0.371125258877883,18.2920738463435
0.406702980635208,18.2927589305233
0.442934523255674,18.2934440147032
0.475230471933792,18.2940666518725
0.503662707761444,18.2946499595857
0.528477729580117,18.295220346071
0.549428468565508,18.2958009064195
0.565726952006111,18.2964197555333
0.575540257791478,18.2971270445423
0.574941355971042,18.297883022582
0.562228763769281,18.2986701463498
0.535867738934648,18.2995090749198
0.495664534340808,18.3003784893246
0.440953735879998,18.3012830528428
0.374033840336852,18.3021893646309
0.327878934015859,18.3027439530619
0.278705566265865,18.3032985414929
0.23534055212482,18.3037715507162
0.198003639704939,18.3041768203497
0.16509560932272,18.304540051137
0.135576487031511,18.3048772660354
0.108791129632241,18.3051989930554
0.0842624142530074,18.3055135615174
0.0615624140458838,18.3058294402167
0.0401552896519101,18.3061588422906
0.0188462473769419,18.306531575451
0.00949063105632274,18.3067151646322
0.000870231823658203,18.3068987538134
-0.00860639629551824,18.3071208232798
-0.0155460299491797,18.3073005498982
-0.0215904541336544,18.3074720709963
-0.0277806902405682,18.3076659604226
-0.0338298852688261,18.307878333633
-0.039545868614777,18.3081065713332
-0.044820030012321,18.3083495878942
-0.0495941874627496,18.3086073103287
-0.0538405596723866,18.3088803748637
-0.0575500067827334,18.3091699754501
-0.0607249053550975,18.3094778047604
-0.0633694210677404,18.3098060570372
-0.0655342234114787,18.310166773534
-0.0671150203688648,18.3105420467414
-0.068208740500567,18.3109476618842
-0.0688292841183511,18.3113889485968
-0.0689864286803108,18.3118724721085
-0.0686844621355701,18.3124066999556
-0.0679179773963305,18.3130036948436
-0.0666663291089407,18.3136800471335
-0.0648856762212723,18.3144597408577
-0.0624855235497999,18.3153826469956
-0.0592503619136498,18.3165315586127
-0.0550544877934206,18.3179610589887
-0.0509541473113878,18.319341689868
-0.0470119414272544,18.3206817119238
-0.0432615119487433,18.3219838942417
-0.0397209423146596,18.3232492458331
-0.036399813823785,18.3244778900837
-0.0333021573721174,18.3256695238509
-0.030427909585689,18.3268236602235
-0.0277737941080882,18.3279397555295
-0.0253339710875141,18.3290172722803
-0.023100583847417,18.330055704697
-0.0210642497195388,18.3310545809467
-0.0192145072767576,18.3320134498515
-0.017540220643986,18.3329318563832
-0.015956766246023,18.3338531683972
-0.0144324418946841,18.334798157194
-0.0129715970561378,18.3357684981619
-0.0115781209941107,18.3367663422575
-0.0102556946883653,18.3377942176403
-0.00900773662706049,18.3388551247282
-0.00783734809359378,18.339952660132
-0.00674725542746837,18.3410911840628
-0.00573974877310214,18.3422760518372
-0.00481661613307235,18.3435139430269
-0.00397907036891009,18.3448133451409
-0.0032276646651445,18.3461852933627
-0.00256218779497193,18.3476445592069
-0.0019815215222599,18.3492116845396
-0.00150148510000415,18.3508466203392
-0.00111782511341037,18.3525313211771
-0.000814364195492069,18.3542841480098
-0.000576376101837866,18.3561273118235
-0.000389855005442036,18.3580907485342
-0.000241000383525822,18.3602174227496
-0.000115375263958903,18.362574622224
3.89296499495647e-06,18.3652826729359
0.000141862377760769,18.3686157026821
0.000306562346220055,18.3723658074445
0.0005056186826368,18.3764397890962
0.000763219836156899,18.3812397411686
0.00105148562880151,18.3863332311059
0.00131607440391463,18.3909405712945
0.00156328857081238,18.3952774502034
0.00180595603777078,18.3996011427751
0.0020609720801068,18.4042225925557
0.00233213072957205,18.4092038192721
0.002596701125004,18.414091209329
0.00286757058719993,18.4190855182403
0.00309781231735954,18.4232852464976
0.00331485146425488,18.4271918966277
0.00352912421698243,18.430983432269
0.0037462291432792,18.4347460116747
0.00397022219625786,18.4385341642756
0.00420465059922032,18.4423887557339
0.00445298177473331,18.446343749059
0.00471887004982439,18.450429789511
0.00500638726750643,18.4546766880985
0.00532023136093297,18.4591147750232
0.00566601143559361,18.4637761099655
0.00605070493530092,18.4686957889552
0.00647624527908516,18.4738285634487
0.00691874128286001,18.4788359005322
0.00738894026082594,18.48380850502
0.00788715869095379,18.4887048261867
0.0084188676861712,18.4935323126718
0.00898965889167601,18.4982908933989
0.00960642551931363,18.5029843810286
0.0102768408859237,18.5076150518561
0.0110214435323681,18.5122553874962
0.0118576885320788,18.5169257744604
0.01280493016314,18.5216353681667
0.0138902375757542,18.5264091346813
0.0151550191401759,18.5313026275039
0.016676556266331,18.5364540801918
0.0186651358197759,18.5423128575707
0.020513266302494,18.5471634262811
0.0220850374709892,18.5510269351846
0.0236896905518744,18.5548904440882
0.025067467793247,18.5583051310299
0.0262273538593878,18.5614393905998
0.0271817910834735,18.5644648046091
0.0278796562264663,18.5673522707627
0.028311450807485,18.5701719304623
0.0284637574646548,18.573055892291
0.028278846294379,18.5762136815823
0.0275050789388121,18.5803444184697
0.0266480631892116,18.5832392699335
0.0255829354641169,18.5861341213973
0.0245053941847896,18.5886991406037
0.0234307955916672,18.5910655664916
0.0223556473551805,18.5933264411094
0.0212815305824811,18.5955289913071
0.020211849005404,18.5977010453676
0.0191503174279344,18.5998613615434
0.0181005240684685,18.6020237952126
0.0170658115678974,18.6041992830473
0.0160492467780412,18.6063969333076
0.0150536204541273,18.6086246822232
0.0140814589996556,18.6108897140396
0.0131350305945039,18.6131987685408
0.0122163593653142,18.6155583535565
0.0113272340010843,18.6179749222614
0.0104692127312669,18.6204550330458
0.00964363659482777,18.6230054720336
0.00885163340739062,18.6256333963313
0.00808334310011694,18.628386686609
0.00732925944308275,18.6313261016012
0.00659318688401836,18.6344731947607
0.00587896103311527,18.6378535057506
0.00519068877992873,18.641496525023
0.00453256851710256,18.6454364574453
0.00390879658201958,18.6497132653768
0.00332347335575165,18.6543742834672
0.00278040020159388,18.6594769305815
0.00228278880334101,18.6650939334946
0.00183307685210038,18.6713210879452
0.00143472311501871,18.6782524433558
0.00110066732142657,18.685726230861
0.000824183123765994,18.6938529522331
0.00059883538570557,18.7027816543526
0.000433760881426862,18.7123328133885
0.000334142459281269,18.72071142908
0.000248561206741833,18.73071142908
0.000188940790017873,18.74071142908
0.000147663395015484,18.75071142908
0.000119551228950114,18.76071142908
0.000100806039959921,18.77071142908
8.86376826633869e-05,18.78071142908
8.10609574018643e-05,18.79071142908
7.67065988002684e-05,18.80071142908
7.46457445935752e-05,18.81071142908
7.4250248399576e-05,18.82071142908
7.50945411372226e-05,18.83071142908
7.68911664164462e-05,18.84071142908
7.94489304597906e-05,18.8507114290801
8.26450727428979e-05,18.8607114290801
8.64062227588919e-05,18.8707114290801
9.06952366007561e-05,18.8807114290801
9.55022247058326e-05,18.8907114290801
0.000100838659035147,18.9007114290801
0.000106733763832843,18.9107114290801
0.000113232623083457,18.9207114290801
0.000120395628298825,18.9307114290801
0.000128299048668247,18.9407114290801
0.000137036635913459,18.9507114290801
0.000146722288682234,18.9607114290801
0.000157493910280893,18.9707114290801
0.000169518715105743,18.9807114290801
0.000183000391943615,18.9907114290801
0.000198188740888126,19.0007114290801
0.000215392701088732,19.0107114290801
0.000234998135981331,19.0207114290801
0.000257492435023635,19.0307114290801
0.000283499085997125,19.0407114290801
0.000313827149136783,19.0507114290801
0.000349543527718109,19.0607114290801
0.00039208101793917,19.0707114290801
0.000443404145227262,19.0807114290801
0.000503727091507396,19.090339559652
0.00057207659605499,19.0992377218369
0.000649356722548592,19.1074478331004
0.000736722222192406,19.1150233941605
0.000835506059098486,19.1220145198825
0.000947223951251766,19.1284676689622
0.00107359379358481,19.1344259383427
0.0012165612559621,19.1399293329342
0.00137833161230379,19.1450149697475
0.00156140326068248,19.1497172809744
0.00176861023223445,19.1540682287494
0.00200316970678142,19.1580975212355
0.00226874250898708,19.1618327890287
0.0025695002572102,19.1652997514462
0.00291021582517113,19.1685224081205
0.00329637613599602,19.1715232407005
0.00373432657283575,19.1743234012127
0.00423146859770206,19.1769429383948
0.00479653288739508,19.1794010775836
0.00543997101743208,19.1817165575508
0.00616610786784307,19.1838851053439
0.00696736240357856,19.185883760329
0.00785397691762339,19.1877463249945
0.00884141597729776,19.1895067840545
0.00995393462188093,19.1912018425987
0.011234977042641,19.1928799660843
0.0128270526628502,19.1946771933036
0.0152222833296089,19.1969883542944
0.0168463270714107,19.1983886078676
0.0185607934182644,19.1997888614407
0.0201247202204066,19.2010442058931
0.0215212416025887,19.2021911039072
0.0227746135987173,19.2032893659206
0.0238831848314899,19.2043801146015
0.0248275534509911,19.2055021741959
0.0255686774983969,19.2067079641187
0.0260265907159527,19.2081010129831
0.0259289365477127,19.2100845515831
0.0253054342370266,19.2116166459073
0.0243026104293282,19.2131487402315
0.0231409591031202,19.2145485993878
0.0218305268288611,19.2159398135364
0.0203802969848419,19.2173771725055
0.0187998857446836,19.218898538343
0.0177171286372503,19.2199394402957
0.0166585203983499,19.2209803422484
0.0155212309547144,19.2221559802265
0.0138931656779724,19.223967335838
0.0125950814809244,19.2255448753286
0.0114972648293308,19.226993941755
0.0104979979855342,19.2284248218209
0.00953587268752772,19.2299252427981
0.00854819624946885,19.2316198151156
0.00740159793615127,19.2338375684623
0.00628232923381358,19.2363508238687
0.00532926405020704,19.2388711291889
0.00454084135378089,19.2413335257817
0.00381965502723397,19.2440205935735
0.00317965659076501,19.2469269554776
0.00263732011011831,19.2499971643184
0.00218725286384173,19.2532608938039
0.00182656973080166,19.2567560182788
0.00155687637139688,19.260529224877
0.00138728141605289,19.2646396554952
0.0013396364605675,19.2688792520226
0.00140956865501487,19.2726531286074
0.00157460916373783,19.2760483000287
0.00182283819425366,19.279106905009
0.00214885308736264,19.281877563032
0.00255145248759205,19.2844044277667
0.00303468580565265,19.2867375910135
0.00360768734869678,19.2889254129222
0.00428766645521792,19.2910208757572
0.00510515275544319,19.2930863676035
0.00611663203749603,19.2952068228847
0.00743564513176019,19.2975178047164
0.00925645266822875,19.3001867668389
0.0109092301672618,19.3022636013893
0.0127989585565232,19.3043404359397
0.0146709554165213,19.3061384903466
0.0165661159413253,19.3077334219139
0.0185618075761966,19.3092028027757
0.0207365429272869,19.3105976980822
0.0231251856921798,19.3119261449438
0.0257775828900068,19.3132005587224
0.028738590655017,19.3144262321331
0.032055536758969,19.3156069256413
0.0357766571769857,19.3167447897298
0.0399607170157186,19.3178434305902
0.0446677295882703,19.3189047535079
0.0499727708655628,19.3199322268107
0.0559601568117541,19.3209287696235
0.0627278064934783,19.3218973140411
0.0703948584612663,19.3228413716365
0.0791028782017579,19.3237644535602
0.089023424369575,19.3246703147904
0.100368254772952,19.3255631407013
0.113401523616461,19.3264475979853
0.128458246302083,19.3273290301261
0.145972235547707,19.3282137750159
0.166522408559637,19.3291097730632
0.190915805870156,19.3300277304703
0.219261720133183,19.330950507212
0.252115531880369,19.3318809246192
0.290380313527871,19.3328309576151
0.33543272368736,19.3338228592628
0.374251570549501,19.3346052585721
0.415075923342133,19.3353876578814
0.45108659615477,19.3360692155757
0.482426819372807,19.3366800471284
0.509983517273888,19.3372580771821
0.533906171781389,19.3378287746988
0.553831553817783,19.3384155874803
0.568796253871991,19.3390496534446
0.576491432763256,19.3397928915493
0.572835871482269,19.3405548978836
0.556735701616028,19.3413536732792
0.526464442739717,19.3422091599441
0.482719523063065,19.3430828143198
0.423959251883252,19.3439987706948
0.372214739273895,19.3446822814278
0.314685269507448,19.3453657921609
0.26483191132918,19.3459210210462
0.223305639471282,19.3463720957593
0.187461977121186,19.3467623632434
0.155683664741695,19.3471162305196
0.127064521051124,19.3474477082488
0.101020082211574,19.3477663837846
0.0771008103321913,19.3480803785088
0.0548678669629907,19.3483987723461
0.0336865771627119,19.3487365646494
0.0116997350865736,19.3491406152995
-0.000238009689882768,19.3493936668731
-0.00783045330936591,19.3495718444754
-0.0147802245009891,19.3497500220777
-0.0208389515044637,19.3499200099511
-0.0270289991793054,19.3501114117921
-0.03310782014085,19.3503217111996
-0.0388715222800635,19.3505480985055
-0.044203414840342,19.3507893344929
-0.0490404616763559,19.3510452429588
-0.0533519293673158,19.3513163841496
-0.0571268564828188,19.3516038886601
-0.0603664978431383,19.3519093893395
-0.0630758855154434,19.3522350174946
-0.0653437771231881,19.3525998727068
-0.0669757691294201,19.3529723508925
-0.0681187475783553,19.3533746194664
-0.0687873187550355,19.3538119698765
-0.068991700332808,19.3542908069867
-0.0687368573463513,19.3548193705964
-0.068018698917416,19.3554092314469
-0.0668183329340272,19.356076509598
-0.0650950155467673,19.3568441415001
-0.0627650049119449,19.3577496891141
-0.0596338486496062,19.3588687039764
-0.0554325289859589,19.3603039179387
-0.0513203434164363,19.3616884359573
-0.0473620309187962,19.3630319713517
-0.0435932701507157,19.3643375133546
-0.0400331556409902,19.3656061830313
-0.0366918777088206,19.3668381592034
-0.033573894748295,19.3680331641619
-0.0306794717313878,19.3691907206143
-0.0280055940161167,19.370310286382
-0.0255466300657275,19.3713913217112
-0.0232948849978663,19.3724333174316
-0.0212410953293438,19.3734357988889
-0.0193748800466439,19.3743983138285
-0.0176851488368213,19.3753204087799
-0.0160966489319544,19.3762396400586
-0.014566817685882,19.3771824460522
-0.0131001086768064,19.3781504267114
-0.0117004268948892,19.3791457032063
-0.0103714743036764,19.3801707662295
-0.00911669515090439,19.3812285692415
-0.00793922151220367,19.3823226492254
-0.00684181584009045,19.3834572894868
-0.00582681006320828,19.3846377442772
-0.00489604013020537,19.3858705573006
-0.00405077378848441,19.3871640282535
-0.00329162736024534,19.3885289235468
-0.00261846335092428,19.3899796127378
-0.00203025237957077,19.3915360008775
-0.00154061130093976,19.393167369948
-0.00114894857814717,19.3948468246273
-0.000838863056870165,19.3965926756326
-0.000595544567468862,19.3984265935445
-0.000404940328167051,19.4003776521189
-0.000253258724497962,19.4024873063176
-0.000126171380494854,19.4048198809782
-7.15654702067347e-06,19.4074886973878
0.000127560987901213,19.4107442177281
0.000290479489547368,19.4144859210737
0.000485364900632743,19.4185138296923
0.000736331017720145,19.4232240470324
0.00102134041537991,19.4282763811593
0.00128818322789042,19.4329239478169
0.0015366700466859,19.4372772532464
0.00177914589419256,19.4415896213414
0.00203160976801887,19.4461565907232
0.00230457577823794,19.4511659294187
0.00256921269323395,19.4560531509899
0.00284145692508727,19.461075947497
0.00307404053018338,19.4653237093196
0.00329183945569985,19.4692504148093
0.00350609546078521,19.4730493131035
0.00372268653569694,19.4768120341639
0.0039457671435073,19.4805953269373
0.0041789120168652,19.4844410831109
0.00442558363681152,19.4883838163413
0.00468940382168747,19.492454375931
0.00497439058703544,19.4966825952401
0.00528516312818654,19.5010986905514
0.00562721489019409,19.5057344754157
0.00600734724115669,19.5106246607038
0.00643137517002523,19.5157723378687
0.00687101316206777,19.520781205722
0.00733851441990954,19.525761748317
0.00783350663838391,19.5306651505583
0.00836148459729268,19.5355000615432
0.00892787213600749,19.5402656259001
0.00953948083887329,19.5449658032064
0.0102038947337592,19.5496029735219
0.0109396749051745,19.5542392156544
0.0117656006509723,19.5589065445213
0.012700141069085,19.5636111366697
0.013769445130784,19.5683763824567
0.0150128116138095,19.573253083624
0.0165017238601967,19.5783659896541
0.0184200852948981,19.5841026322804
0.020830835225847,19.5904283058399
0.022356988668166,19.5941529865655
0.0239026127323803,19.5978776672911
0.0252451534606017,19.6012340888833
0.0263756739385975,19.6043435557167
0.0272999572490397,19.6073646821787
0.027958970093169,19.6102354211372
0.0283514074329877,19.6130555158233
0.0284596610315219,19.6159628673216
0.0282144791404646,19.6191927103181
0.0272923321770064,19.6236111687384
0.0264130020775042,19.6263930167819
0.0253522367712097,19.6291748648254
0.0242772539112868,19.631682913008
0.02320273520308,19.6340210961072
0.0221276001370387,19.6362665405502
0.021054137346313,19.6384606875998
0.0199858921074003,19.6406288813525
0.0189265729286725,19.642788597065
0.0178797212188932,19.6449529471225
0.0168486229332889,19.6471324072313
0.0158362850168924,19.6493357943147
0.0148454422340217,19.6515708531991
0.0138785647694357,19.653844653635
0.0129378684576029,19.6561638693113
0.0120253281666144,19.6585349793477
0.0111426812933423,19.6609644517321
0.0102914390553093,19.6634588833679
0.00947289855354874,19.666025122407
0.00868814301516196,19.6686704229836
0.00792253691876501,19.6714614755502
0.00717195739557132,19.6744428441019
0.00644018160137559,19.6776369964059
0.00573109640337459,19.6810702435573
0.00504885431240858,19.6847730137619
0.00439765083980096,19.688780626109
0.00378167601707658,19.6931344408883
0.00320498419322368,19.6978836647919
0.00267128273949066,19.7030883711168
0.00218362654673665,19.708825446601
0.00174428270065502,19.7151968118071
0.00135995275307492,19.7222329374839
0.00103846778352286,19.7298323880566
0.00077316206059246,19.7381127533176
0.00055828780076421,19.7472316171702
0.000436774274839999,19.7546880986696
0.000320772554534671,19.7645587642255
0.000239141169582558,19.7745587642255
0.000182289607328256,19.7845587642255
0.000143060931975007,19.7945587642255
0.000116450889317649,19.8045587642255
9.8774976002163e-05,19.8145587642255
8.73515875799508e-05,19.8245587642255
8.02920951584646e-05,19.8345587642255
7.63013721177908e-05,19.8445587642255
7.45017428472131e-05,19.8545587642255
7.42987375042673e-05,19.8645587642255
7.5289032956033e-05,19.8745587642255
7.72003692198429e-05,19.8845587642255
7.9852300049105e-05,19.8945587642255
8.31298321090359e-05,19.9045587642255
8.69652809281999e-05,19.9145587642255
9.13257344849729e-05,19.9245587642255
9.62045519549906e-05,19.9345587642255
0.000101615828340957,19.9445587642255
0.000107591054495376,19.9545587642255
0.000114177430139096,19.9645587642255
0.000121437476950161,19.9745587642255
0.000129449753945359,19.9845587642255
0.000136283096665369,19.9922793821128
0.000143635209718744,20
