ecg,time
0.000102357608060039,15.002967979521
0.00010705989603097,15.012967979521
0.00011247665619375,15.022967979521
0.000118613008617224,15.032967979521
0.000125503168626363,15.042967979521
0.000133207162546782,15.052967979521
0.000141809890475906,15.062967979521
0.000151422198472924,15.072967979521
0.000162183860595803,15.082967979521
0.000174268594319084,15.092967979521
0.000187891468312515,15.102967979521
0.000203319346928376,15.112967979521
0.000220885402414947,15.122967979521
0.000241009289998702,15.132967979521
0.000264225444886795,15.142967979521
0.000291223331549559,15.152967979521
0.000322905720766794,15.162967979521
0.000360474858028003,15.172967979521
0.000405562983156957,15.182967979521
0.000460435548965382,15.192967979521
0.000523146819363702,15.2022704036387
0.000594240308313977,15.2108546692294
0.000674781068383496,15.2187742299234
0.000766027473008744,15.2260814265556
0.000869417914287436,15.2328248517312
0.000986584142483855,15.2390495612503
0.00111937453314956,15.2447973602994
0.0012698826527401,15.2501070476364
0.00144048117933919,15.2550146209027
0.00163385836922925,15.2595534886963
0.0018530649664764,15.263754682379
0.00210156656144647,15.2676470544274
0.00238330881137951,15.2712574513116
0.002702797157477,15.274610896037
0.00306519745195459,15.2777307854957
0.00347646797440437,15.2806390881402
0.0039435309300109,15.2833565566494
0.00447450988413874,15.2859029856871
0.00507906747432748,15.28829752778
0.00576890306425331,15.2905591119101
0.00653365075673821,15.2926451108942
0.00737916155819555,15.2945797183182
0.0083186880694178,15.2963975103835
0.00937244617473314,15.2981342062835
0.0105747071522861,15.2998330726049
0.0120074536101895,15.3015768952575
0.0139657160585709,15.303624711573
0.0156177494882307,15.3051540405342
0.01740251434918,15.3066833694953
0.019065485095476,15.3080525004435
0.0205262478629356,15.309257738391
0.021834844282888,15.3103847812675
0.0230028996772978,15.3114837152079
0.024019622295937,15.3125929826874
0.0248571859664354,15.3137556761404
0.0254619546131545,15.315040785875
0.0257066954926798,15.316621828705
0.0253364348606538,15.3184204453551
0.0243784463345532,15.3202190620051
0.0232665430989532,15.3216859607366
0.0220194424215851,15.3230810162427
0.0206323253178927,15.324499024704
0.0191135817340215,15.3259837125681
0.0174703777240629,15.3275728632601
0.0157332573576586,15.3293139901761
0.0143146592927621,15.3308472549543
0.0125436143120494,15.3329456483403
0.0109401679390813,15.3350734413427
0.00941394600814199,15.3373672349065
0.00796677761838976,15.3398703061907
0.00707249777382999,15.341630697067
0.00627033942139817,15.3433910879434
0.00562050714463895,15.3449749979444
0.00506393985080699,15.3464709557393
0.00455485938902175,15.3479775295295
0.00406178294495114,15.349591645002
0.00354710252694081,15.3514801782755
0.00289940944483619,15.3542488356331
0.00231090330672263,15.3573039506969
0.00188123343507574,15.3600196720852
0.00152034530190325,15.362779172295
0.00117822768161648,15.3660224617931
0.000863433742717351,15.3699331298713
0.000619086736474204,15.3742249619997
0.000452313439436303,15.3789758434255
0.00038509891380282,15.383732785837
0.00041217890510947,15.3879760887455
0.00051756147593213,15.391798085177
0.000693665818806738,15.3952365137588
0.000937566554470131,15.3983405674576
0.00124954702004422,15.4011589760856
0.00163279053489074,15.4037406461318
0.00209423801566136,15.4061365615096
0.00264637920681873,15.4084009338848
0.00331002006923844,15.4105924464883
0.00412516613791493,15.4127931344571
0.00517364128317838,15.4151318939222
0.0066335885199418,15.4178323920142
0.00845969552019187,15.4206564558489
0.0099218662180613,15.422612582163
0.0115783405343196,15.4245687084771
0.0132774142494873,15.4263276112592
0.0150266840993848,15.4279113899805
0.0169110572465593,15.4293982999183
0.0189715486274872,15.4308083060322
0.0212527982399175,15.4321565814623
0.0238004231842871,15.433452875807
0.0266522037550301,15.4346994408361
0.0298540154422266,15.4359004001159
0.0334547537881072,15.4370587813702
0.037501545182058,15.4381754786524
0.0420590196593798,15.4392546925534
0.0471959666980889,15.440299160428
0.0529915853025609,15.441311662496
0.0595396744653693,15.4422953074632
0.066954657428579,15.4432537731991
0.0753721748559905,15.444190657428
0.084957270351202,15.4451098469815
0.0959120667734915,15.4460155088223
0.108492551624792,15.4469125790677
0.123023738929923,15.4478066450885
0.139929586146055,15.4487044225015
0.15978015129728,15.4496143906016
0.183376849369579,15.4505480461376
0.210752406805634,15.4514852530459
0.242496216653875,15.4524309844505
0.279488061718246,15.4533973613389
0.323040887773133,15.4544059062803
0.362222852819905,15.4552339965322
0.403623598864837,15.456062086784
0.439759407609655,15.4567729677435
0.47107680060836,15.4574050060141
0.49856801165046,15.4579994766038
0.522431801253784,15.4585828193012
0.542353758268259,15.459178152876
0.557463485844071,15.4598142750253
0.565763015313718,15.4605432588308
0.56342119283207,15.4613121163096
0.548950649530798,15.4621125380194
0.520770854387037,15.4629638524651
0.477245647252024,15.463870636798
0.41909463015358,15.4648013231188
0.368620756099242,15.4654820723577
0.312395677006116,15.4661628215967
0.263412902334718,15.466717917645
0.222436655655996,15.4671702557405
0.186983148586707,15.4675621563431
0.155508572585149,15.4679176821171
0.127139342739342,15.4682507450246
0.1013088098431,15.4685708916622
0.07758009903524,15.4688861967292
0.0555275990651164,15.4692056282165
0.034542342379808,15.4695437961985
0.0128989351629777,15.4699448781549
0.000283024171574407,15.4702149836606
-0.00727831275230579,15.470394871959
-0.0141972951453216,15.4705747602573
-0.020225624636732,15.4707463402764
-0.0263784072828411,15.4709394108279
-0.0324152273008895,15.4711514365298
-0.0381347999819623,15.4713796074366
-0.0434221817404493,15.471622691721
-0.0482154329329727,15.4718805236548
-0.0524844768712471,15.4721536756052
-0.0562187146313367,15.4724432915708
-0.059419565914662,15.4727510192091
-0.0621677848881906,15.4730906590684
-0.0642724670429914,15.4734392823093
-0.0658747155637784,15.4738137942276
-0.0669905261493194,15.4742184458944
-0.0676331386515859,15.4746583213005
-0.0678125575137217,15.4751398316959
-0.0675335675249026,15.4756712221301
-0.0667918587031806,15.4762641068428
-0.0655684688424309,15.4769345684184
-0.0638228057733344,15.4777054949804
-0.0614717444054894,15.4786142974159
-0.0583230279875509,15.4797359478635
-0.0541235359502229,15.4811683573601
-0.050019674795381,15.4825499265264
-0.0460747649689827,15.4838901803917
-0.0423232575046989,15.4851921699123
-0.0387833622821248,15.4864570603954
-0.0354645321794096,15.487685065909
-0.0323705769173431,15.488875938286
-0.0295011868289899,15.4900292254932
-0.0268528441452453,15.491144406927
-0.0244194862541595,15.4922209608602
-0.022193058576917,15.4932583924655
-0.0201640069993194,15.4942562374579
-0.0183217246142924,15.4952140495978
-0.016654954370696,15.4961313766224
-0.0150763106003888,15.4970533641639
-0.0135574350800934,15.4979990573301
-0.0121026507828354,15.4989701550375
-0.010715849268529,15.4999688179568
-0.00940071460963201,15.5009975862857
-0.00816067009694381,15.5020594753894
-0.0069988244233255,15.5031581007446
-0.00591791514404236,15.5042978468018
-0.00492024905823032,15.5054841006648
-0.00400763854489917,15.5067235846019
-0.00318133186072434,15.5080248451546
-0.00244193356684403,15.509399002081
-0.00178930764763946,15.5108609536448
-0.00122244815137207,15.5124314431761
-0.000757491701505993,15.51406754419
-0.000388929343644738,15.5157539291193
-0.000100739030274717,15.5175089815094
0.000121663824047761,15.5193550847024
0.000292104586677966,15.5213224504301
0.000424139627564307,15.523454528284
0.000531844791826219,15.5258195652104
0.00063148652426769,15.5285401868562
0.000746877354139694,15.531898534138
0.000886806509639163,15.5356519058474
0.00106103778116236,15.5397410505615
0.00126797181041209,15.5440862309349
0.00148690944328134,15.5483887176566
0.00172289598898508,15.5528965495026
0.00198849822514984,15.5579496609111
0.00224424232006093,15.5628431780189
0.00250305202670604,15.5678338854422
0.00272706646156157,15.5721567899515
0.00293311912818239,15.5761171855551
0.00313336587110975,15.5799309276397
0.00333395506833706,15.5836982780216
0.00353900824058429,15.5874795071561
0.00375189780311782,15.5913181784091
0.00397575616508877,15.5952497475261
0.00421374654271925,15.5993056125165
0.00446927914702264,15.6035159194413
0.00474618096529828,15.6079110909782
0.00504890481572765,15.6125230982652
0.00538285768009273,15.6173867918294
0.00575493615355284,15.6225410958149
0.00614991652926652,15.6277153867031
0.0065631670609551,15.6328113794999
0.00699876697472578,15.6378418292197
0.00745951207044183,15.6427948338793
0.00795028836260823,15.6476758548576
0.00847656198513829,15.652488970969
0.00904458514553874,15.6572385911291
0.00966119277973027,15.6619269316251
0.0103338731522861,15.6665543589994
0.0110836556532343,15.6711952930307
0.0119274531257737,15.6758651217384
0.0128849110829292,15.6805733512175
0.0139835935507136,15.6853454704874
0.0152662517088609,15.6902396393644
0.0168142078838478,15.6954024861082
0.0188573721421489,15.7013254776902
0.0206750480943464,15.7060281849374
0.0226162849251902,15.7107308921846
0.024208557288304,15.714542211202
0.0255243583639189,15.7178387651336
0.0266271280774555,15.7209103052267
0.0275172873326728,15.7238999906189
0.0281370808482677,15.7267397593466
0.0284892387483374,15.7295492957684
0.0285508607878854,15.7324732225999
0.0282369430272462,15.7357824480096
0.0272472314622249,15.7401403429267
0.0263550172065866,15.7428417092159
0.0252967773657223,15.7455430755051
0.0242240195649728,15.7480020051613
0.0231503411893049,15.7503088767554
0.022075895580191,15.7525314978776
0.021003365877352,15.7547075570841
0.0199363749176554,15.7568606567038
0.0188786174934004,15.7590073189282
0.0178335935486828,15.7611600753955
0.0168045375136264,15.7633290268196
0.0157944043634507,15.7655227342062
0.014805874830305,15.7677487723807
0.0138413683342581,15.7700140946081
0.0129030507502025,15.7723253051799
0.0119928470016648,15.7746888575798
0.0111124652549873,15.7771112181855
0.0102634254833954,15.7795990246607
0.00944698212110256,15.782159207089
0.00866417420530475,15.7847991402684
0.00789598931047696,15.7876022329034
0.00714315120079569,15.7905977334816
0.00640941028369852,15.7938087934148
0.00569869368241857,15.7972622665084
0.00501511080255864,15.8009892313723
0.0043628954709641,15.8050258191334
0.00374630444648577,15.809414386975
0.00316945271237151,15.8142054186213
0.00263608688026362,15.8194607827546
0.00214927767493862,15.8252599932399
0.00171128417469362,15.8317089833772
0.00133197426437976,15.8387749359818
0.00101496843730693,15.8464107141976
0.000753608122127088,15.8547370020961
0.00056560840337942,15.8632507898672
0.000437642129560833,15.871435797587
0.000324678572930617,15.881435797587
0.000245976900328379,15.891435797587
0.00019141407775488,15.901435797587
0.00015413257997125,15.911435797587
0.000129127779921959,15.921435797587
0.000112736288210086,15.931435797587
0.00010235588051217,15.941435797587
9.61928864903279e-05,15.951435797587
9.30312915662072e-05,15.961435797587
9.20498295754035e-05,15.971435797587
9.26934812829228e-05,15.981435797587
9.45889834764271e-05,15.991435797587
9.74899918101666e-05,16.001435797587
0.000101240720054151,16.011435797587
0.000105751209186217,16.021435797587
0.000110980407984358,16.031435797587
0.000116924852511888,16.041435797587
0.000123611508461306,16.051435797587
0.000131093774881726,16.061435797587
0.000139449968810492,16.071435797587
0.000148783885825142,16.081435797587
0.000159227275664742,16.091435797587
0.000170944297122355,16.101435797587
0.000184138245788985,16.111435797587
0.000199061116364932,16.121435797587
0.000216026915185389,16.131435797587
0.000235430146482153,16.141435797587
0.000257771665068231,16.151435797587
0.000283695298447272,16.161435797587
0.000314040607217475,16.171435797587
0.00034992044313807,16.181435797587
0.000392837645306472,16.191435797587
0.00044486535764869,16.201435797587
0.000505431186058615,16.2109345876691
0.00057416135442182,16.2197075685318
0.000652033116694181,16.2278013009424
0.000740254277310757,16.2352689094296
0.00084021315085334,16.2421599863677
0.000953486921891025,16.2485205128981
0.00108186280906286,16.2543931458378
0.00122736500093867,16.2598174751691
0.00139228747099959,16.2648302339653
0.00157922899031015,16.2694655091609
0.00179113778534595,16.273754953314
0.00203136112356024,16.277727989719
0.00230370840316044,16.2814119891754
0.00261252459272857,16.2848324482318
0.00296278576800639,16.2880131830548
0.00336022157356496,16.2909765283442
0.00381147334104191,16.293743541867
0.00432431216502621,16.2963342483903
0.0049079444364061,16.2987679384217
0.0055734570606032,16.3010635507997
0.00631779966494212,16.3031965441506
0.00714021331270679,16.3051689403719
0.00805249886294602,16.3070151263943
0.0090725434820043,16.3087701188822
0.010229606166813,16.3104740910978
0.0115798752854318,16.3121857804456
0.0133418280101874,16.3141085293403
0.0151799368676897,16.3158650171284
0.0172051222849449,16.3176215049165
0.0189222523199502,16.3190383395168
0.020400686772501,16.3202558681681
0.0217221887839085,16.3213876403869
0.0229031549045876,16.3224874952074
0.0239344474034591,16.3235942291349
0.0247899094108201,16.3247498745752
0.0254191469139476,16.3260195232561
0.0257069376786045,16.3275584882371
0.0253861708117663,16.3293895936967
0.0244459216198004,16.3312206991563
0.0233418274364744,16.3326988696437
0.0221037339065303,16.3340946610301
0.0207253151841316,16.3355097170899
0.0192146864454723,16.3369890534378
0.0175792990288633,16.3385702930741
0.0162083608371983,16.339927022473
0.0149174918540189,16.341283751872
0.013082715142605,16.343384446478
0.011434141245343,16.3454931978499
0.00989736284674965,16.3477096966396
0.00836497309267024,16.3502457440997
0.00736031130768629,16.3521455908977
0.00646624887913003,16.3540454376957
0.00577710143395223,16.3556810485714
0.00520177180669511,16.3571894754832
0.00468367346864864,16.3586848216088
0.00418944224520518,16.3602598110588
0.00368548215469634,16.3620516276611
0.00309827357877393,16.3644462452947
0.00248394620444219,16.3674414092042
0.00202076051114608,16.3701841328002
0.00164703255688118,16.3728514495929
0.00130236085889885,16.3758580882979
0.000963676505322722,16.3796548270954
0.000694587292173245,16.3838111515501
0.000499912310060069,16.3883933161546
0.000395362829803678,16.3933522076665
0.00039417560865279,16.3977394318503
0.000475083730702598,16.4016962834392
0.000628577515651355,16.4052546002388
0.000850437011364998,16.408462768152
0.00113993127548561,16.4113689584532
0.00149930186942625,16.4140224600954
0.00193406230516168,16.4164730929281
0.00245471549414728,16.4187743015244
0.00307874509072967,16.4209822853376
0.00383798872510252,16.4231686258631
0.00479687763668401,16.4254435620543
0.00609213971603994,16.4279914773605
0.00779829047357267,16.4307921324176
0.0092961223619852,16.4329070146556
0.0110035823651484,16.4350218968936
0.0126997567224285,16.4368588640935
0.0144242998921754,16.4384931939592
0.0162505207579935,16.440003924438
0.0182478274640793,16.4414394248551
0.020446722453775,16.4428061281991
0.022901573839965,16.4441209878626
0.0256433238253695,16.4453832737399
0.0287226441715415,16.4466001752836
0.0321794233495142,16.447771940142
0.0360677775975637,16.4489024764741
0.0404457726173917,16.449994588512
0.0453775200709348,16.4510506670753
0.0509375692402925,16.4520734363207
0.05721778550072,16.4530665475308
0.064324299232305,16.4540332981685
0.0723840133115122,16.454977168124
0.0815498495100226,16.4559018294116
0.0920122765658307,16.4568115717861
0.104006925370034,16.457711009994
0.11783228005177,16.4586054362831
0.133874351749679,16.4595011212853
0.152645605402153,16.4604058097209
0.174855999663459,16.4613298113614
0.200891913230151,16.4622660983607
0.231048823676171,16.4632077837032
0.26611931078253,16.4641653138276
0.307222615465447,16.4651558477211
0.356324935435854,16.4662161536963
0.392110169190558,16.4669380403564
0.428791051231806,16.4676599270165
0.461429097246363,16.4683102762647
0.490099703705431,16.4689134870408
0.515144978059733,16.4694979101054
0.536401430480165,16.4700867073538
0.553205104399759,16.4707057016754
0.564048973633721,16.4713959673708
0.565479130843761,16.4721590017558
0.55515691071022,16.4729466967051
0.531722425944328,16.4737792763037
0.493152456720169,16.474673486578
0.439890846156888,16.4755950526162
0.374413343242334,16.4765112390927
0.328731854619022,16.4770744021024
0.279843997196129,16.4776375651121
0.236644813916818,16.478117164864
0.199434789283017,16.4785272041698
0.166632341223055,16.4788940402459
0.13720344356984,16.4792340655957
0.110498536857031,16.4795579732557
0.0860478360168892,16.4798741162974
0.0634361831397384,16.4801908068544
0.0421598485603212,16.4805196226907
0.0211665654706778,16.4808871237517
0.00530174202538657,16.4812068359637
-0.00296347824505849,16.4813936253236
-0.0105192627879764,16.4815804146836
-0.0170198296245297,16.4817564845442
-0.0231266838993832,16.481938155618
-0.0292568740014358,16.4821406449552
-0.0351628506762269,16.4823605322553
-0.0406888754753498,16.4825958206985
-0.0457484263315191,16.4828458362465
-0.0502965884408123,16.4831107906972
-0.0543136538479255,16.4833915398475
-0.0577954207964385,16.4836894694198
-0.0607440919802645,16.484006460359
-0.0632716267257864,16.484363283656
-0.0651267043072176,16.4847244200452
-0.0664864791125685,16.4851132813609
-0.0673666554952052,16.4855346537708
-0.0677791002144868,16.4859942298532
-0.0677315188756049,16.4864992501572
-0.0672251536297876,16.4870591503623
-0.0662486756421273,16.4876880926154
-0.0647740034977822,16.4884047248101
-0.0627435278628596,16.489237724904
-0.0600348726756184,16.4902379910249
-0.0563173365956863,16.491528245928
-0.0521557972857318,16.4929336455624
-0.0481218035913868,16.4942950675209
-0.0442658718814032,16.4956169335848
-0.0406133686210896,16.4969012405468
-0.0371777960299377,16.4981486241289
-0.0339656777303186,16.4993590380384
-0.0309787303356059,16.500532115945
-0.0282150280475917,16.5016673624226
-0.0256697707980037,16.5027642514492
-0.0233358853157056,16.5038222727546
-0.0212045462542264,16.5048409469835
-0.019265646308933,16.5058198209637
-0.0175082223133379,16.5067584493285
-0.0159001939729605,16.5076684001688
-0.014349200619517,16.5086014840421
-0.0128601853025706,16.5095589608124
-0.0114371258371828,16.5105428235595
-0.0100838229009571,16.511555401807
-0.00880384362305573,16.5125994474171
-0.0076004691963665,16.5136782420891
-0.00647663978293329,16.5147957410755
-0.00543489659866384,16.5159567695032
-0.00447732054719298,16.5171672974993
-0.00360546602726496,16.5184348375834
-0.0028202871997956,16.5197690398394
-0.00212205148292464,16.5211826236895
-0.00151022992493301,16.5226929199507
-0.000987561357181326,16.5243098177911
-0.0005707723910848,16.5259674290127
-0.000242408055237013,16.5276841292633
1.26552182620765e-05,16.52947940214
0.000208590895645483,16.5313789058499
0.00035902268561584,16.5334182378172
0.000477624954881301,16.5356505844864
0.000579204819797231,16.5381642962722
0.000682431678653232,16.5411340825851
0.000814487619689421,16.5448714903676
0.00096823579029251,16.5487321917279
0.00116754761522965,16.5531285824877
0.00138092077871472,16.5574326101148
0.00160737436288049,16.5618009962174
0.00185939018822747,16.5665942029412
0.00211799032610572,16.5715247721924
0.00237324888053336,16.5764299892366
0.0026164751577791,16.5811263018468
0.00282949864105488,16.5852318570282
0.00303170447943277,16.5891033957416
0.0032315218672555,16.5928851814156
0.00343385075035631,16.59665315628
0.00364235194080626,16.6004577664021
0.00386023922349996,16.6043379558462
0.00409062941862792,16.6083267522908
0.00433678482358249,16.6124546980967
0.00460229792436861,16.6167519060574
0.00489127159340701,16.6212494000068
0.00520857471293597,16.6259803897534
0.00556026340251245,16.6309816165712
0.00594996175888877,16.6362374321164
0.00635159803620223,16.641345542119
0.00677631307353653,16.6464192077258
0.00722363108689459,16.6514085067007
0.00769867909337623,16.6563259445612
0.00820628797558937,16.661172487274
0.00875243934883998,16.6659537594983
0.00934364543234611,16.6706728437619
0.00998706138821532,16.6753310449236
0.0106944744750543,16.679952534569
0.0114890261023725,16.6846090165064
0.0123862296116415,16.6892955301563
0.013409562401544,16.6940309196772
0.0145925598932206,16.6988528314453
0.0159921310385335,16.7038516529233
0.0177348404697114,16.7092788170627
0.0201530204693757,16.7158210143737
0.0217516160661051,16.7197638948991
0.0234020146908147,16.7237067754245
0.0248424431938811,16.7272038844512
0.0260565177418079,16.7303711296612
0.027065013423194,16.7333956955832
0.0278307259386332,16.7363009545677
0.0283300593120194,16.7391112942847
0.0285557454074882,16.7419513812658
0.0284649671371284,16.7449990421034
0.0278946430752631,16.7487202902788
0.0270750199297339,16.7518108473279
0.0259966063358592,16.7549014043771
0.0249134927814162,16.7575473100161
0.0238393632372491,16.7599438770814
0.0227651510677851,16.7622150475846
0.0216909923925423,16.7644176852941
0.0206200118717153,16.7665833243164
0.0195559091684751,16.7687325201005
0.0185023236573291,16.7708801215454
0.0174626645767154,16.7730376547386
0.0164400651801848,16.7752145913827
0.015437381573824,16.7774190866942
0.0144571992123053,16.7796584578846
0.013501844401013,16.7819395091274
0.0125733974665231,16.7842687650523
0.011673698306502,16.7866526692121
0.0108043924276763,16.7890977369113
0.00996690790923309,16.791610687845
0.00916241518505231,16.7941986007972
0.0083864481781625,16.7968886273789
0.00762335309361778,16.7997584852985
0.00687695404756585,16.8028285975534
0.0061510406029992,16.8061234712667
0.0054496084159096,16.8096714028281
0.0047768208013369,16.8135051740958
0.00413693460120372,16.8176629883303
0.00353417917579792,16.822189837884
0.00297256624711566,16.8271398116449
0.00245562751703198,16.8325802836405
0.00198615177173913,16.8385990630651
0.00156611869939395,16.8453141176703
0.00121016423079102,16.8525753826599
0.000914094828775111,16.8604456696806
0.000674429200158919,16.8690596410157
0.00052406714405838,16.8767972774742
0.000391753181250971,16.8861986077794
0.000292594588190089,16.8961986077794
0.00022358691565768,16.9061986077794
0.000176021874926129,16.9161986077794
0.000143754388661481,16.9261986077794
0.000122280135730786,16.9361986077794
0.000108348575100788,16.9461986077794
9.96856732823797e-05,16.9561986077794
9.47374627623841e-05,16.9661986077794
9.24523012700548e-05,16.9761986077794
9.21189069747881e-05,16.9861986077794
9.32565318692906e-05,16.9961986077794
9.55433721296732e-05,17.0061986077794
9.8769650453115e-05,17.0161986077794
0.000102806069263874,17.0261986077794
0.000107582219931121,17.0361986077794
0.000113071891830868,17.0461986077794
0.000119283410999213,17.0561986077794
0.000126253740781595,17.0661986077794
0.00013404546053912,17.0761986077794
0.000142746045105588,17.0861986077794
0.000152469133104816,17.0961986077794
0.000163357707680022,17.1061986077794
0.000175589336112608,17.1161986077794
0.000189383853478846,17.1261986077794
0.000205014168594212,17.1361986077794
0.000222821271286577,17.1461986077794
0.000243235108205095,17.1561986077794
0.000266803898778881,17.1661986077794
0.000294235903284218,17.1761986077794
0.000326460020391672,17.1861986077794
0.000364715595166104,17.1961986077794
0.000410688813557781,17.2061986077794
0.000466550895667971,17.2161699345267
0.000530095351537893,17.2253971324127
0.000602114208304287,17.2339101493486
0.000683701488528899,17.2417639964795
0.000776134519923149,17.2490106777651
0.00088087099590203,17.255698407555
0.000999563981625235,17.2618718928314
0.00113408581849727,17.2675726174041
0.00128655734244993,17.272839080627
0.00145938203679127,17.2777070025042
0.00165528340565977,17.2822095359001
0.00187735238919583,17.2863774780665
0.00212910121814808,17.2902394660366
0.00241452924650544,17.2938221489312
0.00273820526049564,17.2971503721486
0.00310537039942357,17.3002473757595
0.00352207370572919,17.3031349919493
0.00399534944854193,17.3058338614061
0.00453346260074083,17.3083636965962
0.00514625977873399,17.3107436049985
0.00584568933774475,17.3129925232767
0.00661848823394056,17.3150611177204
0.00747316308932582,17.316981837425
0.00842357801984858,17.3187893736196
0.00949097130160705,17.3205198341847
0.010711895524762,17.3222179762807
0.0121822568669278,17.3239796166112
0.0142374964423784,17.3260927449927
0.0158972040275176,17.3276065059652
0.0176799533002083,17.3291202669377
0.0193053897037891,17.3304552622862
0.0207400733204979,17.3316437299482
0.0220266768877965,17.3327636156826
0.0231722218181121,17.3338616798694
0.0241632571447137,17.3349761299442
0.0249689219966835,17.3361522563198
0.0255292567980399,17.3374669650106
0.0256906967786172,17.3391344296592
0.0252382513873298,17.3408690097077
0.0242566177590036,17.3426035897563
0.0231315443599977,17.3440517969441
0.0218685597245193,17.3454462307226
0.020466121835563,17.3468698721591
0.018933061314315,17.3483644194134
0.0172759950909734,17.3499680656992
0.015531393531325,17.3517303960191
0.0136282026614109,17.3538388189802
0.0119284833241483,17.355937969977
0.0103675727650037,17.3581041977157
0.00882578613140875,17.3605451748707
0.0074747489290582,17.3630205110634
0.00668049833644347,17.3646721401483
0.00596383665582288,17.3663237692332
0.0053636367777593,17.3678530623677
0.00483263189858156,17.369342806955
0.00433448268040073,17.3708835419005
0.00383782211290153,17.3725903654858
0.00329031146932508,17.3747236045712
0.00265104172816512,17.3776682201722
0.00213816584955437,17.3805416641134
0.00174562713323968,17.3832009974813
0.00139584600739674,17.3860789066533
0.00105430039141884,17.3896287199862
0.000765046498457746,17.3936727651568
0.000548047765082191,17.3981221167751
0.000413778733706819,17.4030705055866
0.000385493199155183,17.4076063775413
0.000443669479580619,17.4116863217729
0.000576593159541474,17.4153565197252
0.000778684001244386,17.4186619517404
0.00104828902728692,17.4216510705369
0.00138683429137173,17.4243734027455
0.00179870820359547,17.4268778366501
0.00229285286742426,17.4292172511494
0.00288437736676748,17.4314465700989
0.0035989556079038,17.4336287766919
0.00448971156659113,17.4358631581932
0.00566510272595399,17.4383051267621
0.0072694692744813,17.4410787144103
0.00922074441690931,17.4439103196423
0.010670890484981,17.4457353843267
0.0123091191926337,17.4475604490111
0.0140222397477573,17.4492347116777
0.0158156084625815,17.4507659351044
0.017774360294941,17.452220581446
0.0199236892852625,17.4536020543637
0.0223169638299565,17.4549285737684
0.024990031886969,17.4562026810416
0.0279903164226758,17.4574304357977
0.0313561101924688,17.4586119280963
0.0351428274787467,17.4597520302269
0.039405249016725,17.4608529504499
0.0442027560531071,17.4619165064155
0.049612715551422,17.4629466118526
0.0557212690042792,17.4639463199362
0.0626298633482218,17.4649188096069
0.0704592226479782,17.4658674268579
0.0793582315287659,17.4667961055896
0.0895072848346156,17.4677088889665
0.101130206643958,17.4686102656525
0.114508661901758,17.4695053056493
0.130006191246208,17.4704000503003
0.148102826553631,17.471301898231
0.169454642942737,17.4722204216712
0.19464575326737,17.473156593115
0.223805788340124,17.4740962824779
0.257678664217844,17.4750490541977
0.297285929060743,17.4760299456707
0.344307612286469,17.4770690031433
0.381146609343106,17.4778229876266
0.41931831519696,17.4785769721099
0.453190328110503,17.4792470229615
0.482859533596165,17.4798596510381
0.508862189382084,17.4804467193784
0.531164520320615,17.4810321038541
0.549248295631423,17.4816400668872
0.561901089931761,17.4823055989102
0.566191035021117,17.4830657809492
0.558973426199318,17.4838451609231
0.539054485631227,17.4846645155162
0.504576216592983,17.4855416663036
0.455182931963814,17.4864556740896
0.391821523086682,17.4873860588827
0.344321228278089,17.4879903956338
0.292763383169219,17.4885947323849
0.247414734573695,17.4891015920266
0.208762266898542,17.4895273382975
0.174918294848129,17.4899036541014
0.144674165809816,17.4902495525971
0.117301612370518,17.4905768456526
0.0922972848091189,17.4908942676747
0.0692425889698673,17.4912099115834
0.0476780815824105,17.4915339740953
0.0267977596508693,17.4918864557514
0.00830324148540565,17.4922459769336
-0.00115051336656072,17.4924543961054
-0.0097132230970045,17.4926628152772
-0.0163595333674558,17.4928410216055
-0.0224438730263157,17.4930201101465
-0.0285849198055186,17.4932204682465
-0.034525021044735,17.4934385554171
-0.0400983859331903,17.4936721899383
-0.0452124255185712,17.4939205765494
-0.0498185842833453,17.4941838437922
-0.0538949294575804,17.4944627835246
-0.0574358855003148,17.4947587256488
-0.0604441648419379,17.4950734961249
-0.0630771000181858,17.495434679641
-0.0649785316006545,17.4957935427088
-0.0663827366108304,17.4961796800852
-0.0673061144713541,17.4965978705492
-0.0677608214823129,17.4970536888732
-0.0677550261885545,17.4975542123412
-0.067290689512787,17.4981086323236
-0.0663578979215917,17.4987306175458
-0.0649304135034802,17.4994382734994
-0.0629542299194272,17.500259049989
-0.0603157456054693,17.5012408264758
-0.0567188896849343,17.5024943781428
-0.0525486453843939,17.5039046693755
-0.0484996907031419,17.5052700591091
-0.0446254179151048,17.5065955866008
-0.0409527795525718,17.5078834368574
-0.0374961318218765,17.5091343398964
-0.0342625466811766,17.5103482953784
-0.0312541398876575,17.5115249574063
-0.0284692964663639,17.5126638375959
-0.0259034631188042,17.5137644102495
-0.0235497600352325,17.5148261625709
-0.0213995080796824,17.5158486122154
-0.019442703257088,17.5168313041307
-0.0176684469322839,17.5177737933012
-0.0160550905423073,17.518681552992
-0.0144982535905704,17.51961234705
-0.0130029977298906,17.5205673546791
-0.0115733152916095,17.5215485398349
-0.0102130270886196,17.5225581954754
-0.0089257253624942,17.5235990278915
-0.00771472166167731,17.5246742613029
-0.00658299201646594,17.5257877774273
-0.00553311931322025,17.5269443056998
-0.00456723230840046,17.5281496891332
-0.00368694000152992,17.5294112671003
-0.00289325882130352,17.5307384464182
-0.00218652770773914,17.5321435911568
-0.00156630144527998,17.5336434863601
-0.0010325497684342,17.5352573087982
-0.000606486852438495,17.5369101401923
-0.000270353470204058,17.5386204390556
-8.91878729079171e-06,17.5404072230376
0.000192066940264389,17.5422954398115
0.00034625800856501,17.5443194934509
0.000467288908272244,17.5465303713074
0.00056978421105513,17.5490117442325
0.000671812436992367,17.551925523782
0.000803245222203089,17.5556697017496
0.000953989713171368,17.559498239591
0.00114873315359938,17.5638365143457
0.00136095224050962,17.568143448515
0.00158591688292708,17.5724944608291
0.00183450868084713,17.5772241497308
0.0020940240312663,17.5821694560178
0.00234905511634309,17.5870666057163
0.00259716480329167,17.5918570430727
0.00281180682548309,17.5959949098829
0.00301453182624231,17.5998792815182
0.00321433600846451,17.6036652440986
0.00341629620928486,17.607432194611
0.00362413865646993,17.6112320192811
0.00384109881718946,17.615104369736
0.00407029219712356,17.6190826389317
0.0043149603167956,17.6231974762506
0.0045786608209062,17.6274789757729
0.00486544449805877,17.631958035343
0.00518010104772312,17.6366676243669
0.00552856274541292,17.6416441368053
0.00591738132412558,17.6469128188534
0.00631712505538747,17.6520222198347
0.00674010856869957,17.6571028381665
0.00718530426560962,17.6620980858852
0.0076578779163493,17.667021648803
0.0081625469911335,17.6718738411622
0.00870524276774556,17.6766604234408
0.00929242455522249,17.6813846165182
0.00993119490576021,17.6860478952368
0.0106319176394775,17.6906662125332
0.0114187241312401,17.6953207031254
0.0123064963898544,17.700004041558
0.0133181599548966,17.7047343235181
0.0144860487118053,17.7095465815101
0.0158641700777862,17.7145245651581
0.0175690135582257,17.7198963426265
0.0199851960391656,17.7264968440463
0.0216053354457866,17.7305138930862
0.0232850596289079,17.7345309421261
0.0247455583667755,17.738066085871
0.025975086290321,17.7412503646269
0.0269985972889506,17.7442803882832
0.0277839967802172,17.7471972068411
0.0283026984361584,17.7500105343762
0.0285491462178897,17.7528435925878
0.0284843056841564,17.7558670412479
0.0279629306970066,17.7595012233493
0.0271530410433032,17.762659609726
0.0260679578731052,17.7658179961028
0.0249820799818419,17.7684912262652
0.0239076408002938,17.7708992071227
0.0228334781614008,17.7731762686766
0.0217592353618809,17.7753821628075
0.0206879438078715,17.7775494620865
0.0196232933948374,17.7796992162997
0.0185689348008512,17.7818465485164
0.0175282938922232,17.7840031508178
0.0165045217323747,17.7861785997349
0.0155004920771924,17.7883811175338
0.0145188069361187,17.7906180645557
0.0135618090312035,17.7928962691635
0.0126315939535521,17.795222267912
0.0117300163211769,17.7976025053133
0.0108587327923638,17.8000434862978
0.0100191877046376,17.8025519146897
0.00921256623358936,17.8051348418207
0.00843589399190722,17.8078139797963
0.00767185152100129,17.8106717482726
0.00692426982660886,17.8137283129487
0.00619692386381426,17.8170079607774
0.00549379717601952,17.8205387250274
0.00481904428536656,17.8243530740038
0.00417691892026155,17.8284888291358
0.00357165697462019,17.8329904927069
0.0030072912723835,17.837911471941
0.00248739370724304,17.8433181020521
0.00201480535370468,17.8492966123087
0.00159155360258325,17.8559627244209
0.00123147209146967,17.8631878590531
0.000931703881952068,17.8710147299559
0.00068783512035909,17.8795753516433
0.000541637879573252,17.8868721929585
0.000403270294072171,17.8963423191725
0.000300996671239142,17.9062998228181
0.000229409758332634,17.9162998228181
0.000180002849364255,17.9262998228181
0.000146430272427533,17.9362998228181
0.000124041940376797,17.9462998228181
0.000109473112177267,17.9562998228181
0.000100363560747844,17.9662998228181
9.50980480714117e-05,17.9762998228181
9.25831102631814e-05,17.9862998228181
9.20792286465234e-05,17.9962998228181
9.30863572835037e-05,18.0062998228181
9.5269219571443e-05,18.0162998228181
9.84084445254133e-05,18.0262998228181
0.000102367786856775,18.0362998228181
0.000107071704604894,18.0462998228181
0.000112490073015188,18.0562998228181
0.000118628083146055,18.0662998228181
0.00012552001111874,18.0762998228181
0.000133225939684539,18.0862998228181
0.000141830825786056,18.0962998228181
0.000151445577074038,18.1062998228182
0.000162210038319108,18.1162998228182
0.000174298011757072,18.1262998228182
0.000187924670921568,18.1362998228182
0.00020335701305314,18.1462998228182
0.00022092838215024,18.1562998228182
0.000241058659375132,18.1662998228182
0.000264282582315888,18.1762998228182
0.000291290027410951,18.1862998228182
0.000322984337571864,18.1962998228182
0.000360568569805915,18.2062998228182
0.00040567614252887,18.2162998228182
0.000460574266689379,18.2262998228182
0.00052330462783092,18.2356005453637
0.000594419139633072,18.24418317584
0.000674983645839442,18.2521012275677
0.000766256967014816,18.2594070345765
0.000869677939965823,18.2661491808037
0.000986878800711854,18.2723727140295
0.00111970846913955,18.2781194320535
0.00127026112995711,18.283428126758
0.00144091016076936,18.2883347894047
0.00163434461658021,18.2928728227133
0.00185361615374697,18.2970732526646
0.00210219141999712,18.3009649267852
0.00238401728907629,18.3045746870071
0.00270360063722567,18.3079275522478
0.00306610901949756,18.3110469157866
0.00347750276794871,18.3139547429316
0.00394470661855155,18.3166717837662
0.00447584732475771,18.3192178310331
0.00508059166588645,18.3216120361733
0.00577064459822,18.3238733282633
0.0065355746480463,18.3259589256088
0.00738129267968911,18.3278932117523
0.0083210648833246,18.3297107652227
0.00937512959756324,18.331447313268
0.0105778076723085,18.3331461543706
0.012011385035793,18.3348903612834
0.0139716986126368,18.3369395358884
0.0156222274430398,18.3384670218268
0.0174050648668049,18.3399945077652
0.0190674945236921,18.3413631567974
0.020528024980443,18.3425682373795
0.0218364397890794,18.3436952161818
0.0230043117169359,18.3447941390282
0.024020826348837,18.3459034446649
0.0248581334000324,18.3470662416457
0.025462548739198,18.3483515789374
0.0257066544376125,18.3499332559159
0.0253357435930786,18.3517312748325
0.0243776316612016,18.353529293749
0.0232656628730895,18.3549960277316
0.0220184608417135,18.3563910721775
0.0206312430426692,18.3578091154042
0.0191124051179976,18.359293866228
0.0174691099694197,18.3608831099463
0.0157319409991499,18.3626243727525
0.0143111182088022,18.3641602432534
0.01254044466125,18.3662586308093
0.010937250588371,18.3683865620106
0.00941106231986922,18.3706808810745
0.00796439348265291,18.3731837663805
0.00707067804300645,18.3749434898127
0.00626899610188365,18.376703213245
0.00561939710737168,18.378286852237
0.00506295045847344,18.3797827541098
0.00455393119296131,18.3812894212442
0.00406086462349633,18.382903820544
0.00354610975515581,18.384793060877
0.00289790771609,18.3875648839222
0.00230959615142383,18.3906204834504
0.00188013003850108,18.3933363296439
0.00151932236952384,18.3960967889273
0.00117721744726908,18.3993422472433
0.000862622168934029,18.403253910475
0.000618483624448137,18.4075469229497
0.000451950568859597,18.4122992788075
0.00038504074874953,18.4170545449274
0.0004123570990733,18.4212966331598
0.000517945886043748,18.4251174884043
0.000694242257112402,18.4285549136444
0.000938331973585117,18.4316581074219
0.0012505074195912,18.4344758009275
0.00163395933151809,18.4370568880419
0.0020956415571416,18.439452364742
0.00264806395568427,18.4417164583188
0.003312064815154,18.4439078769899
0.0041277191571322,18.4461087298416
0.00517703420724129,18.4484481306689
0.00663853493709301,18.4511500690081
0.00846568708719839,18.4539742770457
0.00992768273728642,18.4559292152028
0.0115839009682206,18.4578841533598
0.0132830635589731,18.4596423717223
0.0150326514828601,18.4612257255611
0.0169175853097027,18.4627123846479
0.0189787364926503,18.4641221617271
0.0212608232657465,18.4654702643084
0.0238093890886624,18.4667663835989
0.0266622913996344,18.4680128033651
0.0298653383283636,18.4692136099802
0.0334674780211476,18.4703718479655
0.0375158680443265,18.4714884150904
0.0420751446599395,18.4725675056475
0.0472141411707249,18.4736118603579
0.053012136841515,18.474624266316
0.0595629186575863,18.4756078210932
0.0669810046890388,18.4765662082411
0.0754021228478933,18.4775030264479
0.0849914281093133,18.4784221636348
0.0959511961351342,18.4793277887786
0.108537606771835,18.4802248394558
0.123075951346108,18.4811189062582
0.139990583552121,18.4820167094406
0.159852162865361,18.4829267358162
0.183463123069286,18.4838604965971
0.210852292234823,18.4847977178247
0.242612270822873,18.4857434965006
0.279623804873645,18.4867099727483
0.323202111577282,18.4877187211507
0.362357418565225,18.488546027921
0.403723527884396,18.4893733346912
0.439842868794982,18.4900839013772
0.471149733188115,18.4907158016385
0.498631858866852,18.491310215325
0.522486365315709,18.4918935592589
0.542397648524997,18.4924889547698
0.557493544435054,18.4931252280341
0.565771500001672,18.4938545583058
0.56339892401567,18.4946234723288
0.54889432195025,18.4954240055056
0.520675373886223,18.4962754779593
0.477114572101748,18.4971822772636
0.418926284384308,18.4981130210396
0.368470985575164,18.4987932504724
0.312276553547531,18.4994734799052
0.263317274974357,18.5000282565707
0.222355652960062,18.5004804231461
0.186912010926962,18.5008722252358
0.155444860621135,18.5012276904972
0.127081600451011,18.5015607166194
0.101256008527986,18.5018808444979
0.0775313593792407,18.5021961480461
0.0554819217466896,18.5025156005027
0.0344979098882419,18.5028538348733
0.0128480101496004,18.5032551827191
0.000281545000261577,18.5035242949866
-0.00727964294576454,18.5037041827554
-0.0141984858733411,18.5038840705242
-0.020226668857465,18.5040556493635
-0.0263794490934271,18.5042487234472
-0.0324162271992426,18.504460752182
-0.038135731917839,18.5046889257962
-0.0434230312756358,18.504932012683
-0.0482161926498893,18.505189847264
-0.052485143604796,18.505463002016
-0.0562192878373428,18.5057526210283
-0.0594200466609888,18.5060603520438
-0.0621682994877725,18.5064000144425
-0.0642728648708914,18.5067486435937
-0.0658749987027738,18.5071231620526
-0.0669906979502829,18.5075278213091
-0.0676332019252072,18.5079677056203
-0.0678125141099649,18.5084492265928
-0.0675334178077103,18.5089806297773
-0.0667916001447203,18.5095735305017
-0.0655680951041861,18.5102440123652
-0.0638223038642139,18.5110149657509
-0.0614710870544526,18.5119238064483
-0.0583221447589019,18.5130455214891
-0.0541226662292309,18.5144779178907
-0.0500188326690905,18.5158594782149
-0.0460739599663046,18.5171997240947
-0.0423224945549482,18.5185017059838
-0.0387826440343948,18.5197665889334
-0.0354638599121357,18.5209945868852
-0.0323699509486001,18.5221854516138
-0.0295006067413153,18.523338731064
-0.0268523089389517,18.5244539046285
-0.0244189944654471,18.5255304505851
-0.0221926083851947,18.5265678741136
-0.0201635963226751,18.527565710935
-0.0183213511971203,18.5285235148115
-0.0166546158612128,18.5294408334765
-0.0150759836659058,18.5303628257303
-0.0135571207613223,18.5313085238426
-0.0121023498882716,18.5322796269006
-0.0107155625710357,18.5332782956431
-0.00940044283463979,18.5343070703534
-0.0081604139118562,18.5353689665047
-0.00699858442646042,18.5364675997102
-0.00591769185293956,18.5376073545971
-0.00492004289724938,18.5387936185016
-0.00400744983187224,18.5400331140053
-0.00318116079216761,18.5413343880834
-0.0024417802006249,18.5427085611164
-0.00178917188097144,18.5441705323024
-0.00122232968997214,18.5457410464592
-0.000757394922722179,18.5473771557732
-0.000388850679190033,18.549063552833
-0.000100675401475215,18.5508186213411
0.000121715301913808,18.5526647459017
0.00029214668571181,18.5546321402737
0.000424175128464247,18.5567642576217
0.000531876700091042,18.5591293519784
0.000631518602148078,18.5618500660503
0.00074691624487181,18.565208600686
0.000886849791612217,18.5689619966459
0.00106109047235896,18.5730512530949
0.00126802645513095,18.5773963962314
0.00148696668876244,18.5816988968264
0.00172295922111517,18.5862068317734
0.00198855687059232,18.5912598586699
0.00224429983323579,18.5961533625044
0.0025031122441023,18.6011441270785
0.00272711973194612,18.6054668932408
0.00293316979132607,18.6094272306481
0.00313341598825467,18.6132409502239
0.00333400586862546,18.6170082974456
0.00353906065043753,18.620789536394
0.00375195264023303,18.624628227525
0.00397581422667884,18.6285598251052
0.00421380866459622,18.6326157265099
0.00446934625004703,18.6368260776932
0.00474625410109271,18.6412213015777
0.00504898523130907,18.6458333698729
0.00538294692676033,18.6506971340465
0.00575503625891638,18.6558515194187
0.006150019254313,18.661025767216
0.00656327576431258,18.6661217525967
0.00699888135077645,18.6711521799471
0.00745963349233095,18.6761051661489
0.00795041807106111,18.680986168949
0.00847670152101914,18.6857992683937
0.00904473618037003,18.6905488726963
0.00966135714783431,18.6952371976766
0.0103340528639915,18.6998646094476
0.0110838576885976,18.70450555348
0.0119276812072741,18.709175389612
0.0128851711816314,18.7138836313871
0.0139838940926385,18.718655772251
0.0152666068355183,18.7235499849206
0.0168146480671763,18.7287129354049
0.0188580094972554,18.7346362805083
0.0206755369559228,18.7393384764491
0.0226165803163068,18.7440406723899
0.0242087823330379,18.747851833693
0.0255245463650345,18.7511483328949
0.0266272841703358,18.7542198518005
0.0275174010491705,18.757209503832
0.0281371543399999,18.7600492584168
0.0284892710138791,18.7628588000391
0.0285508453308458,18.7657827586521
0.0282368566261746,18.7690920821723
0.0272470804951029,18.773449931837
0.0263548522292429,18.7761512392033
0.0252966125522076,18.7788525465696
0.0242238553706637,18.7813114436553
0.0231501768406182,18.783618298115
0.0220757312774661,18.7858409097236
0.0210032021355594,18.7880169638491
0.0199362123072839,18.7901700613491
0.0188784565674757,18.7923167236252
0.0178334348230504,18.7944694818473
0.0168043814608506,18.7966384364388
0.0157942514145998,18.798832148216
0.014805725374812,18.8010581918863
0.0138412227220541,18.803323520643
0.0129029092940707,18.8056347387389
0.0119927099764668,18.8079982996535
0.011112332913407,18.8104206697729
0.0102632980343818,18.8129084868007
0.00944685973884014,18.8154686808758
0.00866405703297223,18.8181086268757
0.00789587414409771,18.8209117471865
0.00714303863659187,18.8239072785428
0.00640930089977586,18.8271183730348
0.00569858808714887,18.8305718850563
0.00501500962902982,18.8342988939111
0.00436279936510107,18.8383355315655
0.00374621404680029,18.8427241562649
0.00316936861963106,18.8475152531699
0.00263600961760904,18.8527706930646
0.0021492076471524,18.8585699930845
0.00171122166473544,18.8650190913095
0.00133192170908003,18.8720851226218
0.00101492480747629,18.87972099525
0.000753572429421021,18.888047398738
0.000565650203662076,18.8965577394609
0.000437645575038294,18.9047447056362
0.000324680662764714,18.9147447056362
0.000245978117748433,18.9247447056362
0.000191414840221881,18.9347447056362
0.000154133111966112,18.9447447056362
0.000129128173538983,18.9547447056362
0.000112736579782109,18.9647447056362
0.000102356091688196,18.9747447056362
9.61930363489684e-05,18.9847447056362
9.30313968613161e-05,18.9947447056363
9.2049903284451e-05,19.0047447056363
9.26935324338105e-05,19.0147447056363
9.45890179683382e-05,19.0247447056363
9.74900134175048e-05,19.0347447056363
0.000101240731190272,19.0447447056363
0.000105751211373166,19.0547447056363
0.000110980402119762,19.0647447056363
0.000116924839025398,19.0747447056363
0.000123611487413683,19.0847447056363
0.000131093746028804,19.0947447056363
0.000139449931639852,19.1047447056363
0.000148783839568765,19.1147447056363
0.000159227219289612,19.1247447056363
0.000170944229299615,19.1347447056363
0.000184138164840248,19.1447447056363
0.000199061020181605,19.1547447056363
0.000216026801113256,19.1647447056363
0.000235430011158545,19.1747447056363
0.000257771504191772,19.1847447056363
0.000283695106448679,19.1947447056363
0.000314040376781045,19.2047447056363
0.000349920164491656,19.2147447056363
0.000392837305142028,19.2247447056363
0.000444864937434536,19.2347447056363
0.000505430703521641,19.2442435011955
0.000574160803165695,19.2530164873296
0.000652032487918465,19.2611102246118
0.000740253560775543,19.2685778375912
0.000840212334894429,19.2754689186685
0.000953485993296354,19.28182944901
0.00108186175288603,19.2877020854556
0.00122736380026908,19.2931264180089
0.0013922861066927,19.2981391797632
0.00157922744069198,19.3027744576713
0.00179113602583428,19.3070639043085
0.00203135912622978,19.3110369429847
0.00230370613622245,19.3147209445137
0.00261252201985288,19.3181414054573
0.00296278284750087,19.3213221419934
0.00336021825726954,19.3242854888319
0.00381146957287604,19.3270525037482
0.00432430787898774,19.3296432115155
0.00490793955367832,19.3320769026452
0.00557345148524836,19.3343725159759
0.00631779350761321,19.3365055106702
0.00714020649858917,19.3384779079688
0.00805249127712417,19.3403240947975
0.00907253494692114,19.3420790878039
0.0102295963733657,19.3437830601707
0.0115798635768796,19.34549474904
0.0133418114652526,19.3474174948995
0.0151799265720296,19.3491739900961
0.0172051200876341,19.3509304852926
0.0189222514708234,19.3523473209683
0.0204006861754205,19.3535648497409
0.0217221883421985,19.3546966219758
0.0229031546131283,19.3557964767791
0.0239344472732816,19.3569032106606
0.0247899094666365,19.3580588560172
0.0254191472060489,19.3593285045446
0.0257069383489818,19.3608674691603
0.0253861719177613,19.3626985748517
0.024445922879405,19.364529680543
0.0233418287460278,19.366007851103
0.0221037352673958,19.3674036424772
0.020725316585625,19.3688186984968
0.0192146878740683,19.3702980347876
0.0175793004725757,19.3718792743495
0.0162083634770523,19.3732360024251
0.0149174955213682,19.3745927305008
0.0130827178594403,19.3766934257598
0.0114341440608777,19.3788021765466
0.00989736779324685,19.3810186714808
0.00836497726816075,19.3835547189937
0.00736030913257018,19.3854545775207
0.00646624169670913,19.3873544360478
0.00577709328696417,19.3889900509792
0.00520176391926037,19.3904984791075
0.0046836663366686,19.3919938249921
0.00418943628860489,19.3935688126446
0.00368547805523248,19.3953606244838
0.00309827375914123,19.3977552254524
0.00248394631786596,19.4007503888351
0.00202075961207165,19.4034931179738
0.00164703183510229,19.4061604333236
0.00130236085281227,19.4091670644112
0.000963676250684062,19.4129638024399
0.000694586723362591,19.4171201261691
0.000499911330857457,19.4217022898811
0.000395361188539695,19.4266611868686
0.000394173411548219,19.4310484153072
0.000475080999139856,19.4350052709201
0.000628574249461615,19.4385635913427
0.000850433195155268,19.4417717624503
0.00113992687877959,19.444677955486
0.00149929684415715,19.4473314594033
0.00193405657707389,19.4497820940459
0.00245470894071502,19.4520833039433
0.00307873751250761,19.4542912884913
0.00383797957038595,19.4564776284963
0.00479686588503463,19.4587525625217
0.00609212276125191,19.4613004720831
0.00779826984068104,19.4641011257286
0.00929610381922808,19.4662160137255
0.0110035668071725,19.4683309017224
0.0126997415622462,19.4701678708278
0.0144242851584808,19.4718022023731
0.0162505051556644,19.4733129333378
0.018247811191321,19.4747484344822
0.0204467050107356,19.4761151382911
0.0229015550012828,19.4774299983929
0.0256433032855757,19.4786922846513
0.0287226216308536,19.4799091865456
0.0321793982356193,19.4810809516468
0.0360677497800686,19.4822114882812
0.040445741712322,19.4833036006039
0.0453774854193789,19.4843596793888
0.0509375304823327,19.485382448873
0.0572177420392894,19.4863755603037
0.0643242503551026,19.4873423111424
0.0723839580699264,19.4882861812671
0.0815497869472737,19.4892108427112
0.0920122054327645,19.4901205852195
0.104006844120676,19.4910200235367
0.117832186746969,19.4919144499079
0.133874243849179,19.4928101349576
0.152645479697336,19.4937148234061
0.174855851719112,19.4946388250111
0.200891742567028,19.4955751120834
0.231048626379437,19.4965167974635
0.266119081793543,19.4974743275727
0.307222347326247,19.498464861349
0.356324613259505,19.4995251669369
0.392109868456544,19.5002470544137
0.428790781756162,19.5009689418906
0.461428853732891,19.5016192916678
0.490099481533271,19.5022225027331
0.515144776726306,19.5028069259193
0.536401252524725,19.5033957231315
0.553204956177169,19.5040147172087
0.56404886995788,19.5047049822615
0.565479098421295,19.5054680166162
0.555156957035293,19.5062557113862
0.531722562951562,19.5070882906667
0.493152700970832,19.5079825005063
0.439891181411278,19.5089040665088
0.374413718591417,19.5098202535066
0.328732194353459,19.5103834173957
0.279844283472545,19.5109465812848
0.236645056245348,19.5114261816333
0.199435001633051,19.5118362212938
0.166632531662994,19.5122030575901
0.13720361674708,19.5125430830795
0.110498695873584,19.5128669908218
0.0860479833595351,19.5131831338952
0.0634363213843862,19.5134998244257
0.042159981691509,19.5138286401364
0.0211667052721476,19.5141961407696
0.005302059376394,19.5145158487737
-0.002963209135424,19.5147026386616
-0.0105190370196107,19.5148894285496
-0.01701963401219,19.5150654987292
-0.023126481945989,19.5152471690588
-0.0292566755032354,19.5154496577891
-0.0351626622293528,19.515669544576
-0.0406887008192241,19.5159048325468
-0.0457482674876288,19.5161548476286
-0.0502964463987958,19.5164198015952
-0.0543135289662136,19.5167005502253
-0.0577953130433848,19.5169984792251
-0.0607440014457962,19.5173154695233
-0.0632715649057873,19.5176722938583
-0.0651266562136499,19.51803342957
-0.0664864442085515,19.5184222900766
-0.0673666334251209,19.5188436615395
-0.0677790907105257,19.5193032365011
-0.0677315218107382,19.5198082554608
-0.0672251691373863,19.5203681539905
-0.0662487042353027,19.5209970941475
-0.0647740462698524,19.521713723629
-0.0627435870310264,19.5225467200096
-0.0600349532336326,19.5235469804624
-0.0563174548626749,19.5248372238383
-0.0521559129137704,19.5262426249239
-0.04812191468592,19.5276040480779
-0.0442659774472659,19.5289259152447
-0.0406134681311907,19.5302102232735
-0.0371778892103626,19.5314576079147
-0.0339657644701704,19.5326680228892
-0.0309788106427681,19.5338411018733
-0.028215102022304,19.5349763494427
-0.0256698386137041,19.5360732395759
-0.0233359472030963,19.5371312620018
-0.0212046024871147,19.5381499373643
-0.0192656971913886,19.5391288124909
-0.0175082681681384,19.5400674420148
-0.0159002382346467,19.5409773921982
-0.0143492431349383,19.5419104753847
-0.012860225953887,19.5428679514142
-0.0114371645109834,19.5438518133576
-0.010083859489934,19.5448643907277
-0.00880387802749888,19.5459084353726
-0.00760050132574274,19.5469872289745
-0.00647666955753941,19.5481047267635
-0.00543492395137588,19.5492657538374
-0.00447734542532974,19.5504762802851
-0.00360548839463331,19.5517438185732
-0.00282030703901388,19.5530780187119
-0.00212206879825072,19.5544916000149
-0.00151024474601754,19.5560018931324
-0.000987572899203031,19.5576187900317
-0.000570781193056965,19.5592763997996
-0.00024241456719514,19.5609930981049
1.26505779535781e-05,19.5627883684024
0.000208587730783632,19.5646878686813
0.000359020608181001,19.5667271959982
0.000477623563235122,19.568959536117
0.000579203653890968,19.5714732379911
0.000682430085964312,19.5744430069688
0.00081448577126166,19.5781804163305
0.000968232983138169,19.5820411077017
0.00116754336466866,19.5864374802855
0.00138091612675015,19.5907415080907
0.00160736930838121,19.5951098901045
0.00185938433027007,19.5999030822018
0.0021179846614269,19.6048336543524
0.00237324316810034,19.6097388693292
0.00261647048805569,19.6144352017433
0.00282949432960853,19.6185407639176
0.00303170028417797,19.6224123054249
0.00323151766716203,19.6261940919888
0.00343384646322525,19.6299620665878
0.0036423474990334,19.6337666756039
0.00386023456436128,19.6376468632577
0.00409062447890107,19.641635657307
0.00433677953510056,19.6457636001355
0.00460229221066963,19.6500608045317
0.00489126536562516,19.6545582942999
0.00520856786336571,19.659289279194
0.00556025579408981,19.6642905004089
0.00594995392989655,19.6695463189995
0.00635158975059561,19.6746544293943
0.0067763043633596,19.6797280966699
0.00722362185795441,19.6847173970731
0.00769866926029425,19.6896348363948
0.00820627742675861,19.6944813804568
0.00875242796092503,19.6992626539545
0.00934363306915879,19.7039817394479
0.00998704790065017,19.708639941835
0.0106944593676862,19.7132614307186
0.0114890091194848,19.7179179121737
0.0123862103438936,19.7226044250507
0.0134095403031616,19.7273398133174
0.014592534120305,19.7321617226991
0.0159921000193288,19.7371605389916
0.0177348000520506,19.7425876891615
0.0201529796081972,19.7491299004747
0.0217515803013758,19.7530727984543
0.023401985883894,19.7570156964338
0.0248424192719705,19.7605128145696
0.0260564976407937,19.7636800638779
0.0270649970609232,19.766704631067
0.0278307144705699,19.7696098928418
0.0283300526736153,19.7724202332208
0.0285557439678754,19.7752603183424
0.0284649722441732,19.7783079729055
0.0278946609035176,19.7820291979795
0.027075040222381,19.7851197716753
0.0259966250851466,19.7882103453711
0.024913510878276,19.7908562578887
0.0238393812638945,19.7932528278883
0.0227651691073836,19.7955239999176
0.0216910104079571,19.7977266384711
0.020620029802734,19.7998922779217
0.0195559269526375,19.8020414738461
0.0185023412352283,19.8041890752148
0.0174626818933605,19.8063466081582
0.0164400821852732,19.8085235444064
0.0154373982217068,19.8107280391932
0.0144572154616957,19.8129674097415
0.0135018602149253,19.8152484602311
0.0125734128120361,19.8175777152948
0.0116737131545569,19.8199616184855
0.0108044067523774,19.8224066851051
0.00996692168879056,19.8249196348446
0.00916242840145249,19.8275075464807
0.00838646120695686,19.830197570182
0.0076233658707762,19.8330674249033
0.00687696651089266,19.836137533574
0.00615105268647678,19.8394324032585
0.0054496200503375,19.8429803302769
0.00477683191523697,19.8468140964043
0.00413694512234501,19.8509719047998
0.00353418903378857,19.8554987476854
0.00297257537725642,19.8604487137671
0.0024556358653879,19.8658891767947
0.0019861592982114,19.8719079455404
0.00156612537633608,19.8786229871579
0.00121016982184548,19.8858842425478
0.000914099446627103,19.8937545180306
0.000674432736460183,19.9023684751822
0.000524071729963811,19.9101059957421
0.000391756108030556,19.9195073509842
0.000292596624769931,19.9295073509842
0.000223588327137909,19.9395073509842
0.000176022841909706,19.9495073509842
0.000143755041466598,19.9595073509842
0.000122280568569102,19.9695073509842
0.000108348854460146,19.9795073509842
9.96858449716684e-05,19.9895073509842
9.68353248471772e-05,19.9947536754921
9.4773329994577e-05,20
