ecg,time
0.000328014513663975,15.005102334575
0.000290043144207282,15.015102334575
0.000268647217098142,15.025102334575
0.00025933572408561,15.035102334575
0.000259109871899818,15.045102334575
0.000266088450782666,15.055102334575
0.000279206222104596,15.065102334575
0.000298011034185187,15.075102334575
0.000322553866271022,15.085102334575
0.00035335610536057,15.095102334575
0.000391445892987854,15.105102334575
0.000438471043620528,15.115102334575
0.000496178954373345,15.124986584342
0.000562571467865158,15.1341195972033
0.000638458287225038,15.1425368264807
0.000725025004863456,15.150295472043
0.00082369228720108,15.1574490734509
0.000936098867190845,15.1640469979093
0.00106411242295173,15.1701348329711
0.00120985429221788,15.1757547434545
0.00137573194313935,15.1809457727674
0.00156447774525435,15.1857441075986
0.00177919465323221,15.190183322884
0.00202341215054591,15.1942946129584
0.00230115439753143,15.1981070095194
0.00261702519413544,15.2016475941199
0.00297631739025094,15.2049417184227
0.00338515550012321,15.208013241153
0.00385068895418627,15.2108847919253
0.00438136151422595,15.2135780882528
0.00498730329257846,15.2161143473636
0.00568093006283381,15.2185148642311
0.00645115695539554,15.2207316161301
0.007307820389218,15.2227997897108
0.00826816947439862,15.2247605708263
0.00936073689748429,15.226661041272
0.0106411971217628,15.2285702993923
0.0122841376822006,15.2306748284961
0.0139276890924178,15.2325232423293
0.0157302751268512,15.2343716561625
0.0172832860423215,15.235890872691
0.0186217184785182,15.2372002031139
0.0198136902352764,15.2384158577407
0.0208727686075056,15.2395946897328
0.0217895787573206,15.2407773958623
0.0225390176130243,15.2420072211757
0.0230735536221237,15.2433494451945
0.0232872640780071,15.2449535803458
0.0229321808297296,15.2469008177118
0.0219906116226083,15.2488480550778
0.020911172822297,15.250406172812
0.0197207979257622,15.2518609771943
0.0184107243338107,15.253322798855
0.0169886024757078,15.2548379966004
0.0154625412356268,15.2564427916163
0.0139097456888628,15.2581442947098
0.0116380463999767,15.2609166403911
0.00964447573218658,15.263729544419
0.00805072232611322,15.2663413705289
0.0067308287694225,15.2688459631177
0.00557461116365946,15.2713901501949
0.00455581479435263,15.2740036844561
0.00365608628533437,15.2767101131668
0.00286953347889311,15.2794982732632
0.0022394867790157,15.282120281378
0.00172600724257451,15.284599971482
0.00129836138819769,15.2869713641406
0.000934115369684541,15.2892700130218
0.000616504987840912,15.2915344236391
0.000332102237284769,15.2938124938467
6.73145950307143e-05,15.296188076559
-0.000202425506147226,15.2989065447676
-0.000393330088501288,15.3010400470741
-0.000568944526804554,15.3031735493806
-0.000709134493345562,15.3050030113557
-0.000828128265298372,15.306648086288
-0.000938373528341695,15.3082497819787
-0.00104731300175556,15.3099065979325
-0.00116272117048743,15.3117419129418
-0.00130031592574587,15.3140357653786
-0.00154246229721427,15.3183369332076
-0.00175084265335323,15.3222939486874
-0.00192088285441528,15.3256948632779
-0.00209463212935916,15.3293460646436
-0.00230285950898049,15.3340442165676
-0.00250814943831616,15.3393912787729
-0.00264443719906793,15.3443360415294
-0.00269165241889782,15.348765833882
-0.00264389777414631,15.3526209044859
-0.00249536028357854,15.3561978995385
-0.0022460289590815,15.359441451014
-0.00189708651803949,15.3624102940477
-0.00144688026681276,15.3651676163107
-0.000888979363326011,15.3677726062707
-0.00020737326681623,15.3702927532061
0.000634608334781326,15.3728238384017
0.00174126093819352,15.3755752510263
0.00318346021139864,15.3785924582534
0.00496793038027107,15.3818127482489
0.00645538165648843,15.384210979916
0.00809709242170901,15.3866092115831
0.00960740788495468,15.3885941534611
0.0111493828376173,15.390409969593
0.012717954745187,15.3920518258306
0.014427073252957,15.3936305831838
0.0162808668458983,15.3951300631887
0.0183361913322161,15.3965776513297
0.0206158095062037,15.3979693054004
0.0231575570180528,15.3993103154366
0.0259970713365338,15.4006025272723
0.0291667030289779,15.4018454566763
0.0327146369251605,15.4030438086585
0.0366895771955153,15.4042000663026
0.0411477966735141,15.4053170675312
0.0461531182208335,15.406397545075
0.0517858493173959,15.4074455150687
0.0581386233216398,15.4084645579703
0.0653225792246231,15.4094584711498
0.0734727749051713,15.4104313509169
0.0827548048576776,15.411387620658
0.0933783567608473,15.4123324956052
0.105611350689059,15.4132719894396
0.119807026558246,15.4142134880639
0.13644853946231,15.4151665794062
0.156231104838786,15.4161446238448
0.179321962670035,15.4171319193998
0.206125292775859,15.4181283188419
0.237409345067649,15.4191468190058
0.274261987465765,15.4202074137355
0.318188004944736,15.4213406185119
0.352791765190968,15.4221707285588
0.388555413533369,15.4230008386058
0.420379310354204,15.4237416518817
0.448242652014529,15.4244190040705
0.472510129478804,15.4250640627644
0.493103970703263,15.4257002853065
0.509538000903958,15.4263499165466
0.520771341743785,15.4270407366527
0.524616135915858,15.4278194944351
0.51794459555706,15.4286320988319
0.499418527506426,15.4294711468276
0.46752930644592,15.4303511492819
0.420440260053239,15.4312821656547
0.373186785482759,15.4320309624528
0.318483144230565,15.4327797592509
0.270035745499657,15.433384102955
0.229495041445065,15.4338683812699
0.194444873744901,15.4342826687251
0.163320821916134,15.4346550570686
0.135253237311759,15.4350012357286
0.109693710355255,15.4353314868814
0.086236516260157,15.4356539326187
0.0645168772131086,15.435976651781
0.0440915588948427,15.4363106956109
0.0240672128476106,15.43668022374
0.00877148645139766,15.4370036908568
0.000198487760726227,15.4372069873919
-0.00760385688201555,15.437410283927
-0.0140664400887624,15.4375953756673
-0.0200312522437287,15.4377831915289
-0.0260126771539163,15.4379923665956
-0.0317707306306551,15.4382194014809
-0.0371534659291346,15.4384622095463
-0.0420770431958669,15.4387200870452
-0.0464982588224115,15.4389932485188
-0.0503969416839797,15.4392825701157
-0.0540109216808521,15.4396156369217
-0.0567742306515475,15.4399411775521
-0.0590220919555046,15.4402882422743
-0.0607717044094448,15.4406602357446
-0.0620374475244267,15.4410608983227
-0.0628328377676357,15.4414948504903
-0.0631690312297398,15.4419678641864
-0.063053118527709,15.442487264417
-0.0624856228452766,15.4430627952166
-0.0614549141813596,15.4437085918633
-0.0599334289948823,15.4444433801389
-0.0578653239469576,15.4452958368404
-0.0551330543682806,15.4463165395544
-0.0514229903930297,15.4476258189137
-0.0473917920430403,15.4490158372904
-0.0435017068142808,15.4503608173229
-0.0397978151667698,15.4516650130462
-0.0363019341817906,15.4529305680894
-0.0330250045847371,15.4541582586294
-0.0299714328680848,15.4553481686219
-0.0271411060516103,15.4565000501419
-0.024530522918776,15.4576135128154
-0.0221335623787483,15.4586881207395
-0.0199420882828363,15.459723437011
-0.0179464677942317,15.4607190368544
-0.0161360302018798,15.4616745006884
-0.0144994741290157,15.4625893933564
-0.012943689623964,15.4635131338399
-0.0114484374862205,15.4644606410756
-0.0100179874356696,15.4654336721538
-0.00865624524499646,15.4664344129733
-0.00736690924974001,15.4674654344355
-0.00615341894239885,15.468529789584
-0.00501890284772387,15.4696311410655
-0.00396612420803883,15.4707739336153
-0.00299742436106821,15.4719636331296
-0.00211466324146752,15.4732070675209
-0.00131915570357887,15.4745129292985
-0.000611601047746436,15.4758925474198
7.99938930528968e-06,15.4773611340726
0.000540446982184784,15.4789399327415
0.000969142599577951,15.4805790486367
0.00130239949088001,15.4822697102214
0.00155587397623355,15.4840303727565
0.00174384747765334,15.4858838521349
0.00187979880163782,15.4878610533615
0.00197685794170985,15.4900066487072
0.00204851753364873,15.4923913182945
0.00211012312334692,15.4951435905687
0.00218370020676159,15.4985667384693
0.00228083277505975,15.5023295662337
0.00241488148729195,15.5064578307973
0.00256721296919454,15.5104089075702
0.00273015341111,15.5142131997693
0.00290121719517036,15.5179686128414
0.0030792075740266,15.5217362915741
0.00326412362682977,15.5255600735474
0.00345697389698153,15.5294755883484
0.00365957578012342,15.5335145861223
0.00387439248104186,15.5377074755333
0.00410442093367177,15.5420850059316
0.00435316047326364,15.5466795965837
0.00462472343054124,15.5515267665662
0.0049241500424268,15.556666492574
0.00525801963680606,15.5621444494167
0.00559863543616967,15.5674488887708
0.00595629940419728,15.5727120653706
0.00632993280604314,15.5778732486928
0.00672411329609087,15.5829529089926
0.00714265825403415,15.5879543487172
0.00759026572930171,15.5928868009967
0.00807184378241577,15.5977557630255
0.00859272923181808,15.6025649248193
0.00915871740503645,15.6073156766293
0.00977618969964331,15.61200767818
0.010452248567247,15.6166394534964
0.0112088854794566,15.6212910261013
0.0120622320948318,15.6259712364154
0.0130326102705632,15.6306918098552
0.0141486946727497,15.6354808659622
0.0154560499308794,15.6404035479642
0.0170445651650671,15.6456271609759
0.0191903779580373,15.6517526863579
0.0209355461857374,15.6562199113726
0.0227827060425538,15.6606871363873
0.0243351640510625,15.6644206446442
0.0256277359015104,15.667690555079
0.0267103569415329,15.6707537829393
0.0275750838363125,15.6737292613315
0.0281707933644266,15.6765656245039
0.0284983063901023,15.6793829453711
0.0285314076581921,15.6823306693482
0.0281746402611954,15.6857052570135
0.0271475250984214,15.6900420414795
0.0262465727658088,15.6927155178478
0.0251876671999477,15.6953889942161
0.0241150352765994,15.6978336276659
0.023041098317045,15.7001350172431
0.0219664985050523,15.7023567445569
0.0208940825290689,15.7045347595989
0.0198274941984702,15.7066918933926
0.0187704069013047,15.708844294885
0.0177262883943627,15.7110043166436
0.0166983368749356,15.7131819978672
0.0156894718474483,15.7153859150658
0.0147023390701361,15.7176237212991
0.0137393233462418,15.7199025054154
0.0128025594139607,15.7222290572359
0.0118939404191773,15.7246100797447
0.0110151326959384,15.7270523500435
0.010167578431373,15.7295628936934
0.0093525118926379,15.7321491161475
0.00857096261791907,15.7348189751481
0.00780588901782722,15.7376500852844
0.0070566350404253,15.7406768894263
0.00632700061146357,15.7439229710908
0.00562093780957857,15.7474157962298
0.00494257658933729,15.7511871799517
0.0042961621091009,15.7552741642908
0.00368594897359131,15.7597202675307
0.00311602926501906,15.7645775471631
0.00259010218714919,15.7699101430565
0.00211116846269467,15.7758010734003
0.00168143439839323,15.7823614453274
0.00131295879704177,15.7895096280959
0.0010131677030515,15.7972426955332
0.000813726099262898,15.804493208323
0.000647179008027236,15.8126958577541
0.000511371092068566,15.8219149570568
0.000409198167324238,15.8319149570568
0.000341506429489722,15.8419149570568
0.000298748106612263,15.8519149570568
0.000273994709744474,15.8619149570568
0.000262334194497283,15.8719149570568
0.000260448808497767,15.8819149570568
0.000266227713587005,15.8919149570568
0.000278445029848675,15.9019149570568
0.000296534910445586,15.9119149570568
0.000320463254581335,15.9219149570568
0.000350681310426632,15.9319149570568
0.000388151245348464,15.9419149570568
0.000434448576358093,15.9519149570568
0.00049182206432762,15.9618918362074
0.00055792168823175,15.9711120783528
0.000633516901974758,15.9796082121224
0.000719776552310711,15.9874382135239
0.000818112188390284,15.9946564250424
0.000930156597831823,16.0013129196322
0.00105777244614251,16.007453907614
0.00120307633543782,16.0131221088167
0.00136847101490197,16.0183570658624
0.00155668429238558,16.0231954166224
0.00177081450705984,16.0276711457476
0.00201438678154527,16.0318158216404
0.0022914210300854,16.0356588200469
0.00260651740946025,16.0392275408964
0.00296496591975569,16.0425476327377
0.00337288969384032,16.0456432347279
0.00383743953241498,16.0485372464293
0.00436706513472057,16.0512516520824
0.00497191086660232,16.0538079431784
0.00566442222315532,16.0562277138005
0.00643402317604273,16.058463815528
0.00729048298296303,16.0605510108747
0.0082514328914329,16.0625313498655
0.00934629788247327,16.064453439365
0.0106333519385659,16.0663900297664
0.012299572689188,16.0685429275046
0.0138864613712046,16.0703479714165
0.0156186637147891,16.0721530153283
0.0171442677143895,16.0736732243722
0.0184649839605858,16.0749905883165
0.0196412522977658,16.0762149528799
0.0206854824492904,16.0774026663588
0.0215880169357841,16.0785945482452
0.0223236225966656,16.0798341504078
0.022844611670537,16.0811874151974
0.0230444027402404,16.0828060093123
0.0226794177294376,16.0847588312084
0.0217377149702318,16.0867116531045
0.020661546951576,16.0882766462596
0.0194763786568896,16.0897379836176
0.0181736979604793,16.0912055180368
0.0167611896449549,16.0927255266332
0.0152470008093633,16.0943340943258
0.0139445901857056,16.095770146207
0.0117133621236745,16.0984877017065
0.00970885146553003,16.1013038939444
0.00810275108383504,16.1039232857385
0.00677554600420186,16.1064286599023
0.00561289883445574,16.1089723573593
0.00458821312274961,16.1115845294656
0.00368301317421366,16.1142887869305
0.00290133957711779,16.1170359833115
0.00227283092151683,16.1196222308272
0.00175870059265459,16.1220715741695
0.00132911479262923,16.1244171537776
0.000962026451800433,16.1266947168996
0.000640490177240957,16.1289460975002
0.000350195739512348,16.1312290164607
7.50155511504897e-05,16.1336558514149
-0.000223720047552466,16.1366346946921
-0.000397835300113653,16.1385616332519
-0.000559348049583172,16.1404885718117
-0.000695714393064451,16.1422271753014
-0.00081562120957035,16.1438443772124
-0.000928970736347688,16.1454514189431
-0.0010430640135696,16.1471469235561
-0.00116719597889597,16.1490804642225
-0.00132579033168636,16.1516833270795
-0.00156472660734172,16.1558725602566
-0.00175433498097807,16.1594173022958
-0.0019179681813142,16.1626322886717
-0.00209329404910814,16.1662543790205
-0.00230626061082896,16.170992011046
-0.0025130078869439,16.1763278198492
-0.00264902511356524,16.1812547293624
-0.00269493427819847,16.1856728574971
-0.00264548659668322,16.1895067565697
-0.00249491422729662,16.1930754061388
-0.00224348424131287,16.1963120398645
-0.00189273636586315,16.1992730517335
-0.00144145404074704,16.2020203498291
-0.000882763392556456,16.2046168417521
-0.000200205210180377,16.2071315354776
0.000648028224595513,16.2096741308257
0.00177373793433764,16.2124650779761
0.00322754222038499,16.2155025443006
0.00500091253227374,16.2187107329474
0.00648286632695026,16.2211131379848
0.00811634561266241,16.2235155430222
0.00959063178585641,16.2254680262978
0.0111014475624454,16.2272630934639
0.0126537645488492,16.2289037493358
0.0143415225950451,16.2304780262621
0.016182860287255,16.231981843854
0.0182227009299388,16.2334318987691
0.0204872518323479,16.2348268399397
0.0230121723741439,16.2361706671563
0.025833113165675,16.2374654616668
0.028982205546418,16.2387107810241
0.032507027955584,16.2399112711944
0.0364558195482743,16.241069428469
0.0408843976625941,16.2421881224988
0.0458557122489206,16.2432700339714
0.0514492811583027,16.24431919549
0.0577566776914937,16.245339177563
0.0648876702037707,16.2463337582519
0.0729755159266344,16.2473070047469
0.0821833733870576,16.2482632956157
0.0927174645678339,16.2492077750802
0.104840709508857,16.2501463532958
0.118898730078373,16.2510862543235
0.135362332171281,16.2520367987964
0.15490493756239,16.2530108681679
0.177778624415726,16.2539966451996
0.204318946625454,16.2549905473696
0.235275368986944,16.2560051059257
0.271699016030963,16.2570593526535
0.315328512739798,16.2581892963877
0.350311105100227,16.259029219474
0.386590693497,16.2598691425604
0.418848822924169,16.2606155905529
0.447071423796111,16.2612952114337
0.471680959751935,16.2619404649093
0.492636795084823,16.2625752468014
0.509488320716131,16.2632217259324
0.521249771833425,16.2639070409669
0.525859893318238,16.2646759054326
0.520140758801779,16.2654861618139
0.502653798131934,16.2663217602808
0.471919351339019,16.2671976539227
0.426107438946762,16.2681242847542
0.378340899485939,16.2688925079966
0.322621467739208,16.269660731239
0.283649169632529,16.2701512553768
0.242876497866412,16.2706417795145
0.206296556377583,16.2710735650797
0.173901386747448,16.2714579152299
0.144809469854632,16.2718116248846
0.118398657989221,16.2721462174896
0.0942260010944277,16.2724703035029
0.0719216997388666,16.2727917371074
0.0510879824715983,16.2731200229088
0.0310726869136344,16.2734724033029
0.00954371183958974,16.2739128698376
0.000453219259110407,16.2741269545116
-0.00777945652791807,16.2743410391856
-0.0142384495852668,16.2745261797796
-0.020213531242683,16.2747145372157
-0.0261960731377275,16.2749240892358
-0.0319493836917858,16.2751513992202
-0.0373239702075353,16.2753944338168
-0.0422374355165196,16.2756525225895
-0.0466474345905434,16.2759259022198
-0.0505343763514546,16.2762154653562
-0.0541341042221626,16.2765486960901
-0.0568857628499214,16.2768745588975
-0.0591220874566181,16.2772220131447
-0.0608603017886966,16.2775944782999
-0.0621148039074606,16.2779957160827
-0.0628990863018167,16.27843037474
-0.0632242346001893,16.2789042635629
-0.0630972111345336,16.2794247597161
-0.0625182787302514,16.2800017187494
-0.0614754316723951,16.2806493733469
-0.059940492996083,16.2813866618099
-0.0578564066397949,16.2822426794544
-0.055102608326098,16.2832690513343
-0.0513532374457064,16.2845903832077
-0.0473228876027259,16.2859792366826
-0.0434352915327895,16.2873233020553
-0.0397346342026092,16.2886267230299
-0.0362423539957438,16.2898915772253
-0.032969195766411,16.2911186052453
-0.0299194488963371,16.2923078717301
-0.027092922243577,16.2934591182123
-0.0244860587101161,16.2945719485806
-0.022092696082298,16.295645923822
-0.0199046681283197,16.2966806053046
-0.0179123208556785,16.2976755671567
-0.0161049699248223,16.2986303888614
-0.0144713067270735,16.2995446341684
-0.0129166717615098,16.3004687251947
-0.0114226520665614,16.3014166015659
-0.00999350012721889,16.3023900332263
-0.00863311922165226,16.3033912112099
-0.00734520444854289,16.3044227129218
-0.00613319141997731,16.3054875996032
-0.00500020412125918,16.3065895443606
-0.00394900059305951,16.3077330054784
-0.00298191631549839,16.3089234667359
-0.0021008047249062,16.3101677801967
-0.00130697355853858,16.3114746719296
-0.000601114403745343,16.3128555192161
1.6779699096438e-05,16.3143256070779
0.000547519028028067,16.315906295569
0.000974202647853511,16.3175460504847
0.00130570701898362,16.3192376445885
0.00155764879247615,16.3209995479143
0.00174428932694934,16.322854675036
0.00187909168393359,16.3248340905633
0.00197517588442226,16.3269827503249
0.00204603425125683,16.3293719033837
0.00210703674947981,16.3321314755091
0.00218034707575221,16.3355698716323
0.00227713579890152,16.3393349455389
0.00241110934189764,16.3434723128611
0.00256271081262019,16.3474158304805
0.00272496499945047,16.3512169896064
0.00289537976642379,16.3549720652598
0.0030727489339943,16.358741293527
0.0032570668797694,16.3625680916732
0.0034493385647177,16.3664878913353
0.00365137727239264,16.3705323626987
0.00386564069437181,16.3747319130964
0.00409511814718144,16.3791173465264
0.00434330021017754,16.3837211924903
0.00461429238649143,16.3885791437986
0.00491313461490265,16.3937314043536
0.00524642072780636,16.3992239444585
0.0055856822531573,16.4045304394732
0.00594210682868403,16.4097984165458
0.00631434389153775,16.4149626484283
0.00670707611767316,16.4200454477175
0.00712407733728323,16.4250498092441
0.00757003020060638,16.429985157284
0.00804980746221378,16.4348569789499
0.00856871089184225,16.4396690022766
0.00913249569126755,16.4444226342764
0.00974750118636972,16.4491175583841
0.010420783976272,16.453752308633
0.0111734125818966,16.4584021862862
0.0120221112394315,16.4630811529115
0.0129867830058256,16.467799550852
0.0140956391042206,16.4725846487083
0.015393150575045,16.4774991139339
0.016965969701771,16.4827027553872
0.0190723460642518,16.4887548381639
0.020840960502168,16.4933038408778
0.0227189172273285,16.4978528435917
0.024284936279173,16.5016160720009
0.0255856472659317,16.504897406384
0.0266755024306539,16.507965052746
0.0275498265320869,16.5109477883009
0.0281546989844337,16.5137871027934
0.0284916670854971,16.5166029338078
0.0285358320793867,16.5195428452022
0.0281960148642184,16.5228929519937
0.0271838712861743,16.5272393019079
0.0262863230035147,16.5299255779329
0.0252276798588477,16.5326118539579
0.0241549538300398,16.5350639784763
0.0230810483689951,16.5373693977619
0.0220064159886408,16.5395933926286
0.0209338369591669,16.5417726375558
0.0198669436721788,16.5439303055114
0.0188094140868533,16.5460827316826
0.0177647248963178,16.5482423805047
0.0167360843657616,16.5504193622157
0.0157264219222283,16.5526223003222
0.014738392880442,16.5548588793662
0.0137743913453418,16.5571362087546
0.0128365606049253,16.5594610921703
0.0119268023416863,16.5618402399962
0.011046791041508,16.5642804324363
0.0101979765707578,16.5667886950008
0.00938160091377807,16.5693724290763
0.00859870082929041,16.5720395861808
0.00783314341348308,16.5748640952017
0.00708326143050327,16.5778835641012
0.00635286064297232,16.581121409821
0.00564588583347061,16.5846049599304
0.00496646119751093,16.5883658663126
0.0043188291326899,16.5924409736115
0.00370724650469153,16.5968735501144
0.00313581518548353,16.6017153127613
0.00260825437506206,16.607029892989
0.00212759343272798,16.612899523482
0.00169606702635239,16.6194341762851
0.00132527726889409,16.6265633264621
0.00102346407341405,16.6342735172369
0.000823167560895804,16.6414779757772
0.000655044006887968,16.6496613997302
0.000517963141159049,16.6588509570461
0.000414436619272551,16.6688509570461
0.000345861948347756,16.6788509570461
0.000302564791920784,16.6888509570461
0.000277525929034043,16.6988509570461
0.000265769271394666,16.7088509570461
0.000263935019177069,16.7188509570461
0.000269888085829782,16.7288509570461
0.000282392555424706,16.7388509570462
0.000300884522940242,16.7488509570462
0.000325343312849957,16.7588509570462
0.000356246523720029,16.7688509570462
0.000394599383788042,16.7788509570462
0.000442044332605655,16.7888509570462
0.000500382388246851,16.7987428969147
0.000567544418894199,16.8078817003424
0.000644335159161192,16.8163028707647
0.000731947037196572,16.824063986602
0.000831813943104589,16.8312189154547
0.000945592370730245,16.8378173004815
0.00107517168883444,16.8439049641914
0.00122269891056021,16.8495242742269
0.00139061157890791,16.8547144513131
0.00158167722423249,16.859511839284
0.00179903999042659,16.8639501549325
0.00204627794013516,16.8680607237928
0.00232747304831319,16.8718727025539
0.00264729874763194,16.8754132963033
0.00301113311456481,16.8787079847374
0.00342520702781982,16.8817807669753
0.00389680596344107,16.8846544362561
0.00443455302847898,16.8873509134665
0.0050488238156254,16.8898916857445
0.00575100048308015,16.8922941090409
0.00653001410625441,16.8945122957376
0.00739755704891447,16.8965862577963
0.00837228583489269,16.898558525701
0.00948578248935796,16.9004793421757
0.0108024160186609,16.9024271107224
0.0125498035999029,16.9046454713693
0.0140660085302345,16.9063478641654
0.0157069946767358,16.9080502569615
0.0172081908434337,16.9095464483835
0.0185190084982527,16.910857198466
0.0196875590409258,16.9120792251778
0.0207240676113722,16.9132668409657
0.0216180356538344,16.9144606359382
0.022343376319284,16.915704728957
0.0228507707246046,16.917067143666
0.0230279076760179,16.9187086768745
0.0226407568594896,16.9206364497351
0.0216966727976976,16.9225642225956
0.0206198526821725,16.9241223083157
0.0194324575369123,16.9255831713042
0.0181276246446394,16.9270518928569
0.0167133312528233,16.9285739435791
0.0151976663877084,16.9301853782941
0.0140069931852964,16.9314981448355
0.0117845632474118,16.9341950514553
0.00976735337940163,16.9370165888093
0.00815069544163285,16.9396417075157
0.00681795821631849,16.942146549513
0.00565077022474195,16.9446886338573
0.00462218289944931,16.9472984446979
0.00371359039021202,16.9499996266468
0.00292475934309295,16.9527593005316
0.0022908774230359,16.95535781142
0.00177271371454083,16.9578189960335
0.00133998795229715,16.9601764854707
0.000970294125896441,16.9624669266535
0.000646389308063397,16.9647335478519
0.000353608921064135,16.9670369193948
7.50656209216247e-05,16.9694976843171
-0.00023286560989475,16.9725827880245
-0.000404440705158676,16.9744939076669
-0.000563739411852375,16.9764050273094
-0.000698802275121133,16.9781354706909
-0.000818565345980581,16.9797583029524
-0.000932473206614285,16.981381086166
-0.00104785951422385,16.9831048543145
-0.00117468221239449,16.9850923046571
-0.00134203042110058,16.9878610092128
-0.00155822135232343,16.9916738142189
-0.00172808016260518,16.9948495506614
-0.00188245375562407,16.9978723795831
-0.00204978635695429,17.0013089631358
-0.00224933151660923,17.0056903256534
-0.00246435262182122,17.0110611065671
-0.00261436239286358,17.0160888317263
-0.00267631006779146,17.0205952302047
-0.00264343062704449,17.0245099604406
-0.00251214130366945,17.0281105145184
-0.00227854046161779,17.0314129554659
-0.0019453588577677,17.0344266642697
-0.00151162981813192,17.0372171747559
-0.000971975808097655,17.0398447173275
-0.00031191178496185,17.0423771889523
0.00050732767870651,17.044922829029
0.00156714450865943,17.0476397517258
0.00296279438729024,17.0506426618097
0.00470709156428853,17.0538680238334
0.00661714260210215,17.0569752332151
0.0079366727460246,17.058911737768
0.00938467797311152,17.0608482423209
0.0108816517582943,17.0626484408174
0.0124379340441922,17.0643154124264
0.0141121297573487,17.0658992925359
0.0159368183054844,17.0674123889232
0.0179553990351974,17.0688706003946
0.0201929498495368,17.0702722329517
0.0226877658365962,17.0716232216991
0.0254728739502055,17.0729243439875
0.0285823286370923,17.0741761859088
0.0320620074865835,17.0753828520257
0.0359593865195398,17.0765468048009
0.0403268652731733,17.0776702814453
0.0452312228118314,17.0787572219484
0.050748499004217,17.0798110632291
0.0569684976619181,17.0808353464998
0.0639988726817557,17.0818338378145
0.0719691242110037,17.0828104625172
0.0810406330549734,17.083769791136
0.091414347907562,17.08471684593
0.103346889322903,17.0856574799554
0.117175053137599,17.0865988330852
0.133356379128825,17.0875500751579
0.152544163559493,17.0885238740072
0.175054586490412,17.0895114564898
0.201167926542764,17.0905065139454
0.23161643362808,17.0915213723895
0.26742098472742,17.0925745489732
0.310241581649332,17.093700285641
0.345444514309012,17.0945560749144
0.382077543020752,17.0954118641878
0.414635023675897,17.0961694570404
0.443099907369594,17.0968563009735
0.467940573261992,17.0975061325969
0.489150270123074,17.0981432739747
0.506315892719829,17.0987897094797
0.518516382098131,17.0994715675265
0.523852231122869,17.1002303112371
0.519159572794602,17.1010406565865
0.502847368955358,17.1018742377638
0.473488352571292,17.1027462682189
0.429295569515422,17.1036675016727
0.368335458509718,17.1046468365085
0.325595327366139,17.1052341557133
0.279129239780249,17.1058214749181
0.237584310176754,17.1063214417156
0.201584434616852,17.1067476118083
0.169729155059759,17.1071276204171
0.141074992277839,17.1074786546688
0.115027814710869,17.1078117848338
0.0911619247902376,17.1081354086967
0.0691125656209046,17.1084574227459
0.048470320750306,17.1087878013304
0.0285149487136117,17.1091458194695
0.00621024488726867,17.109615176583
-0.001740785861314,17.1098086252511
-0.00900226333774325,17.1100020739192
-0.0152582901008717,17.1101848773037
-0.0212488220479663,17.1103775861524
-0.0271984302129849,17.110590829777
-0.0328860056146221,17.1108213668571
-0.0381766865837565,17.1110674454812
-0.0429968376114842,17.111328580601
-0.0473093495650183,17.1116051382788
-0.0510951422417607,17.1118981127844
-0.0544675052561997,17.112222523672
-0.057141045650867,17.1125515298918
-0.0593032110193024,17.1129027020281
-0.0609697106525307,17.1132793830232
-0.062154861333492,17.1136854444648
-0.062871880871116,17.1141256774651
-0.0631313637122806,17.1146060800478
-0.0629395220872235,17.1151342881141
-0.0622951969702782,17.1157207369255
-0.0611845239430256,17.116380115105
-0.0595764184907894,17.1171323867471
-0.0574081673006787,17.1180086696728
-0.0545448910522334,17.1190657337013
-0.0505986068841655,17.1204504123411
-0.0465906477712,17.1218311290326
-0.0427356564774734,17.1231677644818
-0.0390723440805671,17.124464162866
-0.0356198508886883,17.1257221333134
-0.0323875988140982,17.1269422811465
-0.0293789814918454,17.1281246074265
-0.0265931395686399,17.1292688275788
-0.0240259959382609,17.130374538516
-0.0216709824874737,17.1314413031473
-0.0195196246419619,17.1324686876151
-0.017562046949271,17.1334562698636
-0.0157874215557796,17.1344036296485
-0.0141843653980982,17.1353103255144
-0.0126399237658821,17.1362386681658
-0.0111570086430094,17.1371910129559
-0.00973967127699271,17.1381692828958
-0.00839178183955621,17.1391757320898
-0.00711699197578905,17.1402130173729
-0.00591868442914644,17.1412842998258
-0.00479992047490705,17.1423933797784
-0.00376338516641821,17.1435448802975
-0.00281133019600236,17.1447445028245
-0.00194551369023131,17.1459993938788
-0.00116713543413757,17.1473186897344
-0.000476764520636552,17.1487143604829
0.000125746456968258,17.1502025890086
0.000641372744666386,17.1518061821715
0.00104964884502245,17.153453915109
0.00136585663477529,17.1551570082674
0.00160521901790015,17.1569341673001
0.0017818313788416,17.1588095361782
0.00190906494636933,17.1608161838305
0.0020000573194389,17.1630026616037
0.00206851672454621,17.1654475471612
0.00213053404025739,17.1682992866484
0.00221121215203727,17.1719390553657
0.00231483331299242,17.1757382682069
0.00245314489052996,17.1798132536415
0.00260630601627514,17.1836758240057
0.00277060840620394,17.1874468482691
0.00294362556322271,17.1912028160112
0.00312422317456451,17.1949945562403
0.00331249335936852,17.1988610395221
0.00350955558635467,17.2028355734778
0.00371735277270309,17.2069489929962
0.0039384887446156,17.2112317263118
0.00417612285730179,17.2157152195658
0.00443397467313066,17.2204332936117
0.00471650466193124,17.2254236016332
0.00502933996499941,17.2307288781875
0.00536476453524111,17.2361541890283
0.00571032922059119,17.2414521334183
0.00607211441064633,17.2466806092584
0.00645140133008191,17.2518137481156
0.00685251850220812,17.2568660871864
0.00727964254231574,17.261844098284
0.0077375055126388,17.2667556071348
0.0082311189558105,17.2716054175359
0.00876592372445516,17.2763962772193
0.00934786171383905,17.2811288414578
0.00998350684602064,17.2858022481952
0.0106822034835677,17.2904273456284
0.0114684610931932,17.2950897028769
0.0123568704349863,17.2997807479103
0.0133704035768014,17.3045191718665
0.0145416740844138,17.3093411368388
0.0159256755332591,17.3143333426471
0.0176426502257029,17.3197335928603
0.0200554205782439,17.3263174388094
0.0216639714546999,17.3303083291725
0.0233288465537933,17.3342992195355
0.0247788470740807,17.3378228303439
0.026000402444618,17.3410038005574
0.0270166071968924,17.3440349402443
0.0277936180000908,17.3469517196479
0.0283042359621878,17.3497681357805
0.0285422012455477,17.3526080881786
0.0284670457502731,17.3556451734046
0.0279270322813645,17.3593169913267
0.0271131157394639,17.3624545704472
0.0260304555016298,17.3655921495677
0.0249455609641603,17.3682596295865
0.0238711085368248,17.3706678618452
0.0227967479207851,17.3729473415464
0.0217223098696449,17.3751568242273
0.0206508536484092,17.377328581593
0.019586063506929,17.3794835666086
0.0185315760729334,17.3816368926385
0.0174908003859047,17.3838002932265
0.0164668705708877,17.3859834224087
0.0154626424481894,17.388194615036
0.014480701570526,17.3904413748535
0.0135233734004358,17.3927307132694
0.0125927378517889,17.3950693903066
0.0116906353548357,17.3974641228106
0.010818677964133,17.3999217509346
0.00997826255095757,17.4024493819175
0.00917057382092544,17.4050545592532
0.00839589931492808,17.4077479344189
0.00763404401057494,17.4106216141029
0.00688889404753275,17.4136958615201
0.00616423630244462,17.4169952605184
0.00546406497313517,17.4205482040952
0.00479254289142157,17.4243876029997
0.00415392818925086,17.4285518366125
0.00355245606996135,17.4330861321594
0.00299215503008466,17.438044858664
0.0024765795442842,17.4434958144155
0.00200855757245854,17.4495274039332
0.00159012535264389,17.4562585830371
0.00123626711847675,17.4635321723462
0.000954857602410844,17.4714157523814
0.000761557069695282,17.4790850203234
0.000605568697073005,17.4875072168402
0.00048163999984539,17.4967720725619
0.00038937497323349,17.5067720725619
0.000328812021019528,17.5167720725619
0.000291177254141691,17.5267720725619
0.000270099812306387,17.5367720725619
0.000261107528186043,17.5467720725619
0.000261220809527109,17.5567720725619
0.000268577215192782,17.5667720725619
0.00028213101615951,17.5767720725619
0.000301452577575691,17.5867720725619
0.000326621306403398,17.5967720725619
0.000358196711905567,17.6067720725619
0.000397260233696101,17.6167720725619
0.000445536795867683,17.6267720725619
0.000504337118645306,17.6365754280418
0.00057194072884091,17.6456304286434
0.000649197123145736,17.6539754476368
0.000737319926985762,17.6616674024485
0.000837756878498753,17.6687594615238
0.000952175650104434,17.6753006505301
0.00108247644198178,17.6813362446093
0.00123081755987336,17.6869081213549
0.00139964873013675,17.6920550589048
0.00159175061315133,17.696812999795
0.00181028190875945,17.7012152956459
0.00205883667561451,17.7052929383501
0.00234151488753046,17.7090747781442
0.00266301016498375,17.7125877378763
0.0030287235800076,17.7158570365148
0.00344491251370234,17.7189064307431
0.00391889311022599,17.7217584863175
0.00445932465668402,17.7244349081099
0.00507662601715442,17.7269569739082
0.00578128779405917,17.7293389728004
0.00656285886465091,17.731538472326
0.00743301506745711,17.7335950242199
0.00841031825693452,17.735550534615
0.00952609234435182,17.7374543580097
0.0108438248647957,17.7393830156779
0.0125882960025895,17.7415746638056
0.0141275265527024,17.7432835071179
0.0157960269009941,17.7449923504303
0.0173133442999262,17.7464838796538
0.018636607128961,17.7477881559912
0.0198164375155325,17.7490035743835
0.0208636118191771,17.7501845535217
0.0217677884665492,17.7513715700591
0.0225029371723619,17.7526085305873
0.0230197878599169,17.7539630312808
0.0232063150208959,17.7555945286812
0.0228252786397186,17.7575170178583
0.0218811723267455,17.7594395070353
0.0208019014755757,17.7609921967285
0.0196105180783132,17.7624481866876
0.0183000647560808,17.7639126993814
0.0168785098379452,17.7654312355404
0.015353912104461,17.7670399516023
0.0140505462233318,17.7684676423595
0.011806017948613,17.7711827021245
0.00978139912421253,17.7740082168519
0.00816124605790854,17.7766343348597
0.00682724938432324,17.7791378151458
0.00565932577491724,17.7816782149544
0.00463035621533465,17.7842861076608
0.00372166382813353,17.7869851266166
0.00292432158846994,17.7897752765229
0.00228561237904749,17.7923995755914
0.00176523496186278,17.7948811456681
0.00133201933462678,17.7972539097891
0.0009631681233989,17.7995535929858
0.000641524659009494,17.801819833984
0.000353200549924307,17.8041032344159
8.39217051277987e-05,17.8064937386603
-0.000193350581483595,17.8092637966629
-0.000381952569912889,17.8113543802281
-0.000555681336861169,17.8134449637933
-0.0006961839767371,17.8152600343156
-0.000816260365862474,17.8169036805567
-0.000927863191658949,17.8185098989088
-0.00103843639701468,17.8201769111299
-0.00115601596425559,17.8220320631301
-0.00129751251836035,17.8243754526931
-0.00154041013087596,17.8286665080332
-0.00174495490980043,17.8325306236907
-0.00191287001932409,17.8358715219836
-0.00208598048057414,17.8394914366861
-0.00229320560019208,17.8441447853803
-0.00249966565484534,17.8494922798747
-0.00263731420875277,17.8544437580027
-0.00268587088451015,17.8588813202101
-0.00263943740094578,17.8627403948586
-0.00249251806304125,17.866318798715
-0.00224447755290219,17.8695701609565
-0.00189685520393958,17.8725445953717
-0.00144819100753549,17.8753053990829
-0.000891983208201641,17.8779132787995
-0.000212439139554402,17.8804354652362
0.000626872780701076,17.8829678329439
0.00172934868154166,17.8857187863604
0.00316725779919417,17.8887373845784
0.00494637256101689,17.8919580001971
0.00644266817589149,17.8943764108826
0.00809568309865842,17.8967948215681
0.00959974627229632,17.8987734579785
0.0111404432977685,17.9005895660734
0.0127068529773235,17.902230774698
0.0144133589406377,17.9038087212775
0.0162666717548219,17.905309347637
0.0183208167293597,17.9067575336678
0.0205992208201629,17.9081498135828
0.0231395889160637,17.9094914153547
0.0259774244409957,17.9107841428959
0.029145189518624,17.9120275822835
0.0326909370370373,17.9132264048042
0.0366633346374753,17.9143831017668
0.0411184188362015,17.9155004695391
0.0461203958633951,17.9165813507806
0.0517493340011456,17.9176297133441
0.0580978022011101,17.9186491388135
0.0652768736238682,17.9196434273471
0.0734214811959172,17.9206166724458
0.0826972166282384,17.9215733110974
0.0933136674443784,17.9225185613767
0.105538697973868,17.9234584456308
0.119725559983985,17.9244003636619
0.136357598787847,17.925353926954
0.156130657925618,17.9263325378774
0.179207469677046,17.927320288143
0.205995440587754,17.9283172101349
0.237263438152317,17.9293363450994
0.274100900517446,17.9303977642206
0.317981464687097,17.9315312666608
0.352554973439127,17.9323618297228
0.388284001070672,17.9331923927848
0.42007927973656,17.933933721965
0.447918614937501,17.9346116210171
0.472163583597149,17.935257211282
0.492735095877296,17.9358939307119
0.509146546869934,17.9365440046075
0.520357560179064,17.9372351654306
0.524184166994503,17.9380139975737
0.517503610503203,17.9388269382415
0.498975353532266,17.93966621529
0.46709326482604,17.9405463095667
0.420025087400161,17.9414772642601
0.372838270096007,17.9422253650181
0.318219563366708,17.9429734657762
0.269835657839862,17.9435774453985
0.229336789591846,17.9440615827167
0.194316082579243,17.9444758335444
0.163214693136497,17.9448482327076
0.135165559460941,17.9451944471394
0.10962158610541,17.9455247496652
0.0861778113119257,17.9458472585334
0.0644699428435815,17.9461700521191
0.0440550594671667,17.9465041855689
0.0240398130904594,17.9468738383853
0.00875913126632761,17.9471972370408
0.00019260560794599,17.9474005276097
-0.00760408143696883,17.9476038181787
-0.0140650389285437,17.9477889902985
-0.0200284155852087,17.9479768924842
-0.0260080904758563,17.9481861562398
-0.0317642358618071,17.948413282274
-0.0371450206954079,17.9486561844541
-0.0420666776419238,17.9489141596575
-0.0464860468890496,17.9491874230943
-0.0503828745484386,17.9494768516198
-0.0539958501296165,17.9498101461113
-0.056757288508719,17.9501358149632
-0.0590033960318006,17.9504830151726
-0.0607513768191437,17.950855154082
-0.0620156027992905,17.9512559735585
-0.0628095804999371,17.9516900958451
-0.0631444544316064,17.9521632949958
-0.0630273024729376,17.9526828986132
-0.0624586288482689,17.9532586579472
-0.0614267855223996,17.953904710846
-0.0599041917252685,17.9546397905723
-0.0578349804859568,17.9554925868446
-0.0551015580974707,17.9565137058285
-0.0513900881834512,17.9578235814052
-0.0473601218278607,17.95921338008
-0.0434714714664326,17.9605581358921
-0.0397691268568854,17.9618620980215
-0.0362748539974235,17.9631274095482
-0.0329995595066489,17.9643548470878
-0.0299476233857941,17.9655444954694
-0.0271189107326929,17.9666961077932
-0.0245099020169965,17.9678092947051
-0.0221144611738625,17.9688836212234
-0.0199244403107536,17.9699186512047
-0.017930197952284,17.9709139604228
-0.016121057667152,17.9718691295946
-0.0144857150197642,17.9727837235719
-0.0129303184850166,17.9737076364665
-0.0114354905390232,17.974655324483
-0.0100054927416325,17.975628550884
-0.00864422956469145,17.9766295040846
-0.00735539760088016,17.9776607581425
-0.00614243419657267,17.9787253700548
-0.00500846530747021,17.9798270074913
-0.0039562511624723,17.980970121674
-0.00298812961408786,17.9821601870427
-0.00210595660147406,17.9834040430309
-0.00131104241389637,17.9847103981392
-0.000604081118570171,17.9860906043318
1.49320215900382e-05,17.9875599084475
0.000546805617544355,17.9891396093921
0.000974789480338742,17.9907790357378
0.00130746315672357,17.9924701471583
0.00156046716309734,17.9942314062349
0.00174807706196003,17.9960856760063
0.00188376908503167,17.998063937609
0.0019806755545999,18.0002109984176
0.00205230016335256,18.0025978093446
0.00211402051743375,18.0053535629704
0.00218797604444083,18.0087839647783
0.00228551030346344,18.012547868186
0.00242016217421806,18.016680474895
0.00257188792517905,18.0206062323701
0.00273466917926318,18.0244002576434
0.00290595881286404,18.0281545837591
0.00308448557770793,18.0319273843131
0.00327019972615125,18.0357611099637
0.00346408456019017,18.0396907244095
0.00366795243613917,18.0437476961232
0.00388427847902161,18.0479624039457
0.00411608559239643,18.0523657430244
0.00436691657374184,18.0569904484191
0.00464095746555196,18.0618725450686
0.0049433738707487,18.0670526635487
0.00527822368733711,18.0725330626102
0.00561953910058994,18.0778336520588
0.0059779764938755,18.0830912511853
0.006352569839927,18.0882464014626
0.00674799846800479,18.0933205518043
0.00716812112822246,18.0983172245737
0.00761765392609949,18.1032455434842
0.0081015164285101,18.1081108026608
0.00862506125367836,18.1129164955138
0.00919410548501877,18.1176638350403
0.00981506241838892,18.1223523581309
0.0104950785696303,18.1269805304308
0.0112573726772801,18.1316345956733
0.0121173008996238,18.1363167311797
0.0130957570910486,18.1410405211936
0.0142220826672207,18.1458353569858
0.0155434343009653,18.1507700125219
0.0171545218740973,18.1560229791978
0.019359720558792,18.1622611300716
0.0210735655159889,18.1666188625597
0.022879393502507,18.1709765950478
0.024412046589918,18.1746674580844
0.0256921919356343,18.1779203513534
0.0267635913959842,18.1809770788746
0.0276134323560259,18.1839416467699
0.0281948639255878,18.1867737649721
0.0285075647431481,18.1895938228887
0.0285231934874997,18.1925544563818
0.0281390766306805,18.1959697570843
0.0273565951140928,18.1993818210576
0.0262382666423556,18.2027938850309
0.0251408631385548,18.2055561545008
0.0240649234299019,18.2079998735037
0.0229906919771682,18.2102969787949
0.02191608909768,18.2125161124203
0.0208438423319711,18.2146927900069
0.0197775968778183,18.2168494543027
0.0187210185981766,18.2190020328272
0.01767756315569,18.2211627462397
0.0166504153385489,18.2233415523057
0.0156424814473079,18.2255469764692
0.0146563945854521,18.2277866407938
0.0136945271285666,18.2300676183326
0.0127590025337281,18.2323966928004
0.011851702725703,18.2347805713445
0.01097428301239,18.2372260443469
0.0101281758203651,18.2397401564884
0.00931460535603204,18.2423303427033
0.00853459214628565,18.245004597416
0.00777016733385762,18.2478444188115
0.00702174549325265,18.2508809205741
0.00629312189412654,18.2541378964668
0.00558825737987476,18.2576430005234
0.00491128879014251,18.26142827019
0.00426646421868635,18.2655310181433
0.00365803472950939,18.2699951068851
0.00309008409429687,18.2748730181938
0.0025662741315895,18.2802296898339
0.00208957559230157,18.2861491604499
0.0016621577599102,18.2927441099916
0.00129670154070722,18.299917626405
0.00100082420855628,18.3076810815095
0.000787265913533674,18.3156662663868
0.000631462777517991,18.3236607417968
0.000498606573602301,18.3330186245066
0.000400613268076407,18.3430186245066
0.000335901410788818,18.3530186245066
0.000295268496520665,18.3630186245066
0.000272028874229068,18.3730186245066
0.000261456037479493,18.3830186245066
0.000260372246964998,18.3930186245066
0.000266768659202387,18.4030186245066
0.000279492815960771,18.4130186245066
0.000298033490128394,18.4230186245066
0.000322400728911713,18.4330186245066
0.000353086175477801,18.4430186245066
0.000391094670610978,18.4530186245066
0.000438053450166976,18.4630186245066
0.000495892147858204,18.4729347422618
0.000562476609259607,18.4820971887235
0.000638604437549059,18.4905405272018
0.000725459993594656,18.4983223477471
0.000824466913594881,18.5054965691987
0.000937269322958631,18.5121128876234
0.00106574194489376,18.518217177523
0.00121201469662601,18.523851856834
0.00137850526480984,18.5290561945151
0.00156795820199313,18.5338665797255
0.00178349090929399,18.5383167707378
0.00202865020631898,18.5424381297215
0.00230748114122503,18.5462598442051
0.00262461308920387,18.5498091427675
0.00298537066451199,18.5531115188932
0.00339591864269866,18.5561909725139
0.00386345885986977,18.5590702798293
0.00439650534286043,18.5617713188354
0.00500528611275169,18.5643154945981
0.0057023600268871,18.5667243400654
0.00647581147843646,18.5689474869162
0.00733661999728925,18.5710236054617
0.0083026986196322,18.5729946900477
0.00940400059399306,18.5749094697822
0.0107002173483253,18.5768415934208
0.0123888188576082,18.5790028202975
0.0139634117349342,18.5807788783627
0.0156788385633849,18.5825549364278
0.0172037787578777,18.5840661914034
0.0185267260452739,18.5853790969289
0.0197053867385333,18.5866001615097
0.0207517654594648,18.5877851835222
0.0216560364709237,18.5889748703013
0.0223927570950964,18.5902128415616
0.0229138181708796,18.5915654316798
0.0231112196849615,18.5931862199934
0.0227427705213341,18.5951296457729
0.0218007576570007,18.5970730715524
0.0207235858497959,18.5986339780407
0.019536310645025,18.6000932282984
0.0182308793552835,18.6015593750259
0.016815060153355,18.6030784857167
0.0152969761245826,18.6046866749942
0.0139738683804146,18.6061418966121
0.0117357055160193,18.6088626012533
0.00972591554329712,18.6116813504055
0.00811645879716425,18.6143022166884
0.00678772099780622,18.6168069495123
0.0056239348438216,18.6193496735062
0.00459837139983625,18.6219606374645
0.00369250294218963,18.6246634538196
0.00290588108232198,18.6274260388346
0.00227427605900289,18.6300257904729
0.00175837794114754,18.6324864428049
0.00132790107242601,18.6348413830012
0.000960561304437076,18.6371262317296
0.000639377179245963,18.6393817793744
0.000350259751462512,18.6416625647517
7.79462469704326e-05,18.6440708137266
-0.000210494017982996,18.6469482134583
-0.000390340493622283,18.6489383656987
-0.000556711646565583,18.6509285179391
-0.000694843449487934,18.6526975105836
-0.000814846827960746,18.6543243709599
-0.000927422195959393,18.6559288043773
-0.00103989818687193,18.6576085388467
-0.00116092130376108,18.659501586657
-0.00131086553576999,18.6619682001828
-0.00155217053478559,18.6662058841158
-0.00174809043497242,18.6698796129557
-0.00191299236141627,18.6731318015449
-0.00208673448923203,18.676732621446
-0.00229621929378108,18.6813967336963
-0.00250434720244135,18.6867423471955
-0.00264338708844511,18.6916942970917
-0.00269299822542691,18.6961330267843
-0.00264746904170781,18.6999874992618
-0.002501507312403,18.7035640194173
-0.00225438495869066,18.7068150873991
-0.00190784257628551,18.7097880586958
-0.00146073397460822,18.7125452269996
-0.000906538867568536,18.7151487850852
-0.000229537333637366,18.717666413344
0.000608675486996763,18.7202002321798
0.00171361707257662,18.7229619450137
0.00315078951415028,18.725985421344
0.00492194935150793,18.7292036807531
0.00642581706049222,18.7316467230935
0.00808652066296518,18.734089765434
0.00957274533285146,18.7360564829202
0.0110957185740885,18.7378638757848
0.0126495349152943,18.7395039320421
0.0143421274869959,18.7410808990405
0.0161844498898646,18.742583987277
0.0182262843142238,18.7440342679717
0.0204915997055484,18.7454287348011
0.0230179118431285,18.7467725602485
0.0258402034433819,18.748067351532
0.0289907376233619,18.7493127004321
0.0325171342175624,18.7505132455429
0.0364676536075054,18.7516714722994
0.0408977372156834,18.7527901452766
0.045871238470913,18.7538721583655
0.0514674049719328,18.7549214480296
0.0577778985104207,18.7559415837841
0.0649126237644759,18.7569363475285
0.0730049241671172,18.7579098001275
0.0822183697039814,18.7588663469663
0.0927595449582121,18.759811140089
0.104891988333589,18.760750109003
0.118962327106137,18.7616905082681
0.135443105525568,18.7626417090066
0.15501095720306,18.7636166808494
0.177904028599273,18.7646029668979
0.204468906345118,18.7655975505207
0.235457901627876,18.7666130526494
0.271927887435763,18.767668679037
0.315633069762903,18.7688008952476
0.350537570445322,18.7696395617908
0.386715084700736,18.770478228334
0.41888868722493,18.7712241258236
0.447041785241472,18.7719037388916
0.471585709524744,18.7725492919612
0.492473270032304,18.7731845987426
0.509248240671005,18.7738318255054
0.520916992882277,18.7745181760665
0.525402005520737,18.7752885643461
0.519534586969147,18.7760993854745
0.50189076658357,18.7769356489799
0.470987933709887,18.7778122231311
0.424997704778547,18.7787394786678
0.377348710543321,18.7795043306034
0.32183532684341,18.7802691825391
0.282945225475027,18.7807586775013
0.242274328345698,18.7812481724636
0.205780231163314,18.7816792522633
0.173450420993962,18.7820631915754
0.144410574781796,18.7824166720858
0.11804296123623,18.7827511576905
0.0939068691650157,18.7830752345578
0.0716333711651795,18.7833967582004
0.0508240124085467,18.7837252731074
0.0308212261770516,18.7840781941687
0.00924026593512685,18.7845210142186
0.000278366917001284,18.7847327284253
-0.0078461403221448,18.784944442632
-0.0142910149099855,18.7851294556508
-0.0202658468311052,18.7853180956608
-0.0262455222430567,18.7855279008507
-0.0319941785474391,18.785755442191
-0.0373631529278423,18.7859987008099
-0.0422705488204491,18.7862570160453
-0.0466743202697812,18.7865306315364
-0.0505548907746219,18.7868204454915
-0.0541490099662284,18.7871541112621
-0.0568943064490934,18.7874802826948
-0.0591245002614958,18.7878280761271
-0.0608568291690583,18.7882009195429
-0.062105681956036,18.7886025829347
-0.0628845264804978,18.7890377249634
-0.0632044085040404,18.7895121684942
-0.063072233007954,18.7900333090369
-0.06248815890942,18.7906110442814
-0.0614400478532187,18.7912596373326
-0.0598995269834775,18.7919980961632
-0.0578091710372295,18.7928556506409
-0.0550475099809481,18.7938842582693
-0.0512849509145219,18.7952098796586
-0.047256800800527,18.796598044615
-0.0433722038322222,18.7979414746193
-0.039674943251317,18.7992442803592
-0.0361862694279423,18.800508521313
-0.0329168161921219,18.8017349295517
-0.0298707956676373,18.8029235661879
-0.0270479576243627,18.8040741717849
-0.024444698050239,18.8051863505094
-0.0220548175639504,18.8062596641408
-0.0198701213396796,18.8072936749159
-0.017880934597375,18.8082879576272
-0.0160765593132537,18.8092420920212
-0.0144456795551516,18.8101556415585
-0.0128919224088708,18.811080127871
-0.0113988646571287,18.8120284192043
-0.00997073988472326,18.8130022997273
-0.00861144830202697,18.8140039662647
-0.00732468094807818,18.8150360035025
-0.00611386847031889,18.8161014818181
-0.00498212893939962,18.8172040859401
-0.00393221348407192,18.8183482891787
-0.00296644961683549,18.819539595121
-0.00208668166966303,18.8207848825651
-0.00129420701497923,18.8220929147189
-0.000589705408598327,18.8234751223502
2.68437696665208e-05,18.8249468711301
0.000556266969566263,18.8265296502984
0.000981316403187219,18.8281701240945
0.00131147907846603,18.8298627600335
0.0015623345820382,18.8316260458698
0.00174812955124445,18.8334830059504
0.00188231935423856,18.8354648825143
0.00197802668524797,18.8376169472946
0.00204876497049763,18.8400110845666
0.0021099703725907,18.8427787866981
0.00218405531554625,18.8462342688329
0.00228161491780587,18.8500019482214
0.0024167576340441,18.854149541078
0.00256880215502256,18.8580863612309
0.00273147388942974,18.8618846709537
0.00290231540076029,18.8656393643839
0.00308014152969705,18.8694098747943
0.00326496682923957,18.8732392427233
0.00345781514035719,18.8771627176681
0.0036605176788182,18.8812118896863
0.00387555005057844,18.8854171531852
0.00410592060944169,18.8898093450162
0.00435514306591331,18.8944210715266
0.00462735563341125,18.8992881506296
0.00492764845526383,18.9044509471403
0.00526182595151393,18.9099415137415
0.00560191244041368,18.9152438406687
0.00595926630983159,18.9205074677387
0.00633255891841873,18.9256674241762
0.00672651568558304,18.9307463008657
0.0071449331910122,18.9357471171633
0.00759251380258642,18.9406792162708
0.00807415124679504,18.9455479876023
0.00859517193023037,18.9503570611858
0.00916136030228306,18.9551077583338
0.00977909047426721,18.959799697731
0.0104554609153547,18.9644313823123
0.011212533056474,18.9690831993346
0.0120663963094268,18.9737636169238
0.0130374099244045,18.978484480696
0.0141542986522,18.983274014852
0.0154627479866409,18.9881976453251
0.0170530124622435,18.99342353202
0.0192033080935205,18.9995575150778
0.0209459435405948,19.0040159412746
0.022789770753583,19.0084743674713
0.0243406993920872,19.0122045810596
0.0256323759459387,19.0154732097593
0.0267141911693614,19.0185359503475
0.0275778426296216,19.0215106369737
0.0281725186922983,19.0243467002128
0.0284989583120761,19.0271642319454
0.0285307942678897,19.0301129027376
0.0281720635418004,19.0334904074975
0.0271432320306227,19.0378261515453
0.0262418877948283,19.0404982040552
0.0251829480885651,19.0431702565651
0.0241103190047379,19.0456140765464
0.023036368565116,19.0479150512125
0.021961760295764,19.0501365706313
0.0208893481930117,19.0523145036448
0.0198227771190636,19.0544716437197
0.0187657196484362,19.0566241203011
0.0177216422157828,19.0587842752723
0.0166937415384786,19.0609621422707
0.0156849356475376,19.0631662955221
0.0146978688715975,19.0654043882077
0.0137349245981728,19.0676835113772
0.012798236283303,19.0700104586976
0.0118896957925527,19.0723919389654
0.0110109682579996,19.0748347370328
0.0101634947988779,19.077345888259
0.00934850868627831,19.0799328104944
0.00856703861751859,19.0826034767615
0.0078020389943505,19.0854355651643
0.00705287726935607,19.0884634658844
0.00632335404862111,19.091710782754
0.00561742224188628,19.0952050051266
0.00493921244058406,19.0989779764295
0.00429297005980559,19.1030667738484
0.00368294937313347,19.1075149607653
0.00311324122548644,19.1123746561742
0.00258754233262145,19.1177100906501
0.00210884988246407,19.1236044219002
0.00167936676411643,19.1301689655811
0.00131124147499947,19.137320025417
0.00101242728988134,19.1450565134383
0.000805899400916422,19.1526291361768
0.00064389902293392,19.1607180991713
0.000508805554348144,19.1699938057437
0.000408025506111014,19.1799938057437
0.000341390082340688,19.1899938057437
0.000299454148415105,19.1999938057437
0.000275361426863738,19.2099938057437
0.000264259454081217,19.2199938057437
0.000262880182554359,19.2299938057437
0.000269153774625982,19.2399938057437
0.000281889534463393,19.2499938057437
0.000300555054435332,19.2599938057437
0.000325152438028091,19.2699938057437
0.00035617693169682,19.2799938057437
0.000394648917782381,19.2899938057437
0.000442225783076335,19.2999938057437
0.000500644567358539,19.3098734777158
0.000567884506762061,19.3190006167255
0.000644758515709457,19.3274111354569
0.000732463393582184,19.3351625323383
0.000832436044654824,19.3423085882467
0.000946335492147623,19.3488988695637
0.00107605359209034,19.3549791305128
0.00122373997396138,19.3605916773364
0.00139183502517477,19.3657756750367
0.00158310939406985,19.3705674167085
0.00180071072319235,19.375000572828
0.00204822100769104,19.3791064265611
0.00232972673538447,19.3829140957342
0.00264990654489127,19.3864507498411
0.00301414463161491,19.3897418360916
0.00342867919050064,19.3928113240564
0.00390080459554593,19.3956819802743
0.00443915508909601,19.3983757018637
0.00505412063717766,19.4009139553747
0.00575688134731873,19.4033133999732
0.00653653397632013,19.4055289769225
0.00740479578650585,19.4076006590197
0.00838035714786597,19.4095709316804
0.00949486998884716,19.4114900227364
0.010812891374125,19.4134364046575
0.0125636550766047,19.4156551118748
0.0140792596975119,19.4173539909557
0.0157192665359541,19.4190528700366
0.0172209671859172,19.4205475327839
0.0185325257116202,19.421857314523
0.0197018002565418,19.4230785639765
0.0207389700052132,19.4242655121063
0.0216335096214895,19.4254587273757
0.0223592937373279,19.4267023372762
0.0228669229658834,19.428064431507
0.0230438094998947,19.4297061576742
0.0226560925808339,19.4316322380046
0.0217117738870716,19.433558318335
0.0206346177504217,19.4351155202834
0.0194466704091534,19.436575872103
0.0181411299454884,19.4380442397872
0.0167259852868082,19.439566055867
0.0152093181993641,19.4411773842851
0.0140143135441881,19.4424940244731
0.0117902129674661,19.4451913925368
0.00977137465574219,19.4480136856899
0.00815362509787187,19.4506392861054
0.00682035571652491,19.4531439574891
0.00565275191445209,19.4556857669993
0.00462382353322062,19.4582952300033
0.00371494796925933,19.4609959923016
0.00292561423456305,19.4637562107946
0.0022914676420088,19.4663547823111
0.00177322573871692,19.4688154043581
0.00134057260159415,19.4711715499769
0.000971102502228369,19.4734595240354
0.000647623310857341,19.4757217820031
0.000355620878349777,19.4780170267803
7.87090855034996e-05,19.480459927683
-0.000222981118788068,19.4834728594542
-0.000396799513440962,19.4854010130214
-0.000558029866579121,19.4873291665887
-0.000694361346518525,19.4890716204056
-0.000814437108337738,19.49069537353
-0.000928072972885442,19.4923110811567
-0.00104258844441734,19.4940181683554
-0.00116742498401342,19.4959693892924
-0.00132794018554048,19.4986143901776
-0.00156077616096542,19.5027111911878
-0.00174385790373376,19.506140989548
-0.00190386742521065,19.5092881169182
-0.00207579601958722,19.5128411227146
-0.00228280220867613,19.5174365744354
-0.00249179224243175,19.5227829251987
-0.00263200369296928,19.5277429640999
-0.00268283924672034,19.5321908055112
-0.00263851871076238,19.5360518122722
-0.00249407233890706,19.5396307292961
-0.00224812692507824,19.5428907769684
-0.00190265373234026,19.5458713753243
-0.0014565673997674,19.5486350035512
-0.000903570843239738,19.5512434641616
-0.00022809451859537,19.553764788922
0.000610380895225745,19.5563078070049
0.00171115083534975,19.5590674538893
0.00314487719579549,19.5620919425335
0.00491299035067807,19.5653108014639
0.00641116726299098,19.5677473692775
0.00806593810022623,19.570183937091
0.00955556657481023,19.5721566604646
0.0110676304301656,19.5739524419507
0.0126271133880527,19.5756001948949
0.014316899894982,19.5771760563759
0.0161603334792334,19.5786816869787
0.0182011770418503,19.5801328953913
0.020465714214325,19.5815285729134
0.0229904247539677,19.58287327018
0.0258106163571413,19.584168854157
0.0289586918435546,19.5854149964416
0.0324821638360057,19.586616304793
0.0364292749745918,19.5877752727676
0.0408552126275945,19.588894614708
0.0458242768791397,19.5899773483863
0.0514154674869706,19.5910273558069
0.0577203974390109,19.5920482083632
0.064848934293028,19.5930436933792
0.0729343068012707,19.5940178688034
0.0821402354384707,19.5949751686454
0.0926733390957127,19.5959207548905
0.10479738462899,19.5968605812403
0.118859537235405,19.5978019407732
0.135333540599836,19.5987542689373
0.15489875443541,19.5997306519637
0.177778649047624,19.6007179624164
0.204330839896733,19.60171377067
0.235310109546365,19.6027308168787
0.271778837925959,19.6037885227722
0.31543190980371,19.6049220221872
0.350245974168742,19.6057608420244
0.386313607711028,19.6065996618616
0.41839632033059,19.6073461662493
0.44647421023057,19.6080267109392
0.470947563962732,19.6086733219278
0.491763618216278,19.609309738914
0.508462591622207,19.6099580949847
0.520047708683824,19.6106455496038
0.524439400010689,19.6114168566897
0.518482566127667,19.6122285397858
0.500756513037985,19.6130655356457
0.469781220747466,19.6139426187607
0.423736487031735,19.6148700937213
0.376259900237009,19.6156320733181
0.320994813939272,19.6163940529149
0.282210719096619,19.616882795207
0.241660432036725,19.6173715374991
0.205266048251223,19.6178021388658
0.173012628142052,19.6181858486388
0.144033949550832,19.6185392490303
0.117717262902973,19.6188737517754
0.0936245629594216,19.6191979211228
0.0713883175551315,19.6195196109856
0.0506102756636633,19.6198483919153
0.0306300551854677,19.6202017954897
0.00902979397998377,19.6206463346859
0.000155613215958398,19.6208566297517
-0.00789461732560568,19.6210669248175
-0.0143274702564796,19.6212519792915
-0.0202999991106482,19.6214409519439
-0.0262750024552596,19.621651071257
-0.0320174659548764,19.6218789144911
-0.0373794955291685,19.6221224740652
-0.0422796621776671,19.6223810973539
-0.046676199857207,19.6226550340481
-0.0505492888028289,19.6229451874465
-0.0541182685706476,19.6232774405858
-0.0568593793462662,19.6236038596726
-0.0590858991568735,19.6239519430248
-0.0608148182679924,19.6243250973509
-0.0620605058401513,19.6247270953283
-0.0628364079854685,19.625162599098
-0.0631535457726924,19.6256374356584
-0.0630187976940262,19.6261590055145
-0.062432283842708,19.6267372207237
-0.0613818311764609,19.6273863487523
-0.0598390363001825,19.6281254112577
-0.0577464364237909,19.6289836612413
-0.0549824888632609,19.6300131064579
-0.0512172791921546,19.6313398882581
-0.047191740739829,19.6327275904508
-0.0433101788340078,19.6340705416064
-0.0396161871910634,19.6353728463046
-0.036130911177658,19.6366365637476
-0.0328649133197102,19.637862427428
-0.0298223497398845,19.6390505006068
-0.0270029235714196,19.6402005262063
-0.0244029917458688,19.6413121106767
-0.0220163229157906,19.6423848178297
-0.0198346971896968,19.6434182115619
-0.0178484213768654,19.644411867856
-0.0160467853018494,19.6453653670968
-0.0144184665872103,19.6462782727507
-0.0128654985182373,19.6472031307229
-0.01137330698849,19.648151811857
-0.00994610806898523,19.6491261136111
-0.00858779909406227,19.6501282382628
-0.0073020672651857,19.6511607773393
-0.00609233851011038,19.6522268097902
-0.00496172525219007,19.6533300312402
-0.00391297199470669,19.6544749290805
-0.00294839858145047,19.6556670254577
-0.00206984054010143,19.6569132242206
-0.00127858516138404,19.6582223233872
-0.000575300607577812,19.6596058038816
4.00472549926402e-05,19.6610791070575
0.000568301070335648,19.6626638435099
0.000991890791706067,19.6643049953798
0.00132086924314437,19.6659986109835
0.00157078304007808,19.6677631955725
0.00175586683023001,19.6696218767481
0.00188957122890008,19.671606064018
0.00198502504585167,19.6737613270232
0.00205576737654676,19.6761601505215
0.00211730771523945,19.6789355143935
0.00219232192947992,19.682407207255
0.00229084193058788,19.6861774255467
0.00242737702327378,19.6903347302417
0.00257891586833564,19.6942354850789
0.00274169297683561,19.6980196202114
0.00291318466352211,19.7017737586548
0.0030921154145312,19.705553080346
0.0032784430442728,19.7093986219402
0.00347316702414903,19.7133446740622
0.00367812250711334,19.7174224336314
0.00389581341536986,19.7216622786384
0.0041292977252076,19.7260952959848
0.00438216782693742,19.7307546107147
0.00465869166974436,19.735676849448
0.0049641774010246,19.7409034210438
0.00529865386783375,19.7463686315192
0.00564078460535203,19.7516717011207
0.00599962366083706,19.7569219179895
0.00637500218311447,19.7620718016446
0.00677147261576063,19.7671404893572
0.00719300128593103,19.7721326966252
0.00764429311357706,19.7770571263704
0.0081302807962372,19.7819189449327
0.00865632507824936,19.7867214160889
0.00922826090794735,19.7914655818088
0.00985252919340339,19.7961508569144
0.0105363168950452,19.8007756535415
0.0113040202301036,19.8054321154095
0.0121702572357896,19.8101161447273
0.0131564751686897,19.8148431013791
0.014292678687123,19.8196436667584
0.0156276254047063,19.8245902765666
0.01726099436013,19.8298729615439
0.0195284087764731,19.8362315465117
0.0212135581408253,19.8404889633807
0.0229813246390475,19.8447463802498
0.0244940520410161,19.8483952943209
0.0257610360969993,19.8516308293066
0.0268203461658046,19.854681052233
0.0276541726042823,19.8576343227155
0.0282201672833843,19.8604622694806
0.0285167570765214,19.8632857694575
0.0285131953930463,19.8662612670102
0.0280981779062129,19.8697241741112
0.0273111310391229,19.8730660614434
0.0262051459818728,19.8764079487756
0.0251110762333247,19.8791513817801
0.024035514287829,19.8815891936183
0.0229612654375853,19.8838835418887
0.0218866724153418,19.886101196092
0.020814525940279,19.8882771355923
0.0197484787390229,19.8904335677357
0.0186921924051269,19.892586293781
0.017649115520229,19.8947474598177
0.0166224249765688,19.8969269782889
0.015615019218213,19.8991333472011
0.0146295239486438,19.9013741727816
0.0136683040510401,19.9036565219714
0.0127334764384697,19.9059871778677
0.0118269165113279,19.9083728536232
0.0109502725971628,19.910820353348
0.0101049719179297,19.9133367370893
0.00929223239044731,19.9159294651319
0.00851306955063089,19.9186065611011
0.00774903386394321,19.9214515837638
0.00700110852725432,19.9244938825398
0.00627308705654815,19.9277573740068
0.00556893513772234,19.9312698275411
0.00489279368893956,19.935063415612
0.00424891249531434,19.9391756159186
0.00364154043518215,19.9436505017396
0.00307475310454972,19.948540845553
0.00255219660852083,19.9539120189593
0.00207681999980174,19.9598487255645
0.00165077172498444,19.9664646094866
0.00128711069191118,19.9736533574406
0.00099391901480863,19.9814350656003
0.000761375277404106,19.9903439443376
0.000667112148668848,19.9951719721688
0.000587741001871221,20
