ecg,time
0.00509170707018938,15.0015549178772
0.00548190028135057,15.0034555490301
0.00586667337335009,15.0051640211575
0.00627540455776649,15.0068300124385
0.00673656745108796,15.0085579059402
0.00729658622495467,15.0104809678704
0.00807708556088711,15.0129136893896
0.00903346326565923,15.0156140402788
0.0100660714528128,15.0183143911679
0.0109664746593548,15.0205912383077
0.011723227177061,15.0225296137999
0.0123838576047082,15.0243202280054
0.0129534927945987,15.0260396306218
0.0134245032573548,15.0277396508898
0.0137805380826687,15.029470753332
0.0139932030142423,15.0312999008294
0.0140071203786738,15.0333527813447
0.0136503602154441,15.0360558915289
0.013078840094073,15.0382133555548
0.0122950391520639,15.0403708195807
0.0114709584895352,15.0422685483261
0.010611054342709,15.0440642448112
0.0101105052803866,15.0450634567015
0.00975788663283254,15.0457558595936
0.00941425575030948,15.0464482624857
0.00827702712712946,15.0489560875178
0.00726673956233217,15.0515616259765
0.00640182751334835,15.0542343041343
0.00568079388587262,15.0569971049977
0.00510927312783435,15.059874682873
0.00470261948569009,15.0628932330783
0.00450188180057836,15.0657291018963
0.0044791036421113,15.0684824852164
0.00463485131918893,15.071304405433
0.00499572263965771,15.0743185901293
0.00559744078590648,15.077647441081
0.00625763370607665,15.0805659230466
0.0070241732865356,15.0835451198511
0.00764321769505712,15.0857238599358
0.00832960649610555,15.0879026000206
0.00904940022647569,15.089910126086
0.00981922507189356,15.091761832761
0.0106821155875342,15.093528645052
0.0116694740814315,15.0952335878728
0.0128083543144326,15.0968835281722
0.0141230552104544,15.0984787258867
0.0156363035289694,15.1000175556683
0.0173704907527542,15.1014987466659
0.0193489616133356,15.1029222170235
0.0215969899727435,15.1042890088177
0.0241431595959716,15.1056012697724
0.0270207048901243,15.1068620221954
0.0302671876317083,15.1080742955024
0.0339267460520374,15.1092415379117
0.038050525078886,15.1103671844078
0.0426986143430337,15.1114547703844
0.0479414742280193,15.1125078041259
0.0538626712016354,15.1135298752141
0.060561826649851,15.1145246516113
0.0681590083554617,15.1154959741013
0.0768005381299437,15.1164479432236
0.0866673044320783,15.1173850606945
0.0979867647638729,15.1183124228664
0.111051094956948,15.1192360180352
0.12624566384622,15.1201631870262
0.14409703061269,15.1211034299578
0.165361631755934,15.1220699661281
0.190049663995102,15.1230406667357
0.218712433987417,15.1240212735924
0.252168270025868,15.1250246096415
0.291593011586244,15.1260712505218
0.338776870417385,15.1271974014483
0.381867403150902,15.1281570740448
0.417095705883168,15.1289267071591
0.447409992120933,15.1296052555552
0.473925553287283,15.1302400349402
0.49682878081276,15.1308582236908
0.515826965684915,15.131482371705
0.530135076398589,15.1321381998081
0.538082338630465,15.1328659010233
0.536390019588815,15.1336586709243
0.523107438522279,15.1344743004516
0.496846341321707,15.1353301391302
0.455737231970029,15.1362391239878
0.397667119658263,15.1372096727088
0.351161253213099,15.1378611326063
0.299536880462697,15.1385125925038
0.253865795881372,15.1390531394247
0.2150501428231,15.1395008431547
0.181136848846815,15.1398924723559
0.150859196210693,15.1402496755876
0.123470683553315,15.1405854365689
0.0984709662904791,15.1409089181591
0.0754633038465709,15.1412280404935
0.0540501248690241,15.1415517599476
0.0336464079560828,15.1418948824205
0.0125530448655444,15.1423028261083
0.000503556736393746,15.1425717656546
-0.00694565083546002,15.1427563369523
-0.013756680759296,15.1429409082501
-0.0196840137004693,15.143116894469
-0.0257421971370328,15.1433154076486
-0.0316662807739841,15.1435329559987
-0.0372644527997263,15.1437667628207
-0.0424284855976816,15.1440156572334
-0.0471005868353128,15.1442795300556
-0.051253162396955,15.1445590073571
-0.0548770309879444,15.1448552871337
-0.058084984796014,15.1451840661132
-0.0605978960697323,15.1455176427331
-0.0626004762800078,15.145874328815
-0.0641089238783288,15.1462577173474
-0.0651375393577951,15.1466719941352
-0.0656989157328817,15.1471223636975
-0.0658023243348284,15.1476153878274
-0.0654517409858038,15.1481595021167
-0.0646415012735579,15.1487668382881
-0.0633515498237399,15.1494537199289
-0.0615399215815233,15.1502436914829
-0.0591210787406995,15.1511754627933
-0.0558955500663512,15.1523276503846
-0.0517658802280184,15.1537472344125
-0.0477447047304518,15.1551169285973
-0.0438912516873985,15.1564446885249
-0.0402361933607644,15.157733548373
-0.0367954601389336,15.1589847053073
-0.0335768096392604,15.1601984282152
-0.0305826500383286,15.1613745325044
-0.0278114767957646,15.1625126302353
-0.0252587627578939,15.1636122605093
-0.0229176179875144,15.1646729535857
-0.0207793408985054,15.1656942563083
-0.018833905022232,15.16667573352
-0.0170703950922547,15.1676169535128
-0.0154632987694706,15.1685256737878
-0.0139129881157193,15.169457455481
-0.012424485349907,15.1704135095871
-0.0110017835061178,15.1713958128459
-0.00964870192663501,15.1724066735768
-0.00836882982069959,15.1734488166643
-0.00716547440458323,15.174525489299
-0.0060416063872658,15.1756406021557
-0.00499980274205118,15.1767989219576
-0.00404218622241929,15.1780063408738
-0.00317036040061974,15.1792702648543
-0.00238533776844917,15.1806001938383
-0.0016874561516268,15.1820086274083
-0.00107627408770064,15.183512557995
-0.000552833192144502,15.185127688892
-0.00013633988877744,15.1867824710042
0.000190813982667911,15.1884953376741
0.000443792192149371,15.1902854882093
0.00063678506494715,15.1921781446478
0.000783399238348615,15.1942081687609
0.000897238447727839,15.1964273864326
0.000992930076641364,15.1989212404628
0.00108864804650262,15.2018564333863
0.0012130685326835,15.2055979659213
0.00135926395895663,15.2094389957372
0.00153746520873864,15.2134992006273
0.00172644992013576,15.217390806345
0.00192344800331709,15.2212168099023
0.00212659339825758,15.2250453314486
0.00233512163419661,15.228923813952
0.00254937072203752,15.2328899299089
0.00277060297650981,15.2369767296587
0.0030008029629868,15.241215461244
0.00324250689407764,15.2456374115163
0.00349870695698168,15.2502753791504
0.00377288738964136,15.2551651266824
0.0040692471848299,15.2603466661097
0.00439319648664934,15.2658655798725
0.00473077276989897,15.271424201285
0.00507477075589399,15.2768571531868
0.00542981569713819,15.2821953160349
0.00579828951478488,15.2874286217482
0.00618433679110892,15.2925714388632
0.00659201360539426,15.2976330723922
0.00702565348358454,15.3026222729705
0.00748975308401159,15.3075446739189
0.00798911523910363,15.3124036187507
0.00852895553230505,15.3172004166897
0.00911502180047461,15.3219347273504
0.00975369572875843,15.3266048347404
0.0104521093995335,15.3312081526281
0.011234470871033,15.3358328580829
0.0121160595211929,15.3404781259041
0.0131180780489145,15.3451565649044
0.0142702259465585,15.3498961397763
0.0156202741599439,15.3547636154209
0.0172641656306036,15.3599328256482
0.0195087313895522,15.366048956163
0.0212634960677369,15.3703396962544
0.0231163802520815,15.3746304363458
0.0246906065361843,15.3782592785303
0.0260072761611614,15.3814526687061
0.0271126630548481,15.3844505387515
0.0279931913287501,15.3873496835001
0.0286038713167545,15.3901166940648
0.0289456231198939,15.392868571751
0.0289920249907608,15.395751310628
0.0286467550189817,15.3990578950937
0.0278828356093631,15.4024415912306
0.0267671959057877,15.4058252873675
0.0256749726481426,15.4085346634324
0.0246047600580165,15.4109209139044
0.0235352449993286,15.413160157216
0.0224641602741353,15.4153209755289
0.0213942760280155,15.4174383542487
0.0203292819164393,15.4195342375337
0.0192728665591674,15.421624112117
0.0182284915291719,15.423719792889
0.0171993358977511,15.4258308484479
0.016188291349425,15.4279654209384
0.0151979733721603,15.4301307384848
0.0142307326649894,15.432333468099
0.0132886709595757,15.4345799630276
0.0123736512874733,15.4368764636977
0.0114873073869762,15.4392292669765
0.0106310596934122,15.4416448590339
0.0098061173827,15.4441300782809
0.00900796463249701,15.4467107949463
0.00822019922523667,15.449462136813
0.0074465931811729,15.4524035904243
0.00669092658382401,15.4555585252063
0.0059572314843649,15.4589539737477
0.00524976816091119,15.4626213161242
0.00457297618366777,15.4665971381994
0.00393139207879783,15.4709243472906
0.00332949927305902,15.4756539163343
0.00277147692465476,15.4808481058348
0.00226088523586313,15.4865863248874
0.00180039076210995,15.4929750837376
0.0014060223111619,15.4998785060678
0.00114414876456973,15.5056104649749
0.000940589622857017,15.5113424238821
0.000722793654849899,15.5194792119803
0.000549365055488131,15.5283354235423
0.000412689674127402,15.538014655607
0.00031349364470294,15.548014655607
0.000244874931089401,15.558014655607
0.000197879915830925,15.568014655607
0.000165993868464045,15.578014655607
0.000144583614186178,15.588014655607
0.000130444183403755,15.598014655607
0.000121395855244903,15.608014655607
0.000115962792142968,15.618014655607
0.000113144146694651,15.628014655607
0.000112261925492217,15.638014655607
0.000112861867451996,15.648014655607
0.000114647846451207,15.658014655607
0.000117437384115976,15.668014655607
0.000121131185617695,15.678014655607
0.000125692598442024,15.688014655607
0.000131134391291371,15.698014655607
0.000137511078338797,15.708014655607
0.000144915602577612,15.718014655607
0.000153479691374704,15.728014655607
0.000163377650809159,15.738014655607
0.000174833805864859,15.748014655607
0.000188134275537062,15.758014655607
0.000203644379910523,15.768014655607
0.000221833838070094,15.778014655607
0.000243313235901222,15.788014655607
0.000268887371995959,15.798014655607
0.000299634661363446,15.808014655607
0.000337027984243174,15.818014655607
0.000382926653433433,15.8279757904488
0.000435721189154269,15.8372060604579
0.000496182736703037,15.8457333844667
0.000565338013877686,15.8536100921284
0.000644375827330686,15.8608859469156
0.000734649997862058,15.86760732781
0.000837694733659106,15.8738174192431
0.000955246214901803,15.8795564217621
0.0010892680561689,15.8848617473241
0.00124198075026135,15.8897682012603
0.0014158949453026,15.89430815827
0.00161385109134301,15.8985117342797
0.00183906559548872,15.9024069523289
0.00209518672765065,15.906019903047
0.00238636244160367,15.9093749046876
0.00271732462583245,15.912494666685
0.00309349613295426,15.9154004579035
0.00352112894401055,15.9181122856245
0.00400748846937872,15.920649096017
0.00456110661691384,15.923029009567
0.00519214173221346,15.9252696160374
0.005906718212938,15.9273717568542
0.00669501694050588,15.9293053577284
0.00756606653459329,15.9311019887576
0.00853332402743398,15.9327928451203
0.00961706653723255,15.9344099794075
0.0108513532218858,15.9359921237409
0.0123416605152658,15.937638604053
0.0143600850794032,15.9395543360753
0.0161318782692896,15.9410396022553
0.0180535633346486,15.9425248684353
0.0198253936403535,15.943837077496
0.0213794958279309,15.9449882004544
0.0227743189060524,15.9460643095236
0.0240236756365716,15.9471142363669
0.0251171063838792,15.9481753032542
0.0260262610076375,15.9492895480144
0.0266959750649216,15.9505248516877
0.02699416606846,15.9520545718246
0.026646610331746,15.9537889600218
0.0256822840631332,15.955523348219
0.0245450171528558,15.9569440041516
0.0232567887284102,15.9583025994383
0.0218129175876612,15.9596908426649
0.0202211671543545,15.961152293277
0.0184873528661426,15.9627259181232
0.0178121937876368,15.9633433228903
0.0171501853867803,15.9639607276575
0.0146347100754265,15.9664828963584
0.0118741709104692,15.969676097779
0.00975619845966659,15.9725658459586
0.0081153392263299,15.9751880619152
0.00678247427590739,15.9776659463077
0.00562045246597525,15.9801788530674
0.00460064270462159,15.9827577421535
0.00370378488558022,15.9854258664957
0.00291447684560953,15.9882063479104
0.00226687454383587,15.9909089493926
0.00174696947765938,15.9934565462227
0.00131767993530273,15.9959006874005
0.000953801718509121,15.9982885278628
0.000641397548122283,16.0006355948287
0.000374747520823337,16.0029118250781
0.000149237022017392,16.0050778375759
-4.26698812008916e-05,16.0071292733393
-0.000209242012045832,16.0090908901805
-0.000357495726949491,16.0109979096497
-0.000493526247920324,16.0128965486458
-0.000623992577560964,16.0148639415021
-0.000761552550195968,16.0171052786582
-0.000865245379080169,16.0189138221845
-0.000963399799214288,16.0207223657109
-0.00104321366808448,16.0222623335196
-0.00111241918738086,16.0236472013117
-0.00117778765583916,16.0249963996861
-0.0012435336714148,16.0263920904381
-0.00131435673210837,16.0279366592049
-0.00140008909769324,16.0298591345181
-0.00155221407967574,16.0333941314078
-0.0016950636870178,16.0368305158681
-0.00181974458997264,16.0399016408577
-0.00195210846997634,16.0432197860332
-0.00212811471250964,16.047703617271
-0.00236417488348094,16.0538469275108
-0.00255630689515304,16.0592105028818
-0.00269634579940389,16.0639126453299
-0.00277502744357014,16.0680633441451
-0.00278468171292932,16.0718202015829
-0.00271570499144887,16.0752680107824
-0.00256161296181821,16.0783981372935
-0.00232060480485763,16.0812274720171
-0.00199026263401619,16.0838114000357
-0.00156133014893766,16.0862306863699
-0.00100965402857912,16.0885902545335
-0.000268963827088955,16.0910748337617
0.000732387755880429,16.0937974237519
0.00159376851228584,16.0958359383737
0.00252205869578805,16.0978744529955
0.00347768658181841,16.0998872024146
0.00464842145019853,16.1022899227614
0.00563335927830986,16.1042560267151
0.00666234871125766,16.1062221306689
0.00769932172105594,16.1080698834548
0.00875145242968556,16.1097786140354
0.00990117906652961,16.1114483840229
0.0111629290336613,16.1130612701741
0.0125873847961526,16.1146459142737
0.01418215758527,16.1161777869911
0.0159846298767447,16.1176663392683
0.0180154111832475,16.1191046297458
0.0202869842251567,16.1204835103023
0.0228345925006551,16.1218093951908
0.0256877709917164,16.1230832467592
0.0288806660876291,16.1243071378475
0.0324520834912056,16.1254835122973
0.0364479595200719,16.1266154767743
0.040924531062475,16.1277069453475
0.0459456313420638,16.1287613076196
0.0515860959208152,16.1297819621781
0.0579340304173846,16.1307723107258
0.0650943987714985,16.1317358652555
0.0731929317665651,16.1326762458393
0.0823816626159262,16.133597248207
0.0928467105705516,16.1345029551577
0.104818982823197,16.1353978634617
0.118589883764014,16.1362870876392
0.134534196959301,16.1371766230606
0.153146195275234,16.1380738006484
0.175101403977638,16.138988137078
0.200945769053518,16.1399187298567
0.230845066365538,16.1408531408135
0.265562913524984,16.1418010412753
0.306158820117687,16.142777996426
0.354423751157152,16.1438162089362
0.391025973343971,16.1445481439693
0.428772844335344,16.1452800790023
0.462309715144462,16.1459344633889
0.49173860894859,16.1465368224181
0.517518376821859,16.1471172665036
0.539561264940249,16.1476992803323
0.557285370806859,16.1483079249271
0.569342388765055,16.1489814643817
0.572476048726151,16.1497384535298
0.563942254498117,16.1505179746213
0.542462850490694,16.1513408748241
0.506070070010716,16.1522249736697
0.455531009881317,16.1531305078423
0.39112913666646,16.1540549871549
0.343751521535048,16.1546478794962
0.29256457551659,16.1552407718375
0.247542142817199,16.1557397668771
0.20909993354702,16.1561606447533
0.175400287357359,16.1565337555949
0.145265424794196,16.1568774403009
0.11797983395979,16.157203219548
0.0930439597487907,16.1575197303749
0.0700361272390031,16.1578351326431
0.0484809241552523,16.1581600096232
0.027501967434492,16.1585160954858
0.0102319545718222,16.1588529252487
0.000917921734484597,16.1590579159924
-0.00752872336688809,16.1592629067361
-0.0141630585148909,16.1594401262911
-0.0202610590456979,16.1596189313532
-0.0264135727719077,16.159818914765
-0.0323633764366609,16.1600365566539
-0.0379453567093034,16.1602697019115
-0.0430672734055007,16.1605175695524
-0.0476807616668417,16.1607802954669
-0.051764014266229,16.1610586752654
-0.0553115577016209,16.1613540407465
-0.058327993556648,16.1616682189638
-0.0608217096845069,16.1620044942274
-0.0627697640637268,16.1623604997764
-0.0642212436239744,16.1627437430888
-0.065191079418857,16.1631586557908
-0.0656918221918,16.1636107186818
-0.065732213685016,16.1641068867767
-0.0653150069067493,16.1646561795365
-0.0644317163886217,16.1652718771426
-0.0630578645015337,16.1659717239721
-0.0611425539529853,16.1667823291196
-0.0585790124734179,16.1677495777278
-0.0550948143279897,16.1689768450194
-0.0509448275667108,16.170391905518
-0.0469104074370526,16.1717613604975
-0.0430471611096704,16.173090833037
-0.0393833736923053,16.1743826322208
-0.0359340919047009,16.1756375447235
-0.0327068236386095,16.1768555928844
-0.0297040049603728,16.1780364359847
-0.0269242754570991,16.1791795821391
-0.024363288310251,16.1802844983696
-0.0220143281764302,16.1813506637287
-0.0198688402117272,16.1823775887128
-0.0179169061087912,16.1833648134012
-0.0161476761824541,16.1843118911838
-0.0145497572706692,16.1852183618587
-0.0130106775498373,16.1861464268022
-0.0115332234420163,16.1870985078276
-0.0101214501431468,16.1880765233023
-0.00877923432712454,16.1890827235721
-0.00751023782669917,16.1901197618302
-0.00631785756288622,16.1911907954752
-0.00520517352018722,16.1922996209294
-0.00417489484867045,16.1934508568973
-0.0032293040234755,16.1946501996933
-0.0023701985945112,16.1959047894938
-0.00159882939806825,16.1972237543062
-0.000915832930687129,16.1986190528505
-0.000321036648097728,16.200106851399
0.000186568287468342,16.2017099307415
0.000586886730284069,16.2033572746344
0.000895028082745244,16.2050599275327
0.00112606520162334,16.2068365768504
0.00129391190613122,16.2087113354323
0.00141170144692361,16.2107172246476
0.00149222938091369,16.2129027136092
0.00154865425388492,16.2153462147983
0.00159602913989907,16.2181957551081
0.00165679663147552,16.2218307928011
0.00173792777010513,16.2256286167597
0.0018553483258938,16.2298832568235
0.00199743955009687,16.2342011367542
0.00215223157265141,16.238472130553
0.00232211771642824,16.2429537241016
0.00251617375301909,16.2479719603617
0.00270735629084009,16.2528367955246
0.00290504167521607,16.2578022562976
0.00307904136029142,16.2620921899103
0.00324188516178808,16.2660258902919
0.00340259025307872,16.26981580464
0.0035658627546516,16.2735607989084
0.00373498913742971,16.2773205444633
0.00391277113782515,16.2811383147713
0.00410190195049632,16.2850494079941
0.00430517716190954,16.2890852562969
0.00452566526472902,16.2932761709559
0.00476684783877527,16.2976528759198
0.00503279908949895,16.3022478008031
0.00532847986085236,16.3070964693299
0.00566023292691237,16.3122388346564
0.00602203905429008,16.317512495912
0.0063998176934031,16.3226671831683
0.00680038337452601,16.3277633728845
0.00722494662741834,16.3327721876749
0.00767826317464741,16.3377040286692
0.00816519908691321,16.342562460147
0.00869148883143174,16.3473530133216
0.00926334233396284,16.3520783370735
0.00988753736928475,16.3567388822066
0.0105714970644029,16.3613333502032
0.0113400866669728,16.3659547055947
0.012207771106304,16.3705962948228
0.0131958275308013,16.3752714448816
0.0143336082131394,16.38000713771
0.0156680346761716,16.3848682103039
0.0172924197931333,16.3900228747009
0.0194985668890744,16.3960840630199
0.0212633117735254,16.4004265218307
0.0231316230275853,16.4047689806415
0.0247117547349933,16.4084179416689
0.0260312702806541,16.4116192725703
0.0271391441603258,16.414620144045
0.0280237954319882,16.417523534133
0.0286385459420193,16.420291834991
0.0289847242044074,16.423041952449
0.0290367255736157,16.4259185156871
0.0287011083598036,16.4292071278782
0.0279367983929472,16.43262069364
0.0270680633557005,16.4353363565572
0.0260136059342899,16.4380520194744
0.0249450759365624,16.4404906955805
0.0238756560315002,16.4427608482642
0.0228042319032509,16.4449387055244
0.0217331585759371,16.4470648092881
0.0206660259870616,16.449163813629
0.0196065558370489,16.4512526489515
0.0185582834860523,16.4533439632973
0.0175244715141075,16.4554478254996
0.0165080959422539,16.4575726735966
0.0155118537240944,16.4597258957985
0.014538173762263,16.4619142189766
0.0135892322519193,16.4641439768595
0.0126669629649848,16.4664213213127
0.011773067316236,16.4687523937429
0.0109090287158052,16.4711434614314
0.010076115535318,16.4736010729152
0.00927521482724348,16.4761327747111
0.00848363653340455,16.4788296556297
0.00770515333607167,16.4817101526517
0.00694346937336304,16.4847966629415
0.00620254862235403,16.4881150651709
0.00548659107109677,16.4916953960362
0.00479999508627778,16.4955726562526
0.00414728462545877,16.4997878765871
0.00353298461057236,16.504389671661
0.00296140731026266,16.5094369634418
0.00243634111844799,16.5150041660596
0.00196074484555559,16.5211902719003
0.00154683283391134,16.5279446326368
0.00119913591844081,16.5352104375376
0.000919680225039225,16.5430924430861
0.000700203183630732,16.5519365840695
0.000550858207891958,16.5603568367277
0.000427228344009869,16.5700387324523
0.000339396078619826,16.5800387324523
0.0002808365033206,16.5900387324523
0.000243268823237425,16.6000387324523
0.000220674342334947,16.6100387324523
0.000208790822354062,16.6200387324523
0.000204709684787917,16.6300387324523
0.000206511842041231,16.6400387324523
0.000212973934298417,16.6500387324523
0.00022336050051301,16.6600387324523
0.000237290850535725,16.6700387324523
0.000254660122410247,16.6800387324523
0.000275597630147633,16.6900387324523
0.000300452918026157,16.7000387324523
0.00032980629555676,16.7100387324524
0.000364505535436954,16.7200387324524
0.000405735165045463,16.7300387324524
0.000455131173889561,16.7400387324524
0.00051496434452091,16.7500387324524
0.000588433722590137,16.7600387324524
0.000673357434390148,16.7693626122125
0.000770191119097084,16.777942133396
0.000880443147469224,16.7858357781795
0.00100592735118743,16.7931019806439
0.00114872644742183,16.7997946545193
0.0013112118027871,16.8059635301236
0.00149608231325214,16.8116546026824
0.00170641486311782,16.816910495203
0.00194572744555372,16.8217707613317
0.00221805267262363,16.8262722091723
0.00252803956220169,16.8304492420878
0.00288108014986257,16.8343342007752
0.00328348216690833,16.8379577119806
0.00374271331245119,16.8413491385193
0.00426775877232756,16.8445371871931
0.00486968118103466,16.8475507521327
0.00556254034581843,16.8504202492754
0.00634689777276714,16.853122808482
0.00723790539035799,16.8556983099549
0.00827473569108502,16.8582331220946
0.00955356258480653,16.8608934610067
0.0113382594445018,16.8640644223291
0.0124566822000237,16.8658599465268
0.0136215389897637,16.8676554707245
0.0146728144503244,16.86927101137
0.0156020686702016,16.870755508835
0.0164188516606834,16.8721764862156
0.017116967035845,16.8735817634205
0.0176779741662402,16.8750164550869
0.018068147363502,16.8765397364685
0.0182209910097796,16.8782627131299
0.0179305619990887,16.880564245956
0.017301557964863,16.8824436558107
0.0163811136729736,16.8843230656653
0.0153784864868737,16.8859900970817
0.0142985568251442,16.8875950751772
0.013145978417439,16.8892050501032
0.0124234289119669,16.8901889927188
0.0118479005365911,16.8909709469327
0.0112904223958012,16.8917529011467
0.0099989753818113,16.8936861246707
0.00887183784421668,16.8955415278776
0.00786700525648264,16.8973623275539
0.0069202625851026,16.8992586526093
0.00597100137853221,16.9013833982217
0.00494361673557918,16.9040123497659
0.00402780366438154,16.9067449926514
0.00321544235848596,16.9095934692878
0.00250944650177127,16.9125203295029
0.00187559875113119,16.9156506998941
0.00131136928422059,16.9190073395223
0.000814938534941192,16.9226075491946
0.000381277560894016,16.9265004969874
8.55562944962065e-06,16.9307496072178
-0.000298183845873428,16.9354383448614
-0.000487472623973917,16.9397365160219
-0.000577433675869418,16.943644170993
-0.000578191058716017,16.9472102795933
-0.000492853722134455,16.9504902035323
-0.000319017723025311,16.9535472867818
-4.81135801372426e-05,16.9564540534423
0.000339258571971775,16.9593085631273
0.000888433718873356,16.9622733347461
0.00166070186028768,16.9654686402296
0.00269605841845006,16.9689016028482
0.00395561219710744,16.9723954651809
0.00490835681259777,16.9747091849511
0.00597584058834347,16.9770229047213
0.00706517585584637,16.9791071348725
0.00818532682775516,16.9809879835055
0.00938776843059649,16.9827504957633
0.0107173802671494,16.9844415510175
0.0121926262677571,16.9860615114679
0.0138445914436847,16.9876227369218
0.0156931713040388,16.9891233489262
0.0177664133655502,16.990567722325
0.0200864346381669,16.9919546470216
0.0226851126792687,16.9932881679978
0.0255932323232791,16.9945698495178
0.0288485878021556,16.9958029028289
0.0324946063917579,16.9969906274504
0.0365806245369414,16.9981361340987
0.0411649348262938,16.9992428645385
0.0463164643264331,17.0003144290301
0.052116180897203,17.0013543983123
0.0586602853680565,17.0023664239233
0.0660653990874275,17.0033544659828
0.0744736663835887,17.0043227555994
0.0840609575302795,17.0052759474073
0.095049194866868,17.006219362859
0.107724628946472,17.0071593016441
0.122468950045136,17.0081036754169
0.139810495209801,17.0090629171214
0.160488994172359,17.0100503996581
0.184426793256306,17.0110399965722
0.212247317039615,17.0120419221759
0.244784768558966,17.0130706168429
0.283259947177029,17.0141493344398
0.32822948915142,17.0152865861188
0.369558704766038,17.0162647652871
0.403892507757865,17.0170623417864
0.433560221313816,17.017768057614
0.459492995423999,17.0184271441587
0.481839851824001,17.0190664886217
0.500314501562268,17.0197081354467
0.514180191491561,17.0203761124992
0.521935742826496,17.021105093218
0.520593260842484,17.0219122236391
0.507985324523711,17.0227371578179
0.482824422469046,17.0235962347583
0.443416690073323,17.0245015327219
0.387862082057622,17.0254617106029
0.343356869099722,17.0261051493749
0.293917479003468,17.0267485881469
0.249875995159352,17.0272858236271
0.212183249083253,17.0277335314857
0.17910034004178,17.0281266409674
0.149480407468134,17.0284859532378
0.122636605180992,17.0288241139771
0.0981021857063323,17.0291501374205
0.0755027848321899,17.0294718615611
0.0544598692331163,17.029798162246
0.0344148471451133,17.0301436412702
0.0137676070358387,17.0305522805757
0.00138943200364214,17.0308353026745
-0.00598710577962648,17.0310230351448
-0.0127282478620087,17.0312107676151
-0.018590881445918,17.0313897468724
-0.0245855993015719,17.0315918607883
-0.0304355030477772,17.031813072696
-0.0359546911012019,17.0320506265264
-0.0410390482995454,17.0323033890149
-0.0456333089572802,17.0325712864939
-0.0497113848687587,17.0328549793271
-0.0532590738003441,17.0331557000948
-0.0563125268874815,17.0334802843247
-0.058769576355981,17.0338181818596
-0.0607218416157432,17.034179576392
-0.0621843026437078,17.0345679850452
-0.0631709634351816,17.034987630866
-0.0636941069200828,17.0354437616301
-0.063762701140019,17.0359429875005
-0.0633804601907827,17.0364937977379
-0.0625413049040018,17.0371085174991
-0.0612251388555695,17.037803476922
-0.059390230305033,17.0386023265957
-0.056951811753679,17.0395439206237
-0.053712544600211,17.0407070912504
-0.0496335554607812,17.0421198656309
-0.0456698795522193,17.0434827624693
-0.041878516489317,17.0448032191965
-0.0382882229800944,17.0460843185611
-0.0349136631118634,17.0473273109156
-0.0317615977045666,17.0485325177016
-0.0288335901036047,17.0496998038612
-0.0261274106882108,17.0508288263901
-0.0236379207947345,17.0519191636167
-0.0213577321560655,17.0529703783555
-0.0192777564177036,17.0539820423926
-0.017387687282314,17.0549537369433
-0.0156764288251543,17.0558850371011
-0.0140920102783952,17.0567995531334
-0.0125659642137877,17.0577373852008
-0.011103018704587,17.0586999545049
-0.00970713998709487,17.0596893161194
-0.0083821078910935,17.0607078762759
-0.0071314617073567,17.0617584816594
-0.00595844851719315,17.0628445329882
-0.00486596910507509,17.0639701374119
-0.00385652141471807,17.0651403176253
-0.00293214106263445,17.0663613064876
-0.00209433774652493,17.0676409753026
-0.00134402518764195,17.068989480268
-0.000681440017511089,17.0704202843586
-0.000106040470634648,17.0719518695244
0.000374495579588206,17.073575512176
0.000752596028339516,17.0752432715773
0.00104502024218226,17.0769734516152
0.00126655611923057,17.0787865238596
0.00143107219692185,17.0807096703575
0.00155192766647141,17.0827810734136
0.00164258466608158,17.0850587602368
0.00171775044814297,17.087641665661
0.00179644164085568,17.0907350180673
0.00190039118772229,17.0944684006238
0.00202779733905562,17.0982560020154
0.00218022743635079,17.1020926105787
0.00235507528398433,17.1060150263599
0.00254832089030936,17.1100559601143
0.00275657171746235,17.1142463766361
0.00297792628855643,17.1186172493495
0.00321217456962662,17.1232010697152
0.00346071408394319,17.1280332859053
0.00372642961301281,17.1331536730571
0.00401373409783772,17.1386076821444
0.0043287881827322,17.1444451948039
0.00464134555940685,17.1500321085705
0.00496396575702686,17.1555514682566
0.00529564646132287,17.1609333525597
0.00564128059371538,17.1662133314939
0.00600418751147277,17.1713985640599
0.00638828229591026,17.1765029270623
0.00679734259302784,17.1815341850417
0.00723537085969134,17.1864982159969
0.00770664639281765,17.1913985384281
0.00821585872012679,17.1962368979291
0.00876821041983914,17.2010134613716
0.00936951743090804,17.2057270415065
0.0100263055409905,17.2103753815232
0.0107497176038166,17.2149786415111
0.0115636618640767,17.2196110801331
0.0124836747502293,17.2242661139694
0.0135336518425876,17.2289619922588
0.0147480983182497,17.2337366846272
0.0161863676838423,17.2386826975287
0.0179831395315214,17.2440605910169
0.0204586335707403,17.2504915876182
0.0220760852090486,17.2543250072212
0.0237445813653569,17.2581584268242
0.0252069689808667,17.2615736550587
0.026443042138444,17.2646745228803
0.0274722905616016,17.267640177275
0.0282529136436322,17.2704780072209
0.0287665426409322,17.2732258580456
0.0290060280092194,17.2760056580268
0.0289283538724646,17.2789918776526
0.0283691241741882,17.2826464928279
0.027561151815199,17.2856606065873
0.0264940790788906,17.2886747203466
0.0254181997141678,17.2912584921473
0.0243491932860643,17.2935985351864
0.0232786609464551,17.2958152819155
0.022206926684255,17.2979641880201
0.0211371919918243,17.3000759893273
0.0200731831298275,17.3021707056722
0.0190185377522371,17.3042627897296
0.0179766432322756,17.3063634616879
0.0169506010528607,17.3084819428988
0.0159432263573768,17.3106261873013
0.0149570604904854,17.3128033474995
0.0139943851056551,17.3150200975209
0.0130572328451376,17.3172828792472
0.0121474047874687,17.3195980818978
0.0112664745886644,17.3219722242399
0.0104158020455651,17.3244121011256
0.00959654731391344,17.3269249228245
0.00880057919961091,17.3295496352117
0.00801593211070976,17.3323500445053
0.00724638966174305,17.3353466051951
0.00649579249699549,17.3385636697154
0.00576822997516832,17.3420294434037
0.00506800533641411,17.3457767485492
0.00439958754172041,17.3498439198551
0.00376751171867612,17.3542760783424
0.00317620565268687,17.359127201434
0.00262971933859527,17.364463942802
0.00213139475900285,17.3703726764954
0.00168556757780166,17.376939012582
0.00140135823711108,17.3820841388655
0.00117563516198731,17.387229265149
0.0009366990915673,17.3943078183229
0.000730065479083839,17.4024378925173
0.00056259702976993,17.4113479722209
0.000428740436049399,17.4213479722209
0.000336713786058512,17.4313479722209
0.000274338663564473,17.4413479722209
0.000232742719905863,17.4513479722209
0.000205583186584146,17.4613479722209
0.000188457339803167,17.4713479722209
0.000178372313773703,17.4813479722209
0.000173311005810546,17.4913479722209
0.000171917230587177,17.5013479722209
0.00017328538202057,17.5113479722209
0.000176824528433877,17.5213479722209
0.000182170259763105,17.5313479722209
0.000189126760867226,17.5413479722209
0.000197629193344485,17.5513479722209
0.00020772099219705,17.561347972221
0.000219543092542105,17.571347972221
0.000233333577189248,17.581347972221
0.000249437502957749,17.591347972221
0.00026832808535276,17.601347972221
0.000290642270109023,17.611347972221
0.000317236401904294,17.621347972221
0.000349271960842271,17.631347972221
0.000388348590790088,17.641347972221
0.00043578519588199,17.6511731453755
0.000490384382567761,17.6602705378981
0.000552994955808038,17.668673053141
0.000624711201552127,17.6764328969168
0.00070679192269641,17.6835994947404
0.000800665233259191,17.6902188830192
0.000907945936467179,17.6963339162937
0.00103045891452365,17.7019844821881
0.00117026655737272,17.7072076985659
0.00132970012064619,17.7120380975672
0.00151139564832775,17.7165078023185
0.00171833639517019,17.7206466989783
0.00195390297924212,17.7244826032089
0.00222193397357049,17.7280414234693
0.00252680045743285,17.7313473252313
0.00287349915335737,17.7344228999659
0.00326777194263637,17.7372893418965
0.00371626236891201,17.7399666403039
0.00422672708982334,17.7424737999577
0.0048083312908076,17.744829107975
0.00547207766831045,17.7470504808744
0.00621389177061232,17.7491114357655
0.00703313465246465,17.7510153310776
0.00794080899406344,17.7527944780019
0.00895328170014723,17.7544811154119
0.010096537616151,17.7561108660512
0.0114180148147282,17.7577324035884
0.0130996858981182,17.7595101922866
0.015668129611747,17.7618284379291
0.0173130480492035,17.7631600856538
0.0190378045487105,17.7644917333785
0.0206093694397726,17.7656922434624
0.0220180176091088,17.7668003819001
0.0232822946755524,17.7678694600807
0.024396999183762,17.7689384189643
0.0253393015138418,17.7700466714757
0.0260643547245871,17.771251193236
0.0264757884355175,17.772675140827
0.0261811453466334,17.7748561384286
0.0254353563535325,17.7763122400341
0.0243561375773127,17.7777683416396
0.0231205265390053,17.7791387535511
0.0217307415616493,17.7805236996415
0.0201955424207532,17.7819699522913
0.018522550075156,17.783515282223
0.0174335388315823,17.7845261769539
0.0163790204134821,17.7855370716847
0.0138650718000571,17.7881615373372
0.0113093035413642,17.7912464333013
0.00932915936111095,17.7940553889432
0.00777341430337711,17.7966323775831
0.00648175361814095,17.7991187082961
0.00535250367302604,17.8016484615933
0.00435999039890069,17.8042500064428
0.00348603254961619,17.8069464337814
0.00271586894788678,17.8097611673326
0.00203695933230178,17.8127195505965
0.00148701098768642,17.8155727521499
0.00102617551109702,17.818395628642
0.000621894015023725,17.8213077081657
0.000266181987643472,17.8243136851314
-2.66136076996516e-05,17.8271878745588
-0.000260294723245107,17.829800933625
-0.00045242909253189,17.8321984847498
-0.000616629095605723,17.8344472718497
-0.000761291992113741,17.8365931755381
-0.000892139937795441,17.8386727275747
-0.00101398727890848,17.8407287398987
-0.00113188704180637,17.8428253182303
-0.00125443814703661,17.8451096424005
-0.00136943537931905,17.8473405815732
-0.0014568022921446,17.8490842207353
-0.00154246591535518,17.8508278598974
-0.00161769077888199,17.8523815174018
-0.00168801946951584,17.8538488437509
-0.00175832736582296,17.8553262752689
-0.0018332165796203,17.8569076737381
-0.00192038908575029,17.8587535256533
-0.00204694050499117,17.861433191233
-0.00220350683670379,17.8647341462743
-0.0023377027027471,17.8675449927984
-0.0024704763601233,17.8703116288629
-0.00262398900054787,17.8735055472826
-0.00282191588055126,17.8776631657677
-0.00306595245802315,17.8830558923044
-0.00325896304463819,17.8881056880103
-0.00337314286300806,17.892641734493
-0.00339937200885829,17.8966310649265
-0.00333898551405604,17.9002483608435
-0.0031809730667673,17.9037370062221
-0.00291955994081614,17.9070056457498
-0.00256748864108987,17.9099463989617
-0.00212498319780421,17.9126484776849
-0.00158458496772735,17.915191491723
-0.000922537146933798,17.9176766488685
-7.27090429941385e-05,17.9202816008671
0.00105729890226381,17.923173591877
0.00209060500248442,17.9255026756578
0.00320290842192102,17.9278317594386
0.00437569997868738,17.9301777093229
0.00559745653419601,17.9325354621342
0.00687965632412907,17.9348932149455
0.00806255404141889,17.9369194924923
0.00920356969457004,17.9387066297414
0.0104078466923703,17.9404039659238
0.0117304459042956,17.9420559919647
0.0131902612918803,17.9436526604555
0.0148266678235057,17.9452068370216
0.0166535110010246,17.9467050666449
0.0187044433578197,17.9481530828314
0.0210009560132623,17.9495465680929
0.0235685361816881,17.9508848938995
0.0264425620597122,17.9521719250938
0.0296587843221112,17.9534097759456
0.0332580974560502,17.9546010332622
0.0372877392713469,17.9557486238684
0.0418061967668633,17.9568565464948
0.0468800798657931,17.9579282976313
0.0525879321422966,17.9589674462538
0.0590226690319359,17.9599775960156
0.0662967061318448,17.9609626489051
0.0745459898494447,17.9619266717472
0.0839376855156591,17.9628740873284
0.0946808142472411,17.9638098564143
0.107042080892858,17.9647397424933
0.121371045809548,17.9656707584476
0.138140939711355,17.966611849821
0.158023023817726,17.9675752401402
0.181323821904478,17.9685514587246
0.208343191014858,17.9695348664596
0.239827357558852,17.9705372966654
0.276813951777548,17.9715766723823
0.32100332214061,17.9726869349463
0.356525269600198,17.9735135797349
0.393395125771952,17.9743402245235
0.426132300261387,17.9750734292654
0.454754114101136,17.9757403093188
0.479734927474408,17.976373888471
0.501051201095833,17.9769983039503
0.518250515010345,17.9776361351342
0.53031993428371,17.978315710874
0.535078862954768,17.9790858695043
0.529244293554658,17.979889391111
0.511469662650658,17.9807209346672
0.480213026749477,17.9815960008209
0.433543798617236,17.982525376373
0.38447194073786,17.9833027536036
0.339343003791496,17.9839233699402
0.289823964367968,17.9845439862769
0.246261537715161,17.9850606169966
0.208901524601813,17.985494943314
0.176038419816304,17.9858790104652
0.146581153196354,17.9862318665274
0.119866219324039,17.9865653621671
0.0954326565439383,17.9868882038581
0.072899174315709,17.9872082861854
0.0518587795538648,17.987535128086
0.0316481299497289,17.9878859701421
0.00989795189603,17.9883248903969
0.000746780751042384,17.9885375154901
-0.00754134166602276,17.9887501405833
-0.0140293921125705,17.9889335773506
-0.0200306990636687,17.9891201177067
-0.0260466445897873,17.9893278166955
-0.0318372181749334,17.9895532317502
-0.0372504722051176,17.9897943167051
-0.0422024373089444,17.9900503860693
-0.0466497989929556,17.9903216608719
-0.0505737528502114,17.9906090175655
-0.0539652036719797,17.9909138698468
-0.0568786375033908,17.9912456841031
-0.0591794478103235,17.9915893362091
-0.0609781577332274,17.9919575063467
-0.0622902512624691,17.9923540027099
-0.0631295332746651,17.9927833873398
-0.0635075158852406,17.9932513579465
-0.0634317181847451,17.9937651445654
-0.0629033292474684,17.9943342493187
-0.0619114715516702,17.9949726852581
-0.0604294728819303,17.9956988684432
-0.0584029451560629,17.9965409122175
-0.0557175856145884,17.9975480857417
-0.0520723804398173,17.9988357934556
-0.0480184529275479,18.0002318689813
-0.0440992750483203,18.0015828225391
-0.0403626673006087,18.0028931379293
-0.0368319685692931,18.0041650123626
-0.0335190950285389,18.0053992327317
-0.0304291874512663,18.0065958732657
-0.0275627300547512,18.00775466727
-0.0249167170095771,18.0088752027417
-0.0224854322945384,18.0099570228713
-0.0202610594231269,18.010999672862
-0.0182342037100864,18.0120027146845
-0.016394356243996,18.0129657214237
-0.014730307689675,18.0138882576311
-0.0131682966745986,18.0148075949973
-0.0116659199512456,18.0157504878914
-0.0102276627380321,18.0167185351515
-0.00885746837971936,18.0177138593045
-0.00755908503368635,18.0187389517632
-0.00633601347224134,18.0197967660929
-0.00519145575954843,18.0208908387125
-0.00412826188501214,18.0220254515826
-0.00314887436334442,18.0232058566279
-0.00225527045125068,18.0244385939074
-0.00144890104853178,18.0257319575843
-0.000730624319902886,18.0270967056563
-0.000100630172411336,18.0285471945769
0.000441652121506034,18.0301033080414
0.000883773486206919,18.0317347695788
0.00122709629647192,18.0334142464099
0.00148765646521788,18.0351600607172
0.00167984130308526,18.0369938721591
0.00181714023632353,18.038944734154
0.00191254969217943,18.0410540630135
0.00197917498998107,18.0433861046185
0.00203139187132984,18.0460539900699
0.00208820718864295,18.0493075394602
0.00216671375485932,18.0530495275569
0.00227697336204034,18.057076641012
0.00243732584603706,18.0617850495742
0.00263123637080972,18.0667344033527
0.00281354470978187,18.0710586594117
0.00298594143217297,18.0750088713308
0.00315511379642553,18.0788072753284
0.00332493651594167,18.0825565352643
0.00349844635013946,18.0863177031961
0.00367845815219627,18.09013470747
0.00386776775922369,18.0940431859582
0.00406926295351528,18.0980747105562
0.00428603593413546,18.102259612109
0.00452148789249222,18.1066285574685
0.00477948206830187,18.1112138504042
0.00506460851471342,18.1160508271311
0.00538263551965077,18.1211791873804
0.00573400861747636,18.126535589437
0.00609716771275089,18.1317402504085
0.0064813325099075,18.1368959189733
0.00688653060536451,18.1419581238641
0.00731754681505005,18.146941943656
0.00777880747414855,18.1518501652624
0.00827568115766356,18.1566896434444
0.0088139089564344,18.1614639137475
0.00939975022419891,18.1661743624514
0.0100400348330009,18.1708202995862
0.0107453108219222,18.1754184678338
0.0115395048943532,18.1800464190646
0.0124376744922002,18.18469623808
0.013462856710211,18.1893844948092
0.0146476946767,18.1941449989159
0.0160468858604034,18.1990598262254
0.0177787631026848,18.2043531536454
0.0202454347008778,18.2108709696513
0.0218929004477619,18.2148133285844
0.0236037698010191,18.2187556875175
0.02509524090381,18.2222272124017
0.0263535767361287,18.2253531227359
0.0274044798585457,18.2283264797479
0.0282137531327994,18.231180229676
0.0287555840513927,18.2339312655067
0.0290253144455172,18.2366993680718
0.0289855569194137,18.2396483433301
0.0284982304144597,18.2431731963906
0.0277045224215912,18.246286917206
0.0266267151619464,18.2494006380215
0.0255460403968312,18.2520238379826
0.0244763042141009,18.2543792203021
0.0234058328733051,18.2566028766189
0.022334160544687,18.2587545717604
0.0212643357259189,18.2608665406516
0.0202000704379188,18.2629594733215
0.0191450231463913,18.265048157275
0.0181026140841637,18.2671439714717
0.0170759804807407,18.2692561906167
0.0160679741133644,18.2713927463228
0.0150811734088396,18.2735607060632
0.0141178945329088,18.2757666067131
0.0131802055694941,18.278016692121
0.0122699389224491,18.2803170992179
0.0113886978019681,18.2826740264207
0.0105378707527603,18.2850938646421
0.00971863883263759,18.2875833402181
0.00892139763889827,18.2901855200649
0.00813509638615633,18.2929606839035
0.00736348132747667,18.2959289150444
0.0066103723721348,18.2991140596793
0.00587984074223288,18.3025437214305
0.00517617827986575,18.3062499954719
0.00450385031933097,18.3102703469835
0.00386740173977807,18.3146488404258
0.00327129636829108,18.3194380791076
0.00271965481015183,18.3247028150253
0.00221593203707974,18.3305265719774
0.00176268072310722,18.3370224896088
0.00137873935919641,18.3439940778178
0.00112987197146416,18.3496511295052
0.000934327308474093,18.3553081811926
0.00072762857063073,18.3632929418181
0.000563168266012584,18.3720153879876
0.000433184947006286,18.3816370025666
0.000339629486364104,18.3916370025666
0.000276597963530762,18.4016370025666
0.000235366151069131,18.4116370025666
0.000209604106452139,18.4216370025666
0.000194821187585806,18.4316370025666
0.000187935535551857,18.4416370025666
0.000186891262744193,18.4516370025666
0.000190350251645781,18.4616370025666
0.000197472436349817,18.4716370025666
0.000207772513071263,18.4816370025666
0.000221031664555852,18.4916370025666
0.000237246275898937,18.5016370025666
0.000256602707565375,18.5116370025666
0.000279473204826431,18.5216370025666
0.000306432251413981,18.5316370025666
0.000338296139728169,18.5416370025666
0.000376192573281845,18.5516370025666
0.000421673189303024,18.5616370025666
0.000476892077809138,18.5716370025666
0.00054460504437987,18.5815984403219
0.000622168000894325,18.5907913534451
0.000710619550601645,18.599250855498
0.000811397723348109,18.6070372657324
0.000926185203743739,18.6142070826073
0.00105690445390585,18.6208123479655
0.00120573907694492,18.6269010768146
0.00137516828008753,18.6325176541304
0.00156801022075572,18.6377031626479
0.00178747384096908,18.6424956734048
0.00203722041136735,18.6469305319522
0.00232144230055987,18.6510406416858
0.00264496141351598,18.6548567363396
0.00301335639250751,18.6584076565292
0.00343313674856142,18.6617206691859
0.00391198301314174,18.6648218516742
0.00445909761060589,18.6677365712418
0.00508573919283024,18.6704901589773
0.00580179534545969,18.6730947064207
0.00660181452824151,18.6755197461487
0.00750313185367752,18.6778167298515
0.00853625812249419,18.6800480336994
0.0097648645459507,18.682311611109
0.0113915443066495,18.6848741338796
0.012695445049383,18.6866963461993
0.0140968274151558,18.688518558519
0.0153981348104675,18.6901528749456
0.0165360577495787,18.6915931696152
0.0175455582102478,18.6929364697279
0.0184332648471438,18.694239990059
0.0191883736216024,18.6955467487511
0.0197862229912249,18.6969029402498
0.0201811516508554,18.6983783146527
0.0202715463484466,18.7001320407214
0.0198459508683692,18.702223134102
0.0191340886880361,18.7038934937005
0.0181588281128568,18.705563853299
0.0170757215789804,18.7071181184531
0.0158953091533883,18.7086523848559
0.0146267066875504,18.7102164205791
0.013754549941873,18.711271186858
0.0128907890368554,18.7123259531369
0.0121846077590424,18.7132251625761
0.01033967025456,18.7157793676086
0.00874922323827916,18.718287207063
0.00736167923220872,18.7207927645028
0.00613906080259218,18.7233355732855
0.00505916916968987,18.7259378863314
0.00410296352605855,18.7286237981867
0.00350158222371962,18.7305573972754
0.00296410659454383,18.7324909963642
0.00251632315084814,18.734285165126
0.00212071791223376,18.7360397045749
0.00174915792367038,18.7378628976808
0.00137652924835309,18.7398982795579
0.000957741737739543,18.7424918289948
0.000460954605269637,18.7461110076227
7.30479815793374e-05,18.7494809805324
-0.000237655642982835,18.7526342144337
-0.00053078738207043,18.7560836040967
-0.000834992129718854,18.7602893639792
-0.00115987940424981,18.7657483469546
-0.00139836086427864,18.7708339318006
-0.00155611825580133,18.7754351165014
-0.00163745392982286,18.7796048710797
-0.00164049458709516,18.7833872321433
-0.00156109218396206,18.7868333201367
-0.00139379089468427,18.7900000347327
-0.00113089713220898,18.7929523335151
-0.000759880052647888,18.7957640164721
-0.000256198349106533,18.7985349741132
0.000437231924306755,18.8014355912872
0.00138795249302917,18.8045728854361
0.00263908553819807,18.8079652315263
0.00423749929737855,18.8116568619304
0.00529965476490411,18.8138364981623
0.00646983056201332,18.8160161343942
0.00768010292115255,18.8180364947726
0.00890556170657913,18.8198538796775
0.0102302910706431,18.8215861886484
0.0116708682507204,18.8232339314307
0.013265707776028,18.8248199709989
0.0150384684724252,18.8263456766433
0.0170184149937175,18.8278158435691
0.0192255194676395,18.8292272188314
0.0216935733536079,18.8305852971018
0.0244519982201479,18.8318909299237
0.0275326319023015,18.8331453270046
0.0309793096632077,18.8343530679675
0.0348381419898,18.8355171060071
0.0391627208979551,18.8366406244896
0.0440139283443042,18.8377265750725
0.0494673004567464,18.8387788816995
0.0556105698469359,18.8398011524327
0.0625484340909545,18.8407971129896
0.0704074511360296,18.8417707171077
0.079342071867394,18.8427261979185
0.0895455839627023,18.8436683969708
0.101262621558141,18.8446028281542
0.114811161558138,18.8455361099809
0.130617696770282,18.8464765856522
0.149278844299527,18.8474354340665
0.171340165768804,18.8484148335827
0.196897898614322,18.8493987815443
0.226634576768338,18.8503981318148
0.261476379237621,18.8514286509655
0.302844077232417,18.8525176998409
0.339730697067723,18.8534078914122
0.378552737389212,18.8542980829836
0.41270121674986,18.8550700518866
0.442396937811976,18.8557594493934
0.468364965017912,18.8564057605895
0.490727299213768,18.8570352125774
0.509168509498984,18.8576700412676
0.522893620018873,18.8583354326834
0.530249075531119,18.8590697828398
0.528066513990977,18.8598712306833
0.514402471469997,18.8606938685664
0.48789487191686,18.8615542488951
0.446752155960005,18.8624645005931
0.388977935599999,18.8634330543708
0.343965863652594,18.8640677892942
0.29420793431578,18.8647025242175
0.24997472841897,18.865233277848
0.212130840814637,18.8656765011749
0.178923471944882,18.8660662689947
0.149200035953978,18.8664229506743
0.122268186509725,18.8667589977292
0.097655517950954,18.8670833517867
0.0749805105450873,18.8674038793925
0.0538517606555971,18.8677296616921
0.0336741963579786,18.8680761075654
0.012622938096071,18.8684927869561
0.00162894051068869,18.8687434106235
-0.00575421270685985,18.8689294556951
-0.0125031011124004,18.8691155007668
-0.0183935809045725,18.8692934862505
-0.0244179529161211,18.8694945235752
-0.0302960685481659,18.8697145354318
-0.0358418842406319,18.8699508008605
-0.0409511475619142,18.8702022045599
-0.0455684852015041,18.8704686801715
-0.0496677616069998,18.8707508896829
-0.0532378321603995,18.8710500643735
-0.0564335185266543,18.8713874311714
-0.0588881613338483,18.8717248064006
-0.0608354757348226,18.8720855605299
-0.0622920850204399,18.8724734133693
-0.0632721149517504,18.8728926268088
-0.0637878837510115,18.8733484999417
-0.0638482989566108,18.873847717
-0.0634568756413455,18.8743988783113
-0.0626070409355338,18.8750145187221
-0.0612778724221668,18.8757112434024
-0.0594259515525933,18.8765132809321
-0.0569625790901282,18.8774608054915
-0.0536777861544971,18.8786369220147
-0.0495915519151462,18.8800494563453
-0.0456211133712933,18.8814130162925
-0.0418230520639832,18.8827346047663
-0.0382258788385182,18.8840171458358
-0.034844232178904,18.8852617970343
-0.0316849398796503,18.8864688216228
-0.0287496683330622,18.887638045836
-0.0260362993526481,18.8887690995895
-0.0235397993046378,18.8898615416075
-0.0212528705104615,18.890914920357
-0.0191664968307392,18.8919287973513
-0.0172704243201504,18.8929027470049
-0.0155535897570426,18.8938363408138
-0.0139702516308095,18.8947494759923
-0.012445053484385,18.8956858682732
-0.0109827937810223,18.8966468895048
-0.00958745247649484,18.8976345758402
-0.00826282790845683,18.8986513099664
-0.00701248255533938,18.8996999093405
-0.00583969183304041,18.9007837378722
-0.00474739061272493,18.9019068556057
-0.00373811748986699,18.9030742238169
-0.00281395643426589,18.904291993496
-0.00197647486811779,18.9055679238725
-0.00122665618120776,18.9069120126121
-0.000564822777738867,18.9083374890185
9.4580835266428e-06,18.9098624717823
0.00049000900990228,18.9114840137848
0.000867009219365659,18.9131486197263
0.00115731603963999,18.914874606511
0.00137571132245422,18.9166821351286
0.00153601856290226,18.9185979053379
0.00165149146438396,18.9206592766382
0.00173538329154172,18.922922722891
0.00180197675360135,18.9254837384745
0.00186925129437588,18.9285373845895
0.00195977429520379,18.9322708154766
0.00207307625212541,18.936043523114
0.0022095241303415,18.9398122678525
0.00236645220186263,18.9436239206786
0.00254000727470656,18.9475164196781
0.00272699760149577,18.951522697082
0.00292560410668648,18.9556736117851
0.00313549719866874,18.9599998699168
0.00335770231157712,18.9645335242473
0.00359440870969257,18.9693093387674
0.00384886848020373,18.9743662185915
0.00412551499838399,18.9797485604534
0.00443042633736905,18.9855077465216
0.00473874126613483,18.9911024773873
0.00505692673994047,18.996608100371
0.0053855573034392,19.0019858034315
0.00572872244808559,19.0072589261922
0.0060898912853571,19.0124376864428
0.00647291089549723,19.0175350428977
0.00688160811593699,19.0225592786124
0.00732001143676468,19.0275162490417
0.00779244069424906,19.0324094829858
0.00830363437584689,19.0372406956624
0.00885885057743025,19.0420099758467
0.00946396891108814,19.0467160442999
0.0101255889091694,19.0513565728535
0.0108570207567891,19.0559639246383
0.0116806228671592,19.0605986014019
0.0126128709978126,19.0652574694007
0.0136785065417514,19.0699600484724
0.0149139188580286,19.0747483940539
0.0163832129413669,19.0797256267691
0.0182389155231096,19.0851923235511
0.0207150622973376,19.0915419902919
0.0223108009649533,19.0952988629475
0.0239467988964924,19.0990557356031
0.0253774355938564,19.1024171831876
0.0265871732909977,19.1054928910493
0.0275902687441993,19.1084515025104
0.0283369248536181,19.1112720087687
0.028816884933749,19.1140166933347
0.0290198968296328,19.1168106172203
0.0288956768875663,19.119842650606
0.0282402662931598,19.1236757539772
0.0274135741637982,19.1265808064371
0.0263545554979033,19.129485858897
0.025282289463498,19.1320217915403
0.0242133790678201,19.1343405218281
0.0231425008171073,19.1365459524075
0.0220707617996818,19.138688507453
0.0210015115361412,19.1407970115974
0.0199384826174628,19.1428905550174
0.0188852841636702,19.1449830677895
0.0178452663610881,19.1470854522894
0.0168214924072325,19.1492067285292
0.0158167406861407,19.1513547208006
0.0148335171769355,19.1535365013293
0.0138740705711966,19.1557586972005
0.0129404018469958,19.1580277309059
0.0120342811023417,19.1603499965287
0.0111572539149004,19.1627320337835
0.0103106516606257,19.1651806818967
0.00949560880230049,19.1677032108988
0.00870087962038951,19.1703496522674
0.00791796730157954,19.1731742374871
0.00715064606001364,19.1761979516442
0.0064027898486591,19.1794456193072
0.0056785188593952,19.1829460087376
0.00498216097435819,19.1867326243005
0.00431820081399928,19.1908446312679
0.00369117256221476,19.1953282037486
0.00310547146868322,19.2002387917549
0.00256507635892256,19.2056452592664
0.00207321553484138,19.2116375521488
0.00163680714939532,19.2182596769014
0.00127378990910355,19.2253672151792
0.00105347389888454,19.2311838658728
0.000824416375620822,19.2390723449693
0.000635677371049203,19.2478464280166
0.000487376096645758,19.2574205260357
0.000379615721359232,19.2674205260357
0.000306465903784588,19.2774205260357
0.000257736139215796,19.2874205260357
0.000226062560991175,19.2974205260357
0.000206277103207788,19.3074205260357
0.000194848978183768,19.3174205260357
0.000189402544998461,19.3274205260357
0.000188350619026311,19.3374205260357
0.000190643013082873,19.3474205260357
0.000195603600195315,19.3574205260357
0.000202826291860156,19.3674205260357
0.000212108521520437,19.3774205260357
0.000223409723994756,19.3874205260357
0.000236828293720018,19.3974205260357
0.000252593918144444,19.4074205260357
0.000271074348243635,19.4174205260357
0.000292797636623591,19.4274205260357
0.000318493327270391,19.4374205260357
0.000349159662958208,19.4474205260357
0.00038616961078633,19.4574205260357
0.000431438359537911,19.4674205260357
0.000484719288581911,19.47693906212
0.00054575964733931,19.4857360924141
0.000615548868458623,19.4938563676531
0.00069529686031956,19.5013520009735
0.000786387605797744,19.5082718013552
0.000890388547070069,19.5146611368807
0.0010090713857452,19.5205621773389
0.00114443840613044,19.5260141233827
0.00129875325043703,19.5310534142599
0.00147457583782243,19.5357139225953
0.00167480359767449,19.540027141116
0.00190271985222134,19.5440223630248
0.00216205262444337,19.5477268563541
0.00245704602429632,19.5511660370949
0.00279255001780719,19.5543636464832
0.00317413479712241,19.5573419360095
0.00360824029019468,19.5601218667503
0.00410237778043215,19.5627233359056
0.00466541034821545,19.5651654496425
0.00530795885249568,19.5674668745571
0.00603223574470112,19.5696171426922
0.00683272060975167,19.5716007963975
0.00771997776997301,19.5734515918676
0.00870995603892419,19.575203525857
0.00982793496077456,19.5768938502347
0.0111199433989145,19.5785729516602
0.0127453852669902,19.5803920087715
0.0152157127240627,19.5827532908622
0.0168176569920384,19.5841258668435
0.0184994617955715,19.5854984428248
0.0200310439915405,19.5867337711426
0.0214015244694452,19.5878710293098
0.0226299701508658,19.5889657774789
0.0237117865018113,19.5900579281236
0.0246250876209415,19.5911870522061
0.0253269372455136,19.5924091109748
0.0257266639575886,19.5938414248811
0.0254680813689091,19.5960023497352
0.024750410645957,19.5974950594541
0.0236935505625778,19.598987769173
0.0224859174264439,19.6003791818139
0.021130844179852,19.601776576054
0.0196371131869973,19.6032287971388
0.0180131002030719,19.6047732021056
0.0169748084865429,19.6057635216458
0.0159677711288271,19.606753841186
0.0135272385997121,19.6093657229876
0.0110726178992673,19.6123978446707
0.00915513915279424,19.6151741537006
0.00763829580830373,19.6177337186108
0.00636505855197715,19.6202282667335
0.00525015528638761,19.6227701753306
0.00426926511253884,19.6253867566219
0.00340472125428053,19.6281011236301
0.00264206603910285,19.6309369341765
0.00196893432588415,19.6339199362915
0.00141759641640212,19.6368292261493
0.000958027010743848,19.6396927354329
0.000559319255664912,19.6426080332322
0.000212877096416372,19.6455646064217
-7.42092498894399e-05,19.6483911471555
-0.000307929201664477,19.6509971917814
-0.000503388942654079,19.6534191907577
-0.000672874900692991,19.6557168516283
-0.00082472265555942,19.657940834512
-0.000965382110894578,19.660143761379
-0.001101752639929,19.6624088783682
-0.0012461917950189,19.6649391440685
-0.00136505949242943,19.6671125065676
-0.00148026451547796,19.6692858690666
-0.0015738961974599,19.6710921353709
-0.00165584803658261,19.6726963154544
-0.00173446491484886,19.6742508325756
-0.0018149100643584,19.6758529152276
-0.00190315869470204,19.6776188345631
-0.00201198755671621,19.6798019718987
-0.00222051618785112,19.6839796471336
-0.00242030412060302,19.6879635944864
-0.00259296703794664,19.6914044377399
-0.00277471530934994,19.6950633048765
-0.00300177852627171,19.6998210721778
-0.00321906965161893,19.7049995434032
-0.00336223424528136,19.7097996215943
-0.00340899469766648,19.7137759990815
-0.00337161475880176,19.7173739534548
-0.00324230295243254,19.7208613529229
-0.00299272528630844,19.7244272675318
-0.0026474822848285,19.7276123370175
-0.00221127137909117,19.7305193389862
-0.00168340239084527,19.73322001732
-0.00105100580244608,19.7358000977436
-0.00027878956080173,19.7383771686144
0.000737882225829807,19.7411985823589
0.00205367870827007,19.7443007743149
0.00351249445754287,19.7473487962074
0.00493407943024565,19.7500962720365
0.00618426965247679,19.7523724292442
0.00752127049991829,19.7546485864518
0.00880406146940643,19.7566536506866
0.0100618019954196,19.7584329858337
0.0114111987816317,19.7601391407898
0.0128635180390886,19.7617600922058
0.0144742871223896,19.763332520374
0.0162604415113546,19.7648466861728
0.018258852571207,19.7663111268367
0.020487121716151,19.7677185959716
0.0229814950274518,19.7690747198769
0.0257728548702979,19.7703800167986
0.0288942010859129,19.7716353303289
0.0323862137412982,19.7728434807295
0.0362981136643612,19.7740082628422
0.0406849893451481,19.775132916421
0.0456113718254735,19.7762208516283
0.0511524748271926,19.7772754501189
0.057399977667503,19.7783006466497
0.0644628018985421,19.7793003305705
0.0724732583156126,19.7802786561154
0.0815942824614388,19.7812401611515
0.0920305507041153,19.7821900054306
0.104044754607933,19.7831342568207
0.117983418842786,19.7840803633495
0.134321228355907,19.7850380163175
0.153743391451539,19.7860207914756
0.176427782267589,19.7870134485949
0.20276256249868,19.7880153237652
0.233507867530618,19.7890396545702
0.269740840136132,19.7901067002363
0.312868043076321,19.7912450169136
0.347342948003927,19.7920903459611
0.383029250953651,19.7929356750086
0.414800703191523,19.7936891411967
0.442620221243604,19.794376747028
0.466853272994445,19.795030024391
0.487433942847677,19.795672504503
0.503900642223867,19.7963260769506
0.51526799128987,19.7970172848783
0.519512610012414,19.7977888537693
0.513537758707188,19.7986045232757
0.495886804493671,19.7994441072035
0.465111541148718,19.8003220618584
0.419444560373166,19.8012485279529
0.37271796310269,19.8020042023968
0.318377796040122,19.8027598768406
0.270142656597307,19.8033693052691
0.229762307627395,19.803856943242
0.194839491010562,19.8042736992138
0.16381864427365,19.8046480466584
0.135836751198327,19.8049958368831
0.110350636451181,19.80532742181
0.0869594796077228,19.8056509357168
0.0653048944017734,19.8059743973361
0.0449567540081167,19.8063086148166
0.0250703616294708,19.8066766180523
0.00927362180050579,19.8070118509765
0.000616051541979124,19.807218379803
-0.00725548332513025,19.8074249086294
-0.013715675221609,19.8076113462349
-0.0196569120053031,19.8077998695565
-0.0256154261929626,19.8080098472986
-0.0313520007633141,19.808237766597
-0.0367148278356793,19.8084815206506
-0.0416201625799871,19.8087403957884
-0.0460248451147739,19.8090146024317
-0.0499097269031181,19.8093050157297
-0.0535060074897767,19.8096387064392
-0.0562604564577834,19.8099653330161
-0.0585009726098696,19.810313530425
-0.0602445783762652,19.810686696044
-0.0615055737483775,19.8110885685431
-0.0622974120580157,19.8115237644673
-0.0626312126596083,19.811998047763
-0.06251407208978,19.812518728493
-0.0619465725174402,19.8130955366351
-0.060917269480532,19.8137425554693
-0.0593990073044952,19.814478417589
-0.0573368141224453,19.8153315982106
-0.0546152986930113,19.8163521360729
-0.0509288925775188,19.8176580751631
-0.046917470890145,19.8190466951259
-0.0430476241171569,19.8203900173365
-0.0393642194169587,19.8216923388814
-0.0358888600177042,19.8229558520662
-0.0326322971785012,19.8241813671843
-0.0295987615717669,19.8253689935586
-0.0267879796453068,19.826518503004
-0.0241963093282309,19.8276295208531
-0.0218175118427432,19.8287016236653
-0.0196433585856805,19.8297343841044
-0.0176641498587866,19.8307273841634
-0.015869172767764,19.8316802081822
-0.0142471064523643,19.832592421927
-0.0126983964433637,19.8335177277864
-0.0112105835155657,19.8344668754343
-0.00978786860359736,19.8354416776984
-0.00843415113593829,19.8364443434057
-0.00715312009139269,19.8374774721708
-0.00594820320662887,19.8385441529736
-0.00482251501928768,19.8396480940969
-0.0037788028178637,19.8407937992116
-0.00281939040132297,19.8419868118532
-0.0019461191342241,19.8432340646814
-0.00116028505681243,19.8445443957016
-0.00046256955676021,19.8459293434209
0.000147041283060164,19.8474044360796
0.000669358609060079,19.8489914236596
0.00108662755569706,19.8506333823889
0.00140954802024829,19.8523281479457
0.0016535849487092,19.8540942480591
0.00183290605697588,19.8559549299681
0.00196088652856263,19.8579417968613
0.00205056291015638,19.860100763466
0.00211534796971901,19.8625050114292
0.00217055115240843,19.8652892541758
0.00223846678158376,19.8687798432965
0.00232953373135093,19.8725531514925
0.00245852305014366,19.8767218354294
0.00260717296746803,19.8807324612562
0.00276532626963453,19.8845607466002
0.00293069027610693,19.8883200173736
0.00310231734706871,19.8920783736777
0.00328039566076565,19.8958828261521
0.00346605252866825,19.899770532576
0.00366116010579709,19.9037739225102
0.00386818382768404,19.9079235474038
0.00409008420272695,19.9122499381833
0.0043302897527213,19.9167849729029
0.00459279362731141,19.9215632589504
0.00488243866881606,19.9266235581938
0.00520546923193823,19.9320099981441
0.00554453670103084,19.937370157742
0.00589823756546113,19.9426438998594
0.00626912740663219,19.9478289010241
0.00666027615427074,19.9529239528488
0.00707585557367752,19.9579375852789
0.00752043366666449,19.9628773907682
0.00799898257985183,19.9677495402829
0.00851684370640718,19.9725576457011
0.00907981387599854,19.9773030210164
0.00969423347111118,19.9819849634193
0.0103671062942939,19.9866013764217
0.0111178898894991,19.9912176070231
0.011916867617092,19.9956088035115
0.0128122704980744,20
