ecg,time
0.0051868684040307,15.0033735365409
0.00554659429066302,15.0086815159366
0.00591916562269797,15.0138889419051
0.0063089303058593,15.0190110249098
0.00671991339843992,15.0240549391905
0.00715657465816283,15.0290296360613
0.00762353033822463,15.0339409546517
0.00812571571076913,15.0387926460994
0.00866847342916251,15.0435863939169
0.00925768394137771,15.048322274427
0.00989988864656907,15.0529991374904
0.0106038844980576,15.0576242675726
0.0113948474717947,15.0622875894324
0.0122871647285435,15.0669795805476
0.0133037694336238,15.0717189962227
0.0144771454603281,15.0765417303657
0.0158619632536225,15.0815337406783
0.0175772778183902,15.0869300666596
0.0199925604002043,15.0935253890266
0.0216052774719044,15.0975289756782
0.0232749557168574,15.1015325623298
0.0247282686584913,15.105063770153
0.0259523236046265,15.1082494138801
0.0269708288481147,15.1112836593975
0.0277507880663535,15.1142048119014
0.0282641810948988,15.1170244466674
0.028504989749451,15.1198664260051
0.0284332199781679,15.122903731491
0.027899190293189,15.1265692922321
0.0270866081443011,15.1297181998571
0.0260033265551257,15.1328671074821
0.0249182414379233,15.1355406812203
0.0238438109579846,15.1379530651919
0.0227694576685666,15.1402360854687
0.0216949661169509,15.1424488921301
0.020623388795775,15.1446239256272
0.0195584100405564,15.1467822413523
0.0185036677304347,15.1489390299908
0.0174625719890437,15.1511060930473
0.0164382578655754,15.1532931503004
0.0154335816545922,15.1555086054625
0.0144511294029493,15.1577600369681
0.0134932267511896,15.1600545408894
0.0125619541931583,15.1623989736639
0.0116591527944243,15.1648001649024
0.0107864357137585,15.167265087229
0.00994520154454199,15.1698010047876
0.0091366378474957,15.1724156470757
0.00836173565483205,15.175117358706
0.00760084315394408,15.1779959911398
0.00685669602349869,15.1810757233618
0.00613309080168831,15.1843811529136
0.00543401224251648,15.1879407616693
0.00476361064487485,15.1917875683357
0.00412612734860344,15.195960088779
0.0035257757634417,15.2005037272231
0.00296655776958638,15.2054730813776
0.00245199105689626,15.2109363102338
0.00198486134855634,15.2169823354176
0.00156715715008747,15.2237308489544
0.00129482706496225,15.2291822937643
0.00107904586949236,15.2346337385741
0.000852379780193834,15.2423144089992
0.000682177708367087,15.2501311282575
0.000535669183301221,15.2592596763179
0.000423410683201566,15.2692596763179
0.000348201566549374,15.2792596763179
0.000299640562633853,15.2892596763179
0.000270144040632678,15.2992596763179
0.000254310234381568,15.3092596763179
0.000248453672962166,15.3192596763179
0.000250171587966986,15.3292596763179
0.000257981727596253,15.3392596763179
0.000271064274473485,15.3492596763179
0.00028910345920617,15.3592596763179
0.00031220817196029,15.3692596763179
0.000340894521649137,15.3792596763179
0.00037612543189556,15.3892596763179
0.000419416958734902,15.3992596763179
0.000470952152179807,15.4089006372671
0.000529884414683757,15.4178283888851
0.00059696601828221,15.4260818239364
0.00067322529165967,15.4337114576595
0.000759882192274411,15.4407647499692
0.000858338464537135,15.4472858487351
0.000970188873071907,15.4533158468256
0.00109724220222974,15.4588930157364
0.00124154792180069,15.4640530052875
0.0014054266453241,15.4688290255993
0.00159150599970462,15.4732520201624
0.00180276256356181,15.4773508315101
0.00204257236521543,15.4811523568003
0.0023147708794374,15.4846816985034
0.00262372803124291,15.4879623183881
0.00297444130738586,15.4910161966699
0.00337265529831315,15.4938639973865
0.00382501859896384,15.4965252507085
0.004339295462383,15.4990185648535
0.00492466170728321,15.5013618840026
0.00559213451585401,15.5035728271314
0.00633845498023377,15.505627043241
0.00716221545720628,15.5075250333775
0.00807444806310384,15.5092988817741
0.00909159502778679,15.5109806988739
0.0102397585723202,15.5126059964943
0.0115665986025322,15.5142233463316
0.0132565371919995,15.5159985280031
0.0158358396593981,15.5183123442847
0.0174866867017505,15.5196409291601
0.0192173933171113,15.5209695140355
0.020794402639679,15.5221673984922
0.0222081755969447,15.5232733443837
0.023477302405931,15.5243404916862
0.0245965960048638,15.5254077093232
0.0255432151128554,15.5265144036822
0.0262722506320222,15.527717643412
0.0266870577015636,15.529141104019
0.0263932236055911,15.5313232825733
0.0256477800652027,15.5327765058096
0.0245694119101279,15.5342297290459
0.0233340958821898,15.5355984648902
0.0219441836735852,15.5369823696888
0.020408551484407,15.5384280485236
0.0187348759978647,15.5399732903554
0.0176404978495771,15.5409889457943
0.0165815330059724,15.5420046012331
0.0140680783524747,15.5446310878895
0.0115140164828505,15.5477192922749
0.00953802901904059,15.5505300836702
0.00798775643614063,15.5531079583996
0.00670301942488154,15.5555936141236
0.00558157744219194,15.5581224572919
0.00459784712379855,15.5607229185557
0.00373380706120786,15.5634180848518
0.0029764794684434,15.5662250199183
0.002375934483906,15.5688649283746
0.00188988064171592,15.5713720716088
0.00148598734843497,15.5737956231217
0.00114144373260694,15.5761861109704
0.000840595151413047,15.5785908630264
0.000571686571444639,15.5810638785995
0.000320011448455975,15.5837341714277
9.43623761544075e-05,15.5865025971142
-5.20506660594651e-05,15.5885343080434
-0.000184645222355691,15.5905660189727
-0.000292472947784971,15.5923734088968
-0.000386007005585396,15.5940689698515
-0.000473116918795093,15.5957670416674
-0.000559429700896001,15.5975746773754
-0.000652027617383409,15.5996669570831
-0.000771417574114454,15.6026263454455
-0.000909568844153216,15.6064746365731
-0.00101171201594593,15.6096683701195
-0.00110097060532183,15.6127559777004
-0.00119201962386602,15.6162696130319
-0.00129101966720136,15.6207004580176
-0.00138582632821495,15.6262164935695
-0.00143077916702581,15.6309981400959
-0.00142476948004641,15.6353169256371
-0.00136079730612411,15.6391896529501
-0.00123217720059588,15.6426741573455
-0.00103141877227388,15.6458445943171
-0.000749529925664215,15.6487699070212
-0.000376456575608334,15.6515024830179
9.90684428064322e-05,15.6540842251932
0.000693271284330658,15.6565637829871
0.00143629902507604,15.6590130350404
0.00237975977937953,15.6615206883852
0.00362815667790019,15.6642339220441
0.0052884039663978,15.6672129899432
0.00675489202692319,15.6694580522574
0.00843285913709158,15.6717031145717
0.0100955800418262,15.6736497220289
0.0117824640725895,15.675384655254
0.0135738890383049,15.6770016825484
0.0155145936926151,15.678533251726
0.0176303876951657,15.6799874124924
0.0199710445111983,15.6813837699738
0.0225653567608843,15.6827233814982
0.0254585672546817,15.6840139958137
0.0286858745956266,15.6852560569331
0.0322980925214066,15.6864545957857
0.0363460294056465,15.687612073935
0.0408863188872471,15.6887308321369
0.0459912430073396,15.6898149425945
0.0517423568816209,15.6908677746725
0.0582367984793432,15.6918929406631
0.0655904992048029,15.6928941935792
0.0739492541341984,15.6938761800403
0.0834925745548293,15.6948438187726
0.0944488953161717,15.6958028487079
0.107116908425313,15.6967602585852
0.121900393267849,15.69772496895
0.139374535057755,15.698709323396
0.160042584965605,15.6997149663902
0.184010794322629,15.7007262701814
0.211947341424808,15.7017555213912
0.244777079635136,15.7028207443444
0.28394410675677,15.7039529741164
0.327653928815476,15.7051039555882
0.365113543718969,15.7060408764211
0.396983829954652,15.7068334002947
0.424806354168935,15.7075497142394
0.449073721611806,15.7082255453308
0.469759431927821,15.7088848473075
0.486471066163195,15.709548675057
0.498370817110469,15.7102406352622
0.503828912440737,15.7109946359731
0.499921171882921,15.711818717247
0.484815043336821,15.7126598584706
0.457216948286679,15.7135324675152
0.41553252920838,15.7144470049539
0.358019262265686,15.7154133318313
0.317026520294012,15.7160002621189
0.272339961444206,15.7165871924065
0.232178211106853,15.717088391442
0.197196304355029,15.7175171135928
0.16613050421064,15.7179002391058
0.138119378481195,15.7182545772241
0.112614496823276,15.7185910358665
0.0892190631087846,15.7189179246682
0.0675906954818462,15.7192430485033
0.0473448314512736,15.7195761795257
0.0278144869307882,15.7199358085339
0.00636340400644171,15.7203969947314
-0.00180126196942861,15.7205993375442
-0.00924088817865834,15.720801680357
-0.0155277294185647,15.7209895506631
-0.0214350347361045,15.7211839076516
-0.0273153860486669,15.7213992996746
-0.0329458216840647,15.7216323751336
-0.0381882983292769,15.7218812442686
-0.0429673889751618,15.7221453448547
-0.0472449024458421,15.7224249999129
-0.0511598592743435,15.7227356893276
-0.0543253201452594,15.7230480791829
-0.0569713856700223,15.7233801319594
-0.0591118490964368,15.7237346098989
-0.0607601249706369,15.7241146343964
-0.0619301372232572,15.7245240439593
-0.0626348058139117,15.7249675832258
-0.0628845404630922,15.725451178211
-0.0626855411602837,15.7259823508366
-0.062036903624042,15.726571358261
-0.0609254870468814,15.7272325841224
-0.0593218853581093,15.7279854027234
-0.0571672210973827,15.7288596816423
-0.0543370453198656,15.7299088116214
-0.0504896389938588,15.7312641349122
-0.0465064996182172,15.7326414607659
-0.042677404679811,15.7339736872974
-0.0390414749457736,15.7352648396997
-0.0356175061862882,15.736516951238
-0.032414474574748,15.737730774764
-0.0294353023913831,15.7389064135917
-0.0266786755633028,15.7400436577674
-0.0241401067385704,15.7411421604302
-0.0218126790036766,15.7422015271492
-0.0196876392817052,15.7432213556094
-0.0177549066061725,15.7442012453086
-0.0160035187473678,15.7451407879238
-0.0144026593153206,15.7460508879437
-0.0128590261216004,15.7469840830878
-0.0113775900969308,15.7479416287719
-0.00996234533174449,15.7489255202143
-0.00861710875894463,15.7499380877122
-0.00734546456656609,15.7509820825757
-0.00615071275978506,15.7520607844903
-0.00503581512085142,15.7531781449698
-0.00400333854259638,15.7543389832302
-0.00305539525391935,15.7555492605823
-0.0021935787817475,15.7568164766137
-0.00141889331474897,15.7581502623139
-0.000731671935497441,15.7595633082139
-0.000131474767978952,15.7610728995647
0.000379242886733055,15.7626899328077
0.00078389794105679,15.7643475065658
0.00109991290888803,15.7660640291379
0.00134237053598724,15.7678589578095
0.00152538726897538,15.7697579052377
0.00166250772776928,15.7717963863062
0.00176729078960908,15.7740274286609
0.00185435492869425,15.776539034098
0.0019419869977491,15.7795049275506
0.00205730059122839,15.7832436659943
0.00219718531000613,15.7871027473671
0.00236688476102857,15.7910921660098
0.00255022969365159,15.7949401035848
0.00274423790587806,15.7987388676243
0.00294697733576295,15.8025505683588
0.00315777113187045,15.8064198072117
0.00337716861441955,15.81038280883
0.00360676973243504,15.8144719039554
0.00384903746755257,15.8187180518133
0.00410715375938888,15.8231525601828
0.00438496419421013,15.8278084763875
0.00468708513742541,15.8327220424948
0.0050192401575675,15.8379339346411
0.00537693356307042,15.8433120475288
0.00574364480298769,15.8485603890829
0.00612695607026234,15.8537530025622
0.00652754346692281,15.8588542093978
0.00694999570300939,15.8638778311454
0.0073986448923411,15.8688281911711
0.00787857168158436,15.8737127662409
0.00839515435611226,15.8785359361985
0.00895424247880572,15.8833002133924
0.00956220923727003,15.8880060446094
0.0102260859775336,15.8926524380372
0.0109630476282927,15.8972936419348
0.0117924581174633,15.9019665888251
0.0127323794218414,15.906675353261
0.0138089931721401,15.9114434785436
0.0150620078996221,15.9163227792576
0.0165645151912039,15.9214415998773
0.0185079437397087,15.9272035219916
0.0204092285097683,15.9322086762886
0.0219973358566992,15.9361058893862
0.0236247276980694,15.9400031024839
0.0250236661159593,15.9434375355387
0.026202260651598,15.9465768168803
0.0271757965494527,15.9495973318664
0.0278971016999909,15.9524860903682
0.0283524253431493,15.9552986685171
0.0285304152024756,15.9581642370588
0.028378633275355,15.9612805799931
0.0276805547603508,15.9652538834039
0.0268375991909469,15.9682068883982
0.0257706158907492,15.9711598933925
0.0246926361424716,15.9737491483551
0.0236189865377565,15.976123944117
0.0225446320556675,15.9783867077108
0.0214707347121697,15.980587793033
0.0204006168325296,15.9827562980418
0.0193379874608893,15.984911634919
0.018286447425165,15.987068052781
0.0172493532035722,15.9892367613526
0.0162297845548079,15.9914270800523
0.015230542918372,15.9936471293806
0.0142541626332391,15.9959042743168
0.0133029207630201,15.9982054404199
0.0123788480422211,16.0005573489099
0.0114837419092413,16.0029666982231
0.0106191703861071,16.0054403421153
0.00978648768000247,16.0079854237969
0.00898683782601175,16.0106095409571
0.00821544934907193,16.013341969426
0.00745774669541868,16.0162589033036
0.00671759086665244,16.0193814831312
0.00599881280388898,16.0227350508492
0.00530544371438603,16.0263488854691
0.00464166700438955,16.0302569639765
0.00401173822731156,16.0344989704715
0.0034198519304949,16.0391218326289
0.0028699439942654,16.0441823064823
0.00236540638456354,16.0497519183607
0.00190887083076468,16.0559247249032
0.00150379433811638,16.0627971710095
0.00116402510716617,16.0701997521342
0.00089460715039629,16.0782392721832
0.000712128541199135,16.0859811609309
0.000563391788055377,16.0946057688838
0.000447199873252473,16.1040060306213
0.000362319038521166,16.1140060306213
0.000306741292644123,16.1240060306213
0.000272387239002289,16.1340060306213
0.000253395428516747,16.1440060306213
0.000245661855700175,16.1540060306213
0.000246465808562256,16.1640060306213
0.000254124642698265,16.1740060306213
0.000267719614702106,16.1840060306213
0.000286915847753922,16.1940060306213
0.000311871128476448,16.2040060306213
0.000343220646488333,16.2140060306213
0.000382133596703897,16.2240060306213
0.000430454824493318,16.2340060306213
0.000486977496855384,16.243402057884
0.000551730595212344,16.2520819705755
0.000625636999928175,16.2600956570001
0.000709871638868604,16.2674951471713
0.00080581067589866,16.274328741843
0.000915030614513054,16.2806411646238
0.00103932486570019,16.2864738839597
0.00118072845804085,16.2918653889229
0.00134154869424074,16.2968514239002
0.00152440007109152,16.3014652039665
0.00173224711764975,16.3057376168847
0.00196845424216259,16.3096974128596
0.00223684754509067,16.3133713815586
0.0025417898236992,16.316784527603
0.0028882757981675,16.3199602518897
0.00328205472717018,16.3229205406316
0.00372979124087464,16.3256861702234
0.004239285038328,16.3282769460934
0.00481977996069779,16.3307119972238
0.00548241713299598,16.3330101653445
0.00622495450830383,16.335148580734
0.00704625625227802,16.3371272368226
0.00795835792820342,16.3389807681472
0.00897964806028368,16.340744764675
0.0101405241118041,16.3424606294017
0.0115003907888086,16.3441903660539
0.0132963173419749,16.3461554818662
0.0150618064033913,16.3478523765712
0.0169959893592478,16.3495492712763
0.0186843004007288,16.3509620517599
0.0201460872981792,16.3521839789174
0.0214528381948468,16.3533209670723
0.0226195878379076,16.3544262548788
0.0236368065354211,16.3555387031066
0.0244780267478715,16.356700570028
0.0250923623112806,16.3579774833659
0.0253630621389855,16.3595266966848
0.0250261573197115,16.3613602113327
0.0240769054619171,16.3631937259806
0.0229678215547101,16.3646756255913
0.0217262356612247,16.3660752478285
0.0203455970168485,16.3674936862256
0.0188338571456112,16.3689758175608
0.0171982972240209,16.3705591272537
0.0154682343173058,16.3722898175118
0.014135869868686,16.3737213594609
0.0116911093995262,16.3766513354315
0.00967031405826041,16.3794781032876
0.00807420967729728,16.3820829332
0.00676021965317351,16.3845737574608
0.00561245057551448,16.3871037148892
0.00460406722608083,16.38970253128
0.00371650823490535,16.3923935281202
0.00299472224709656,16.3949672237758
0.00241092214681165,16.3973939825591
0.00192989676670739,16.3997028789123
0.00152519319847613,16.4019279436965
0.00117679315897769,16.40410833872
0.000868671701795219,16.4062944447012
0.000585801672600494,16.4085676330498
0.000305150821717269,16.4111371942391
9.7001796492516e-05,16.4132913670396
-9.01559454974029e-05,16.4154455398401
-0.000233242861429205,16.4172535402803
-0.000351111003254519,16.4188613727196
-0.000457762726376766,16.4204179188081
-0.000560677465472816,16.4220195323122
-0.000666726375263588,16.4237803699978
-0.000788122080056617,16.4259441598989
-0.00100113289448167,16.4301561538324
-0.00118536216985624,16.4342681782236
-0.00133049574163855,16.4378441716997
-0.0014714122331531,16.44162752943
-0.00163941029346879,16.4466023308072
-0.00180411237929769,16.4522334225628
-0.00191504223994963,16.4571472118408
-0.00197169629777581,16.4615795855045
-0.00196538880742954,16.4655471131289
-0.00188881557469085,16.4691019794793
-0.00173559721369557,16.4723087422328
-0.00149949191402259,16.4752323559854
-0.00117214783590775,16.4779431338573
-0.000741073994010412,16.4805087828725
-0.000184542104129453,16.483006777439
0.00054147660196614,16.4855494346046
0.0015654746230934,16.4884086546817
0.00289874855357675,16.4914633449042
0.00460459710302261,16.494793063194
0.00590383233026829,16.4970530804173
0.00733421944899368,16.4993130976406
0.00875893327789889,16.5013375149871
0.0101484869096492,16.5031010920951
0.0116244513073739,16.5047626527008
0.0132329566712322,16.5063542547132
0.0149882459350677,16.5078696232549
0.0169443263732303,16.5093351503799
0.019116964072726,16.5107420495676
0.0215482915407339,16.5120996090547
0.0242669433327337,16.5134065072973
0.0273067537360684,16.5146638163431
0.0307114726764592,16.5158753560832
0.0345265684272923,16.5170434733817
0.0388035909045331,16.5181706677986
0.0436037640200463,16.5192600690366
0.0490015668507635,16.520315490664
0.0550831463781204,16.5213404278122
0.0619513954322495,16.5223385552986
0.0697305631631142,16.5233137843648
0.0785717622924892,16.5242702687262
0.0886644874243523,16.5252128261559
0.100247614049707,16.5261468725423
0.113630609509161,16.527078868395
0.129226716351897,16.5280168967498
0.147610306680428,16.5289716798546
0.169421677931497,16.5299500533515
0.194680358824012,16.5309318359057
0.224050289799853,16.5319274517839
0.258425547839152,16.5329518885107
0.299152165535326,16.5340305516404
0.346439857919566,16.5351656436741
0.38649877720617,16.5360748444088
0.419877568350778,16.5368270777701
0.448855929797767,16.5375032405675
0.47416366815183,16.5381423575164
0.495834802515159,16.5387693704139
0.51346886370744,16.5394066051227
0.526141678957716,16.5400809520403
0.531902022864977,16.5408364346696
0.527475172016848,16.5416395622413
0.511304766753193,16.5424678717878
0.481923081025001,16.5433372298787
0.437460044192574,16.5442588862045
0.375887623296283,16.5452412288038
0.331992659760295,16.5458389214937
0.284149587059238,16.5464366141837
0.241512677855038,16.5469428185988
0.204741040347568,16.547371799771
0.172305129330161,16.5477528403758
0.143185689421881,16.548103941221
0.116750518935534,16.5484365244513
0.0925533639501432,16.5487591308143
0.0702181407170683,16.5490796688876
0.0493318278309617,16.5494079487625
0.0291893259523216,16.549762485354
0.00699467875542415,16.5502192567305
-0.00131618944182099,16.5504166149603
-0.00889193428089185,16.55061397319
-0.0152624699404061,16.5507961918353
-0.0212709894930971,16.5509852396661
-0.0272674686139806,16.5511951097788
-0.0330202224478975,16.5514224533542
-0.0383853592465743,16.5516653719131
-0.0432837834991168,16.5519232787271
-0.047675111487316,16.5521964645265
-0.051542004444852,16.5524858609407
-0.05510815766868,16.5528177849764
-0.0578399372063687,16.553143535324
-0.0600556411639305,16.5534910055227
-0.0617724953925163,16.5538636352243
-0.0630049764852079,16.5542652332734
-0.0637665507773243,16.5547005108667
-0.0640681540191248,16.555175364165
-0.0639164360892224,16.5556972947413
-0.0633110090473454,16.5562764104014
-0.0622388578865364,16.5569271974889
-0.0606700774688622,16.5576691325485
-0.0585441426367287,16.5585323958555
-0.0557317744429247,16.5595714074081
-0.0518710120479123,16.5609227877731
-0.0478237947142214,16.562310168612
-0.0439228081990533,16.5636534339191
-0.040210352269644,16.5649565023766
-0.036707197374559,16.5662212779968
-0.0334237991197668,16.5674484019234
-0.0303643183494187,16.5686378800105
-0.0275285085564302,16.5697894176063
-0.0249127913715189,16.5709025954557
-0.0225109983664352,16.5719769592525
-0.0203149627806249,16.5730120600202
-0.018315030959566,16.5740074648276
-0.0165005175316453,16.5749627484096
-0.0148601105233705,16.5758774715036
-0.013300185533857,16.5768012244439
-0.0118007599946159,16.5777487505211
-0.010366095819387,16.5787218084038
-0.00900009266211833,16.5797225842316
-0.00770644190329092,16.5807536494375
-0.00648857496481618,16.5818180579182
-0.00534961083230859,16.5829194735695
-0.00429230128262623,16.5840623428858
-0.00331897365290232,16.5852521342146
-0.00243147049709991,16.5864956788982
-0.00163108468098062,16.5878016743284
-0.000918487033049885,16.5891814566105
-0.000293640911077943,16.5906502488341
0.000244307770303706,16.592229312085
0.000678498979621969,16.5938684756998
0.00101729433748278,16.5955592319588
0.00127638677647707,16.597320035536
0.00147010255221441,16.5991737155138
0.00161197821298467,16.6011511989168
0.00171522372501927,16.6032971978597
0.00179345443283725,16.6056824732154
0.00186223639112172,16.608435752908
0.00194412632990166,16.6118610441924
0.00204949511679676,16.6156240799253
0.00219154777554764,16.619753532917
0.0023771140398661,16.6243301825901
0.00256030537364127,16.6284181800219
0.00274316155534397,16.6322954616816
0.00292727272087609,16.6360940743668
0.00311417980642849,16.6398866145752
0.00330578271113225,16.6437222775513
0.00350436756341623,16.6476395554002
0.0037125613745166,16.6516717600122
0.00393330020171802,16.6558500284345
0.00416984190754961,16.6602053943511
0.00442582958233855,16.6647701907193
0.00470546871325591,16.6695794886059
0.00501387571457954,16.6746724592961
0.00535769079716934,16.6800936088111
0.00570963041538872,16.6853578208013
0.00607943657095648,16.6905832983684
0.00646619530592799,16.695713487695
0.00687435438051231,16.7007646402021
0.00730787392956692,16.7057395514513
0.00777160937983006,16.7106462566565
0.00827073871655457,16.7154899680394
0.00881089866589516,16.7202739976838
0.00939822723861593,16.7249994794546
0.0100394812078944,16.7296658697746
0.0107458568633573,16.7342945879939
0.011540621832692,16.7389592958869
0.0124391504709394,16.7436544758313
0.0134650375085763,16.7483996367211
0.0146522335710126,16.7532338662857
0.0160589414136115,16.7582512796918
0.0178167270811749,16.7637162786573
0.020229936921067,16.7702407708662
0.0218154428132814,16.7741565366103
0.0234491657351196,16.7780723023544
0.0248773139542003,16.7815577115062
0.0260816030840342,16.7847226321425
0.0270807877839548,16.7877502709012
0.0278356050990738,16.7906569068729
0.0283242573609322,16.7934726604453
0.0285385555117026,16.7963233149065
0.0284336423893389,16.7993911624703
0.0278361232098573,16.8031699951609
0.027010925677846,16.8062346708066
0.0259351967042508,16.8092993464523
0.0248532152545117,16.8119380217673
0.0237790616220331,16.8143351875195
0.0227046511020743,16.8166099250333
0.0216303600044537,16.8188177520755
0.0205593531375544,16.8209897682512
0.0194953261910486,16.8231463736796
0.0184419038777538,16.8253023804599
0.0174024773209191,16.8274693459156
0.0163801616963324,16.8296568187561
0.0153777943220291,16.83187307285
0.0143979432987654,16.83412558063
0.0134429175162204,16.8364213443216
0.0125147807711104,16.8387671332388
0.0116153587643377,16.8411696870835
0.0107462488093546,16.8436358847436
0.00990883415334174,16.846172884882
0.00910428611393707,16.8487882984592
0.00833152312359629,16.8514978306844
0.00757195104312141,16.8543893955604
0.00682945633056992,16.8574835819686
0.00610784497629208,16.860805290188
0.00541112669713506,16.8643832970826
0.00474347522011721,16.8682509818659
0.00410915135419366,16.8724473187708
0.0035123802397051,16.877018336176
0.0029571638965338,16.8820195567605
0.0024470081223492,16.8875206160702
0.00198468859865877,16.8936128008588
0.00157221584899966,16.900419429442
0.00122589003016926,16.9077483623353
0.000949623681584287,16.9158863727482
0.000785250170032723,16.9227058820069
0.0006263392230743,16.931571500867
0.0005116967183175,16.9406043058915
0.000425745920093942,16.9506043058915
0.00037207244979429,16.9606043058915
0.000342194917516551,16.9706043058915
0.000330069881813376,16.9806043058915
0.000331634940380795,16.9906043058915
0.000344436836244204,17.0006043058915
0.000367305983989585,17.0106043058915
0.000400137753211535,17.0206043058915
0.000443822266498358,17.0306043058915
0.000499075567115308,17.0403993564054
0.000563896359381435,17.0494495870959
0.000638726029811129,17.0577935998061
0.000724516664595388,17.0654879612423
0.000822541357539246,17.0725853647836
0.000934338281969433,17.079134313675
0.00106170060262959,17.0851795567762
0.00120668932405004,17.0907624661485
0.00137165887670294,17.0959213446994
0.00155929097438951,17.1006916935866
0.00177263717594227,17.1051064590601
0.00201517186589028,17.1091962633315
0.00229085814941454,17.1129896168427
0.00260422920790272,17.1165131223715
0.00296049431167442,17.1197916877619
0.00336567598288417,17.1228487534591
0.00382679509250667,17.1257065411586
0.00435212788545115,17.1283863513463
0.00495157699263168,17.1309089471052
0.00563723381013494,17.1332950847245
0.00640075018781017,17.1355041864413
0.00724881185111816,17.1375611834737
0.00819735707380368,17.1395057801111
0.00927225064414824,17.1413821660114
0.0105219642092423,17.1432515938932
0.0120822336294223,17.1452582839321
0.013897656982426,17.1472899776829
0.0154023762519199,17.1488179588262
0.0169895477572249,17.1503459399695
0.0184079003331523,17.151691121257
0.0196689775876568,17.1529188805732
0.0207949330268897,17.1540936561998
0.0217827605577598,17.1552585371709
0.0226130756154619,17.1564538842315
0.023247948187984,17.1577335081457
0.0236106380660167,17.1592016796331
0.0234493451180374,17.16124429891
0.0228125261172853,17.1628709692609
0.0218130665737043,17.1644976396117
0.0206816588762877,17.1659623380268
0.0194230285891042,17.167404004673
0.0180443377690405,17.1688812526886
0.0165551590951527,17.1704316886063
0.0156430191513763,17.1713791170617
0.0147556202824099,17.1723265455171
0.0125099857732391,17.174934381443
0.0103462511956806,17.1778250028435
0.00862184873639718,17.1805069840439
0.00723256607695269,17.1830125575977
0.00602541209441349,17.1855358351706
0.0049643731494061,17.1881192607741
0.00406065167014829,17.1906903034278
0.00331490351497152,17.1931624860861
0.00268718122899952,17.1955745179677
0.00214382078788601,17.1979872296254
0.00165124442898073,17.2005183604235
0.00114759169508044,17.2035575053436
0.000852728165652737,17.2056132996815
0.000589192613365114,17.2076690940194
0.000375788741501426,17.2095154164228
0.000195256551294826,17.2112267224888
3.05924887086455e-05,17.2129253802881
-0.000129172535067842,17.2147168811984
-0.00029600459765772,17.2167592764192
-0.000498370632584429,17.2195073706958
-0.000781204682233525,17.2239364426921
-0.000985154062729118,17.2276440178763
-0.00114931374915125,17.2310002682181
-0.00131475866107092,17.2347772354677
-0.00150262749865231,17.2396697982
-0.00167452842200031,17.2450733378667
-0.00178510199671969,17.2498409579581
-0.00183544029653576,17.254174768297
-0.00181806765130262,17.2580923337902
-0.00172593856585156,17.2616407364424
-0.00155241424283576,17.2648738632163
-0.00129060863114377,17.2678496726245
-0.000931625848648735,17.2706302225983
-0.000460303213171809,17.2732902292286
0.000155600732419583,17.2759387120864
0.000982623309451585,17.2787331430175
0.00210930110642679,17.2818038810457
0.00356212273472116,17.2851012873317
0.00534932366469567,17.2885732965631
0.00652104977241258,17.2905913902633
0.00781662398112755,17.2926094839636
0.00916737562076616,17.2944895583347
0.0105926178351268,17.2962468135861
0.0121060017324348,17.2978875143621
0.0137733449847415,17.2994669869909
0.0156082462418148,17.3009771933715
0.0176535376054817,17.3024341419744
0.0199297550529303,17.3038336160003
0.0224746149284319,17.3051819724378
0.0253191318170162,17.3064795721082
0.0284988086273093,17.30772806189
0.0320591011001995,17.3089313918802
0.0360487303066585,17.310092368602
0.0405236341027893,17.3112139153882
0.0455500775820186,17.3122993806476
0.0512083138496123,17.3133526467932
0.0575924422793305,17.3143774269239
0.0648158247897427,17.3153776668974
0.0730166496033727,17.3163576201489
0.082366119115889,17.3173220089644
0.093081645652195,17.3182763526903
0.105444284628444,17.319227179279
0.119829904245286,17.3201826940188
0.136763102501073,17.3211538724616
0.156947891706921,17.3221532390312
0.180325478458715,17.3231553441958
0.207517895219601,17.3241710993234
0.239366613108153,17.325216069509
0.277120785931785,17.3263154883991
0.3205443545787,17.3274583133513
0.360605668718425,17.3284468847695
0.394261861633567,17.3292623078308
0.423452390272988,17.329986186326
0.448971980118534,17.3306618193986
0.470935552842172,17.3313156386587
0.489057600156448,17.3319692386007
0.502632927774724,17.3326455142618
0.510268009148511,17.3333758497049
0.509162450535058,17.3341927010962
0.497019752951864,17.3350239273768
0.472617239144851,17.3358852406666
0.434370255558581,17.3367883000274
0.380506632596958,17.3377420740648
0.337340113049249,17.3383805848387
0.289362593589773,17.3390190956127
0.246435619342096,17.3395543099717
0.209529402919288,17.3400021182217
0.17703689464746,17.340396317009
0.147888408653479,17.3407571588644
0.12143688316514,17.3410970612496
0.0972385023369536,17.3414249351617
0.0749343698218772,17.3417485612952
0.0541591330675569,17.3420767613823
0.0343721973402825,17.3424240053463
0.0140379120187042,17.3428333695875
0.00141811058075617,17.3431271424789
-0.00590019904611718,17.3433171497086
-0.0125856894308649,17.3435071569382
-0.0184190159311792,17.3436890023243
-0.0243695586709427,17.3438940171496
-0.0301648899923605,17.3441181253141
-0.0356246704720073,17.3443586175382
-0.0406483271634016,17.3446144018889
-0.0451827566944914,17.3448854398936
-0.0492007398335153,17.345172423885
-0.0529124700585475,17.3454991192935
-0.0558030688193525,17.3458211321656
-0.0581778332054619,17.3461640123058
-0.0600529103817696,17.3465309380576
-0.0614423660230226,17.3469254192003
-0.0623598809033661,17.3473517795794
-0.0628172780797104,17.3478153946797
-0.0628229254119558,17.3483230398697
-0.062379776596083,17.3488834264966
-0.0614803007739972,17.3495094322966
-0.0601029901688371,17.3502177625415
-0.0582037619661415,17.3510329940136
-0.0556929348136502,17.3519959694054
-0.0523576313752949,17.3531916466222
-0.0483165868653314,17.3545948424722
-0.0444001942715992,17.3559492682769
-0.0406618621322569,17.3572612306539
-0.0371276758057748,17.358533654402
-0.0338107250284959,17.3597677324974
-0.0307166588901476,17.3609637766787
-0.027846168745002,17.3621216650285
-0.0251963146064076,17.363241077314
-0.0227613810772064,17.3643216169096
-0.0205335252716848,17.3653628695165
-0.0185033189452554,17.3663644247137
-0.016660222719727,17.3673258742725
-0.0149930049844613,17.3682467948568
-0.0134229441002558,17.3691673031514
-0.0119125866921502,17.3701114063706
-0.0104663626276329,17.3710807422659
-0.00908819631823621,17.3720774499357
-0.00778181054513124,17.3731040409202
-0.0065506739031272,17.3741634934225
-0.00539794851778129,17.3752593746299
-0.00432643534851078,17.3763960057189
-0.00333851692094197,17.3775786897146
-0.00243609684802873,17.3788140349483
-0.00162053471493836,17.3801104295145
-0.000892573488101346,17.3814787653254
-0.000252253915840353,17.3829335984408
0.000301195242559594,17.3844951277531
0.00075400452064535,17.3861285124761
0.00110899070477613,17.3878107420675
0.00138224656088053,17.3895601695784
0.00158830404144312,17.3913987275245
0.00174087174299585,17.3933559015127
0.00185328885720241,17.3954738605449
0.00193923120687816,17.3978183198211
0.00201414427734303,17.4005058582761
0.00209959303062201,17.4037977772104
0.00221044594575211,17.4075439641459
0.00234811986440307,17.4113864614487
0.00250700517681012,17.4151869081509
0.00268379641751535,17.419002598113
0.00287506116870065,17.4228777491405
0.00307847716518124,17.4268485197673
0.00329319731579341,17.4309472788491
0.00351980360926614,17.4352051725208
0.00376011865413149,17.4396538348038
0.0040170168897832,17.4443268068298
0.00429434786109532,17.4492609850523
0.00459707416666912,17.4544979293323
0.00493007941971418,17.4600575255025
0.0052662059323377,17.4654273401985
0.00561664476585664,17.470753442886
0.00598027018687453,17.4759715149051
0.00636170519895731,17.4811045841361
0.00676458891677872,17.4861563499429
0.00719337149466237,17.4911371316935
0.00765260627847469,17.4960531098106
0.00814720390956104,17.5009087045005
0.0086824638808855,17.5057059966913
0.00926421181631368,17.5104453310199
0.00989892016225433,17.5151257059703
0.0105943985646419,17.5197488381713
0.0113763444154728,17.5244109332858
0.0122586912108602,17.5291008141421
0.0132639438481897,17.5338366999354
0.0144236882157937,17.5386525976153
0.0157904904969778,17.5436297569385
0.0174763476259105,17.5489870157715
0.0198875154419046,17.55562583171
0.021515426907018,17.5596862741744
0.0232066025448537,17.5637467166388
0.0246741818272286,17.5673064332828
0.0259089156460086,17.5705047459846
0.0269377027123222,17.5735431851183
0.0277313332732296,17.5764728982768
0.0282581432565789,17.5792949267678
0.0285133024832426,17.5821322070605
0.0284593862674375,17.5851529387323
0.027958236686851,17.5887605254045
0.0271521354900784,17.591958855987
0.0260633737899913,17.5951571865695
0.0249759767705149,17.5978500156729
0.0239011291735489,17.6002702132449
0.0228266632997906,17.602557209325
0.0217519979921625,17.6047721924331
0.0206801149839733,17.6069483194266
0.0196146886768274,17.6091069833166
0.0185593623040146,17.6112635617041
0.0175175555883049,17.6134299691706
0.0164924141535303,17.6156159975145
0.0154868050517118,17.6178300969896
0.0145033243578053,17.6200798771137
0.0135443076259679,17.6223724531574
0.0126118448387459,17.6247146926712
0.01170778568716,17.627113431545
0.0108337523934809,17.6295756419352
0.00999115126173949,17.6321085867404
0.00918117805787735,17.6347199891719
0.00840483098781798,17.6374181880147
0.00764341229838022,17.6402890226869
0.00689859012460568,17.6433601148452
0.00617416956315518,17.6466558870564
0.00547413088097849,17.6502046854133
0.0048026228897771,17.6540393790951
0.00416389055115871,17.6581983188964
0.00356215909770826,17.6627267204772
0.00300145430659778,17.6676789480497
0.00248533415722428,17.6731228311087
0.00201663811854447,17.6791468670547
0.00159741399607012,17.685870402574
0.00134679823362715,17.6908083302537
0.00114427866117137,17.6957462579335
0.000911733219795378,17.7032789252825
0.000737934141943425,17.7109141111196
0.000586118201524126,17.7199677282977
0.000469702821464305,17.7299677282977
0.000393091793749643,17.7399677282977
0.000345373615369035,17.7499677282977
0.000318647622295165,17.7599677282977
0.000307343859687468,17.7699677282977
0.000307754984793054,17.7799677282977
0.000317606522472997,17.7899677282977
0.000335704975780097,17.7999677282977
0.000361706852331229,17.8099677282977
0.000396016031101403,17.8199677282977
0.000439804276854971,17.8299677282977
0.000493476493041156,17.839687044017
0.0005555711390342,17.8486785800124
0.000626658361589706,17.8569808004584
0.000707706837593684,17.8646469862631
0.000799943169952397,17.8717269822535
0.000904815854706994,17.8782669102138
0.00102399461754783,17.8843095142197
0.00115938678784754,17.8898944632622
0.00131316303447387,17.8950585998708
0.0014877887233031,17.8998361607934
0.00168606224431806,17.9042589839968
0.0019111610089512,17.9083567038567
0.00216669785201112,17.912156930417
0.00245678875912482,17.9156854209412
0.00278613948336124,17.9189662571275
0.00316015458944617,17.9220220303401
0.00358508035079952,17.9248740359616
0.00406819659064464,17.9275424946307
0.00461808235343195,17.9300468202872
0.00524499928272618,17.9324059622794
0.0059577136851118,17.9346282016761
0.00674536623228865,17.9366755162425
0.00761802357106409,17.9385825523671
0.00859111570206569,17.9403845594822
0.00968895276656756,17.9421196816096
0.0109553743949336,17.9438385646163
0.0125271424527698,17.9456755259204
0.0148946119077024,17.9480402541081
0.0164778911356293,17.9494550985201
0.0181460262611834,17.9508699429321
0.0196656914624771,17.9521393617211
0.0210224904063361,17.9533015557485
0.022238269543293,17.9544157800439
0.0233102067569313,17.9555232372716
0.0242181893602032,17.9566632629832
0.0249223364002941,17.957889441666
0.0253405943230853,17.959308715885
0.0251851191034578,17.9613498076967
0.0245299613142418,17.9628935683569
0.0235087642652897,17.9644373290171
0.0223384867509787,17.965848850086
0.0210248192599128,17.9672523171789
0.0195760578339832,17.9687017608652
0.0180014283397803,17.9702347295123
0.0170106467701136,17.9711985359237
0.0160425623568142,17.9721623423351
0.0146521963843052,17.9736254427897
0.01219063137883,17.9765092153455
0.0100892627411952,17.9793778398247
0.00843489006983171,17.9820162930601
0.00709290142764811,17.9845041020364
0.00592333687425163,17.9870249223839
0.00489731706694145,17.9896104303999
0.00399558751484041,17.9922841449373
0.00323408358978789,17.9949499653379
0.00260674377591747,17.9975356459825
0.00207567705686175,18.0001022618383
0.00160615408451339,18.0027644081634
0.00114690891518699,18.0058585712178
0.000853863121442577,18.0081755910437
0.000597288996957047,18.0104926108696
0.0003988837970284,18.0125159033059
0.000235728762733447,18.0143648495146
9.01285842801012e-05,18.0161832861599
-4.80080710481081e-05,18.0180818642233
-0.000188213550064302,18.0202128342012
-0.000349109679848076,18.0229627495979
-0.000591857163854895,18.0279008950404
-0.000757875836599518,18.0320317789281
-0.000879066155168789,18.0356020264678
-0.000991459494447879,18.0395310031412
-0.00110357501573308,18.0444997731054
-0.00117910821945492,18.0495851355955
-0.00120177105217833,18.0541431546784
-0.001169113713833,18.0582900950618
-0.00107540674515687,18.0620543008717
-0.000914316508214215,18.0654790141175
-0.00067898195828547,18.0686128244243
-0.000361027215519215,18.0715112392868
5.08021779357711e-05,18.0742320736353
0.000573332239768394,18.0768382236053
0.00123364796991629,18.0794018355237
0.00208216589640623,18.0820253684328
0.00320089241819594,18.0848247572007
0.00467394183362271,18.0878437245945
0.00630591596800409,18.0906347869605
0.00788357694312281,18.092941874528
0.00943268040466856,18.0949115730285
0.0110098235664781,18.0966659316073
0.0127128642664889,18.0983229250138
0.0145672320124413,18.0998952425702
0.0165823367864043,18.1013797536663
0.0188172116738171,18.1028068202577
0.0212956530491482,18.1041752578396
0.024056677703933,18.1054913873035
0.0271415031521252,18.1067595345846
0.0305883288156364,18.1079808053718
0.0344500868216191,18.1091598759229
0.0387824879246299,18.1102996775526
0.043648477209051,18.1114029572689
0.0491266869676803,18.1124736877973
0.0553089009330889,18.1135156159301
0.0623052301237948,18.1145326880823
0.0702502994127608,18.1155292458913
0.0793101973291467,18.1165100438351
0.0896985880545159,18.1174809200637
0.10169256976584,18.118448769518
0.115666378678097,18.1194224141215
0.132150529174941,18.1204139448296
0.151741270089057,18.1214313528247
0.174453600025964,18.1224532664668
0.200918339057287,18.1234919878817
0.232008696552723,18.1245654894554
0.269070520735497,18.1257038741121
0.310480254844611,18.1268591120505
0.347879328635469,18.1278438250965
0.379912146854923,18.128675714943
0.407926772906559,18.1294226542212
0.432427479722344,18.1301221415108
0.453426446192531,18.1307987014614
0.47060241580482,18.1314728475742
0.483256762391308,18.1321659407353
0.490082096668937,18.1329056528698
0.488478093932843,18.1337375626472
0.476147156262593,18.1345807336031
0.451932478980502,18.1354486577439
0.414392334059442,18.1363522681767
0.361927246269647,18.137301439939
0.321326651142712,18.137917728729
0.276444399781622,18.138534017519
0.236003263044147,18.1390562258256
0.200872514210292,18.1394986062671
0.169722570543866,18.1398912815931
0.1416532069821,18.1402526665306
0.116103971831947,18.1405943794973
0.0926789354876243,18.1409249889894
0.0710476338779232,18.1412521866171
0.0508601757350841,18.1415849687409
0.0315720626749276,18.1419386516371
0.0115155528351465,18.1423618221842
0.000619257358865793,18.14262656944
-0.00660021757355821,18.1428208648109
-0.0131905216207487,18.1430151601818
-0.0189621317549758,18.1432019891163
-0.0248239916668842,18.1434119596416
-0.0305155572517775,18.1436410576517
-0.0358654036016316,18.1438866446086
-0.0407784522365604,18.1441476892741
-0.045204883324619,18.1444242060377
-0.0491888964472186,18.1447232364097
-0.05252617405814,18.145030983168
-0.0553457396518643,18.1453577580573
-0.057658471500082,18.1457060028611
-0.0594768254652545,18.1460785896451
-0.0608144502079035,18.1464790510267
-0.0616846071044993,18.1469117383068
-0.0620986987437633,18.1473820532101
-0.062064709396829,18.1478967927922
-0.0615852977671782,18.1484646793541
-0.060652507370134,18.1490987320641
-0.0592450080554574,18.149815530183
-0.0573194634905914,18.1506395146396
-0.0547883663043893,18.1516111057406
-0.0514460285042863,18.1528135851876
-0.0474499923077251,18.1542089517395
-0.0435852742890427,18.1555551016226
-0.0399029263267673,18.1568580798355
-0.0364272153629464,18.1581209109052
-0.0331699734031952,18.1593448775651
-0.0301358400900514,18.1605303705509
-0.0273246497197324,18.1616773370064
-0.0247327340803363,18.162785516048
-0.022353775130561,18.1638545605342
-0.0201794532677679,18.1648840953193
-0.0181999871252178,18.1658737380964
-0.0164046018538515,18.1668230968209
-0.0147819386160659,18.1677317513291
-0.0132222037676078,18.1686594182281
-0.0117235762555399,18.1696110225618
-0.0102901432661118,18.1705884574276
-0.00892576884594871,18.1715939663839
-0.00763409532196883,18.1726301918186
-0.0064184919773462,18.173700275685
-0.00528200144953319,18.1748079930777
-0.00422728342925604,18.1759579335899
-0.0032565552540787,18.1771557536982
-0.00237152836340448,18.178408538339
-0.00157333849254302,18.1797253371696
-0.000862465496991138,18.181117994094
-0.000238634764869628,18.1826024994284
0.000299316408091508,18.1842013472539
0.000730836772773063,18.1858476246744
0.00106992094037991,18.1875485070514
0.00133207470410487,18.1893226564743
0.00153167420123592,18.1911939603288
0.00168243575275102,18.1931950628493
0.00179796043196208,18.1953737438831
0.00189265381576667,18.1978069853429
0.00198383446230582,18.2006391078153
0.00209941646321497,18.2042342491191
0.00223935277045079,18.2080258703175
0.00240471445472945,18.2118546990794
0.00259372235085958,18.2157357904417
0.00280291928155641,18.2197064264067
0.00302893431126152,18.2237997380833
0.00326972629928038,18.2280471626713
0.0035249716235633,18.2324802595265
0.00379604826156079,18.2371322743392
0.00408590678674908,18.2420395539908
0.00439902911522062,18.2472428020178
0.00474167107572483,18.2527884329417
0.0050869574753731,18.2581792726327
0.00544413403009944,18.2635200550706
0.00581283814208376,18.2687563635412
0.00619750042265335,18.2739058994935
0.00660189349461136,18.2789732057095
0.00703047231609126,18.2839683074045
0.00748781107413805,18.2888978447705
0.00797879386249239,18.293766542284
0.00850866602102527,18.2985768249349
0.00908316548544153,18.3033293269607
0.00970864452793566,18.3080232678738
0.010392208065987,18.3126569909816
0.0111559033726512,18.3173099772735
0.0120160560041197,18.3219920774083
0.0129930562638551,18.3267150382564
0.0141157749554023,18.3315074311591
0.0154302019325842,18.3364353738481
0.0170274559310434,18.3416690188147
0.0191904897927004,18.3478253165923
0.0209293833030158,18.3522680624129
0.0227672818395377,18.3567108082335
0.0243156294026107,18.3604365586622
0.0256057820178908,18.3637048261512
0.0266861291490773,18.3667688410286
0.0275477609928807,18.3697445604221
0.0281403887138358,18.3725826614154
0.0284645928910416,18.3754034078347
0.0284936699785572,18.3783572039487
0.028130436069591,18.3817451386816
0.0273509672251282,18.3852117250652
0.0262232632344021,18.3886783114488
0.0251235951032209,18.3914559504075
0.0240474749494642,18.3939060394309
0.0229732823943145,18.3962075597935
0.0218986633055455,18.398430419774
0.0208263100012448,18.4006105065121
0.0197598648452213,18.4027704454192
0.0187029964755727,18.404926281555
0.0176591643474282,18.4070903245651
0.016631557056009,18.4092726082484
0.0156230843733825,18.4114817297587
0.0146363825637354,18.4137253838481
0.0136738271149512,18.4160107207943
0.0127375442942083,18.418344610363
0.0118294189762097,18.4207338572514
0.0109511100948341,18.4231853632956
0.0101040533395185,18.4257063058491
0.00928947776672902,18.4283042733519
0.00850840902727226,18.430987444471
0.00774481327225447,18.4338302174122
0.00699721833451295,18.4368699960929
0.00626943830965865,18.4401305114626
0.005565424138609,18.4436394562584
0.00488929984934802,18.4474289167719
0.00424529758153067,18.4515362673603
0.00363764953442814,18.4560054451603
0.00307041747670927,18.4608890217797
0.00254723403906011,18.466252084512
0.00207103768942612,18.4721788642587
0.00164396031551806,18.4787822933066
0.00127864894774693,18.4859651579972
0.000988642441557801,18.4937393942851
0.000798332167100636,18.5008794230203
0.000630453217422584,18.5093134940484
0.000499810317133188,18.5183325994723
0.000398576077578028,18.5283325994723
0.000331225728673483,18.5383325994723
0.000288254583443928,18.5483325994723
0.000262733491878746,18.5583325994723
0.000249764930327858,18.5683325994723
0.000246041571088805,18.5783325994723
0.000249434453344252,18.5883325994723
0.000258658816953453,18.5983325994723
0.00027304356796092,18.6083325994723
0.00029239544520035,18.6183325994723
0.000316937417554023,18.6283325994723
0.000347307047108029,18.6383325994723
0.000384613575537133,18.6483325994723
0.000430567924078787,18.6583325994723
0.000484265327434584,18.6677763530938
0.000545590798676322,18.6765125730336
0.000615397228340133,18.6845874031607
0.000694778330210063,18.6920509290237
0.000785014809582883,18.6989499211905
0.000887572037618109,18.7053278648856
0.00100411516469757,18.7112252228029
0.0011365321018703,18.7166796654472
0.00128696175170716,18.7217262690563
0.0014578257702815,18.7263976995112
0.00165186689983533,18.7307243871726
0.00187219311571616,18.7347346933452
0.0021223317180229,18.7384550663074
0.00240629376415985,18.7419101951864
0.00272865491474783,18.7451231681642
0.00309465724392609,18.7481156357956
0.00351034013888726,18.7509079831462
0.00398271463630806,18.7535195234284
0.00452000126176134,18.7559687265953
0.00513196664582226,18.7582735042522
0.00583042137375745,18.7604515952304
0.00660257255449313,18.7624561428937
0.00745562529594397,18.7643152285883
0.00840246586215872,18.7660613387514
0.00946244374948504,18.7677275383524
0.0106677291898295,18.7693529983825
0.0121027107794302,18.7710203956681
0.0140194339914147,18.7729355056882
0.015815120943416,18.7745153239299
0.0177739243449789,18.7760951421716
0.0195272104108407,18.7774462457933
0.0210546963051284,18.7786222433919
0.022423442997175,18.7797188734588
0.0236484636970495,18.780786913554
0.0247199286312264,18.7818642326649
0.0256104411168201,18.7829927490241
0.0262668967019886,18.7842389009983
0.0265647925184368,18.7857672326877
0.0262297179622473,18.7875435493996
0.0252707606281242,18.7893198661116
0.0241438563237298,18.7907622922136
0.0228730272231971,18.7921342136069
0.0214523516267474,18.7935318381986
0.0198896627810557,18.7949992956468
0.018191419712832,18.796574992051
0.0168372378481798,18.7978564745762
0.0155554874995344,18.7991379571014
0.0129894691783031,18.8019746223089
0.010687644742225,18.804939188191
0.00889552968258604,18.8076462435218
0.00746728545257245,18.8101606324021
0.00624689891660337,18.8126593015565
0.00517863844355847,18.8152132282849
0.00424068291315771,18.817847577332
0.00341650130532944,18.820585347389
0.00272982339455113,18.8232897369329
0.00217985340498448,18.8258410699944
0.00172942059326505,18.8282781408737
0.00135094223037124,18.8306480176944
0.00102486679229837,18.8329984163338
0.000737299498683093,18.8353774432959
0.000476086573379325,18.8378569256891
0.000220737406712778,18.8406556638412
3.90115469377636e-05,18.8429311931805
-0.000123207131821425,18.8452067225198
-0.000247157526767299,18.8471284758686
-0.00034887180840372,18.8488413160393
-0.000440503190868852,18.850501651848
-0.000528559753194422,18.8522128279756
-0.000618963972468336,18.8540990697724
-0.000722352467039088,18.856433229818
-0.000900525976927036,18.860957426974
-0.00104482237281511,18.8651727148397
-0.00115347697473694,18.8687494249464
-0.00125644000226169,18.8725485796615
-0.0013699674971206,18.8774173927606
-0.00146649996450823,18.882794846797
-0.00151396119447753,18.8875222198055
-0.00150912129194269,18.8917807504795
-0.0014448507781046,18.8955985369923
-0.00131434879001653,18.8990353931983
-0.00111023819263473,18.902162938681
-0.000823432340445916,18.9050518027348
-0.000443533082540778,18.9077556801699
4.18444004400681e-05,18.9103200433819
0.000652502528538161,18.9128030309658
0.00142264778153361,18.91527969106
0.00242593024721141,18.9178822205013
0.00382279764188367,18.9208371387416
0.0055608768825552,18.9238830488401
0.00698869702669556,18.9260409145713
0.00860622875513679,18.9281987803024
0.0101989555144749,18.93006977983
0.0118707935889898,18.9318002851868
0.0136339200986447,18.9334024371336
0.015540959497813,18.9349176963226
0.0176476957427034,18.9363749161031
0.019964234686979,18.9377646210895
0.0225444555795671,18.9391037454222
0.0254232541395447,18.9403936193508
0.0286367595458843,18.941635173769
0.0322346764061062,18.9428330842745
0.0362667857865299,18.9439896327365
0.0407895788199089,18.9451072857516
0.045874435502756,18.9461900485105
0.0516020314455477,18.9472412709607
0.0580685264642096,18.9482645599927
0.0653881705849187,18.9492635913176
0.0737044525995446,18.9502429190053
0.0831938506566443,18.9512073665745
0.0940800257741759,18.9521625066589
0.1066539688514,18.9531150647847
0.121306794655945,18.9540735600358
0.138588675694805,18.9550495249613
0.159110187273001,18.9560502151676
0.182892165741745,18.9570549981932
0.210580134364894,18.9580753473898
0.243055580968072,18.9591278325815
0.281657003114872,18.9602401173065
0.325484882525718,18.9613856574664
0.364338713925129,18.9623439598012
0.397165034880911,18.9631440109326
0.425731125190273,18.9638607946557
0.450682753405587,18.9645336707027
0.472064486225231,18.9651877932406
0.489535735287013,18.9658445317404
0.502319438875837,18.9665273192688
0.508886623527707,18.9672693522492
0.50632722573166,18.9680883018064
0.492612441258524,18.968923587847
0.466470696025957,18.9697903638098
0.426292239409125,18.9706996904001
0.370303359773318,18.9716607337621
0.328031182417836,18.9722731946601
0.28151778301674,18.9728856555582
0.239829551196841,18.9734036511705
0.203770483475455,18.9738417071951
0.171896756112279,18.9742301222137
0.143237538882276,18.9745874208579
0.117191466422131,18.9749252677782
0.0933358548977354,18.975252269794
0.0713187349075523,18.9755762014746
0.050765403279191,18.9759062982044
0.0310791760377674,18.9762587608966
0.0102982230149797,18.9766888617953
0.000394462377030238,18.9769246332153
-0.00850191735967298,18.9771604046353
-0.0149574695852175,18.9773499447937
-0.0208739292994899,18.9775411321193
-0.0267901966626818,18.9777536403281
-0.0324749456741003,18.9779840523226
-0.03778141054593,18.9782303241005
-0.0426289122168932,18.9784917885483
-0.0469761338328323,18.9787686935412
-0.050798598629376,18.9790619474138
-0.0540966264634425,18.9793742423986
-0.0568292421043067,18.9797021833008
-0.0590526750351771,18.9800520556994
-0.0607806851795828,18.9804269360735
-0.0620273217702072,18.9808305497084
-0.0628058337523149,18.9812674977774
-0.063127166592319,18.9817435193753
-0.062998293553993,18.9822658839512
-0.0624197434726696,18.9828442634272
-0.0613801539570243,18.983492627596
-0.0598527755345985,18.98422939449
-0.0577837312413023,18.9850825912691
-0.0550607716335954,18.9861010948318
-0.0513915723226868,18.9873981972171
-0.0473778133453637,18.9887849574182
-0.0435074503848309,18.9901259247343
-0.0398251460555849,18.9914255004459
-0.036352189029614,18.9926859758946
-0.0330990321537322,18.9939082274852
-0.0300696215538056,18.9950924114516
-0.0272634196899002,18.9962383346622
-0.0246765485774231,18.9973456494446
-0.0223025675883303,18.998413953252
-0.0201330837929154,18.9994428344991
-0.0181582718755086,19.0004318861896
-0.0163673311501408,19.001380699012
-0.0147488885607046,19.0022888402821
-0.0131925214337442,19.0032165354705
-0.011697371192382,19.0041681877758
-0.0102675160771529,19.0051456947602
-0.00890682082214645,19.0061513006532
-0.00761893004529846,19.0071876493979
-0.0064072171001193,19.008257885486
-0.00527473072533387,19.0093657877607
-0.00422413916475381,19.0105159511315
-0.00325767141350165,19.0117140395221
-0.00237705466050137,19.0129671483497
-0.00158344599751737,19.014284342281
-0.000877354629395975,19.0156774873563
-0.000258547204287196,19.0171626079586
0.000274078966701714,19.0187622538302
0.000700011804407971,19.0204086785529
0.00103349195002749,19.0221098483025
0.00128994354752665,19.0238844265384
0.00148365396119499,19.0257563422555
0.00162822466659596,19.0277583101506
0.00173709523807772,19.0299382396622
0.00182441898843886,19.0323733822687
0.00190705648404041,19.0352087562205
0.0020118303974018,19.0388113614737
0.00213995193671862,19.0426039928509
0.00230643991,19.046743858723
0.00248557228950082,19.0506573369251
0.00267449083432051,19.0544719821796
0.00287129439911037,19.0582680121704
0.00307521102874124,19.062098138313
0.00328664446312205,19.066002475354
0.00350701332670154,19.0700151254219
0.00373856523371198,19.0741675427327
0.00398422739571593,19.0784906474189
0.00424752224443526,19.0830163311728
0.00453260451078303,19.08777887915
0.00484448482360936,19.0928163671974
0.00518952240264838,19.0981718778027
0.00554748745573449,19.1034737972897
0.00591990773272589,19.108709090624
0.00630848759908664,19.1138604111489
0.00671661813536947,19.1189289140501
0.00714846030007034,19.1239203495198
0.0076087849636736,19.1288422486071
0.00810274249782266,19.1337003699311
0.00863590043808127,19.1384984257594
0.00921430341581608,19.1432379754081
0.00984457750518739,19.1479187747124
0.0105340729805412,19.1525394522898
0.0113084242345488,19.1571978043851
0.0121815199340609,19.1618836099714
0.0131753151851382,19.1666138356688
0.014320347101242,19.1714201094168
0.0156666197891368,19.1763776580226
0.0173176801578167,19.1816855142056
0.0196349428660695,19.1881441649449
0.0213002030764628,19.1923337692342
0.0230410846147122,19.1965233735235
0.0245385211677071,19.200143439259
0.0257948093087099,19.2033678756549
0.0268440677715787,19.2064153505735
0.0276646663873223,19.2093620331346
0.0282178032487107,19.2121890927982
0.0285008673039689,19.2150180477187
0.028481032026537,19.2180089750646
0.0280390533875752,19.2215174359234
0.0272458695288184,19.2248126679088
0.0261460585211343,19.2281078998942
0.0250544529465714,19.2308361239344
0.0239793114547795,19.2332695121893
0.0229051864885157,19.2355626235724
0.02183078779096,19.2377804427198
0.0207589733179618,19.2399573846578
0.019693407457431,19.2421154052896
0.0186377509203535,19.2442701707062
0.0175954481726361,19.2464337467223
0.0165696713302277,19.2486159949613
0.0155633142410704,19.250825379443
0.0145789983132802,19.2530694825319
0.0136190845080017,19.2553553530646
0.0126856859856051,19.257689759254
0.0117806746521182,19.2600794000243
0.0109056949693301,19.2625310654746
0.0100621707959807,19.2650517974855
0.00925131573698629,19.2676490359998
0.00847414113662529,19.2703307766814
0.00771143218813835,19.2731838585361
0.00696500993315635,19.2762349882144
0.00623866116248861,19.2795082308692
0.00553635409517989,19.2830314802655
0.0048622290121549,19.2868370527351
0.00422052965638018,19.2909626015029
0.00361549109082791,19.2954524298653
0.00305116483690037,19.3003596412987
0.0025311596608142,19.3057501450758
0.00205838069468661,19.3117094830956
0.00163493739228587,19.3183524967245
0.00127412365789284,19.3255653996753
0.000980722416055204,19.3333760778735
0.00078879447859676,19.3405869796293
0.000625614089592272,19.3489047597638
0.000494388449921342,19.3581663732546
0.000396374171414528,19.3681663732546
0.000331643679995245,19.3781663732546
0.000291028725474288,19.3881663732546
0.000267887563662737,19.3981663732546
0.000257525611393744,19.4081663732546
0.000256792443827509,19.4181663732546
0.000263713697067802,19.4281663732546
0.000277187543879958,19.4381663732546
0.000296777282821636,19.4481663732546
0.000322601589480233,19.4581663732546
0.000355311376030696,19.4681663732546
0.00039614908789502,19.4781663732546
0.000447041966883323,19.4881550352728
0.000505859363266959,19.4974026032269
0.000573210053136246,19.5059386159374
0.000650084544312636,19.5138180567439
0.000737706611762438,19.5210926615185
0.000837505088654285,19.5278102476903
0.000951116192105898,19.5340150716055
0.0010804017891568,19.5397481566904
0.00122747546833485,19.5450475677948
0.00139473449040739,19.5499486465864
0.00158489646984073,19.5544842292131
0.00180104462355964,19.5586848506671
0.00204668088246124,19.5625789354987
0.00232579154708311,19.5661929770819
0.00264292856205083,19.5695517179343
0.00300331243124245,19.5726783372429
0.00341296656971717,19.5755946475318
0.00387889523593905,19.5783213125052
0.0044093291356759,19.580878106456
0.00501407640439593,19.5832842410805
0.00570504580780842,19.5855588106636
0.00647161392523366,19.5876578312713
0.00732053916018744,19.5896075970208
0.00826590650154851,19.5914436098271
0.00932957366361234,19.5932033347354
0.0105496813598787,19.5949340104273
0.0120256334512616,19.5967363833394
0.0141335847399195,19.5989423666202
0.0157300410885037,19.6004282201003
0.0174349451094824,19.6019140735803
0.0190085285804706,19.6032466218161
0.0204029531024479,19.6044420957798
0.0216527672826927,19.6055726113812
0.0227622814544923,19.6066837797354
0.0237166139207202,19.6078141015785
0.0244833450954455,19.6090103698885
0.0249992142330271,19.6103541683953
0.0250953871897697,19.6120842786042
0.0245901872511689,19.6138087458185
0.0235869247066111,19.6155332130328
0.022452105361403,19.6169851508563
0.0211828125157523,19.6183891224736
0.0197780349611244,19.6198238382409
0.0182465143403359,19.6213301086106
0.0165944959536784,19.6229460828976
0.0152688105753305,19.6242957294623
0.0128600075123802,19.6269969438598
0.0105911366886296,19.6299404638147
0.008805672881172,19.632648398844
0.00737780458951381,19.6351669160407
0.0061529921450474,19.6376750291073
0.00507889237847492,19.6402390506324
0.00413393751000204,19.642884118956
0.00333512334376093,19.6455134487862
0.00269129354480968,19.6479924111466
0.0021637291902604,19.650345945763
0.00172264308374306,19.652606892578
0.00134532912436783,19.6548145209984
0.00101359121305417,19.6570204282617
0.000710493628238058,19.6593086113458
0.000411322418425369,19.6618879975666
0.000186558593086905,19.6640856936503
-1.47169732649754e-05,19.6662833897341
-0.000167431991075007,19.6681204981877
-0.000292602201238104,19.6697505883458
-0.000405459568127586,19.6713269335355
-0.000514000219747018,19.6729473189224
-0.000625432764354162,19.6747264473325
-0.000752321578420081,19.6769068598777
-0.000971575350580024,19.6810994576143
-0.00115776060656978,19.6851292635508
-0.00130192059061265,19.6885774539322
-0.00144127601374045,19.6922101759966
-0.00160336682130269,19.6968620712065
-0.00177755194318447,19.7026055643815
-0.00189485318128288,19.7075593550539
-0.00195831110688872,19.7120457201956
-0.00195898107799281,19.7160666358503
-0.00188942495591006,19.7196732194881
-0.00174314643781461,19.7229267438179
-0.00151410345623448,19.7258889401755
-0.00119440855724455,19.7286296884498
-0.000771948858445744,19.7312189702048
-0.000225543721448812,19.7337357805423
0.000486794662431367,19.7362897690183
0.00148270461155743,19.7391330699431
0.00278825843392461,19.7421853407813
0.00448160767827011,19.7455444446268
0.00579010563644233,19.7478491742214
0.00723416057846564,19.7501539038159
0.00865528392404196,19.7521908880749
0.0100484239313994,19.7539737544399
0.0115197805670228,19.7556435241153
0.0131209283436008,19.7572409814244
0.0148689709165908,19.7587630216526
0.016814672982728,19.760233614223
0.0189762566540596,19.7616460156965
0.0213940675983704,19.7630084864755
0.0240943872436427,19.7643188250279
0.0271158694739189,19.7655805858586
0.030499468555904,19.7667963246026
0.0342903206194602,19.7679684003014
0.0385376995159829,19.7690988458696
0.0433062865988191,19.7701918494265
0.0486683372527138,19.7712507435518
0.0547093243957657,19.7722790205048
0.0615314221331818,19.7732803697188
0.0692571068579498,19.7742586076739
0.0780379634567472,19.7752181029434
0.0880617745167381,19.776163626897
0.0995661153814557,19.777100636487
0.112859145741957,19.7780356582426
0.128352891065293,19.7789768713024
0.146622139421722,19.7799352041966
0.168289337842869,19.7809168530782
0.19338502233079,19.7819021757499
0.222573388508097,19.7829018031532
0.25675127567559,19.7839310363996
0.297273025170157,19.7850158088278
0.34411043093297,19.7861527449608
0.383914964678708,19.7870666229442
0.417155468946266,19.7878243323149
0.446025077398682,19.7885055246468
0.471232649880687,19.7891490518683
0.492809044350364,19.7897798232291
0.510357548158639,19.7904200317527
0.522967810629963,19.7910961275069
0.528737020071528,19.7918506511349
0.524434349314221,19.7926561429421
0.50845722205242,19.7934857580457
0.479361955948279,19.794355198449
0.435315009975504,19.7952756079799
0.374325991217984,19.7962555085461
0.330733265285795,19.796852920226
0.283199585762261,19.7974503319059
0.240798141905143,19.7979566139597
0.204195125837324,19.798385949404
0.171887655180594,19.7987674578799
0.142871721530628,19.7991190639346
0.116523243977252,19.7994521586424
0.0924009335807354,19.7997752667866
0.0701324518115437,19.8000962813923
0.0493088374510273,19.8004249797679
0.0292335093366878,19.8007797528633
0.00717208418811371,19.8012352771894
-0.00119040022871029,19.8014344389316
-0.00880896926437001,19.8016336006737
-0.0151818252292535,19.801816586437
-0.021178327318668,19.8020059900085
-0.0271637813290976,19.8022162767642
-0.0329066161876138,19.8024440864366
-0.038262786492811,19.802687505732
-0.0431531280097873,19.8029459403378
-0.0475372188345688,19.8032196774436
-0.0513969412779993,19.8035096472687
-0.0549620270199031,19.8038429239588
-0.0576864593514925,19.8041693544692
-0.0598954938501638,19.804517526145
-0.0616063790966016,19.8048908899935
-0.0628335378608108,19.8052932566352
-0.0635903835079498,19.8057293383202
-0.0638878055664086,19.8062050310153
-0.0637324216505226,19.8067278337556
-0.0631238194339216,19.807307859516
-0.0620490109725937,19.8079595752135
-0.0604782104698646,19.8087024268719
-0.0583511976238261,19.8095665220104
-0.0555395328530983,19.8106060684075
-0.0516848102136918,19.8119566651737
-0.0476450269259063,19.8133431019001
-0.0437521306761974,19.8146852997837
-0.0400481779549216,19.8159871945295
-0.0365537652811676,19.8172507100523
-0.0332792096633934,19.8184765026283
-0.0302285508985128,19.8196645901894
-0.0274014352154673,19.8208146880089
-0.0247941912579149,19.8219263850463
-0.0224005729288809,19.822999233689
-0.0202123518454953,19.8240327901795
-0.018219828749712,19.8250266252935
-0.0164122880191568,19.8259803158718
-0.0147784015953489,19.8268934230295
-0.0132205156500855,19.8278181154062
-0.0117233240769138,19.8287666261976
-0.0102910445786844,19.8297407475905
-0.0089275696725148,19.8307426794683
-0.00763658115702479,19.8317750104869
-0.0064214986281315,19.8328408161057
-0.00528542689087659,19.8339437876076
-0.00423110105997571,19.8350884068572
-0.00326082916404822,19.8362801887937
-0.0023764315652519,19.8375260276083
-0.0015791756875781,19.8388347079677
-0.000869703060132442,19.8402176916271
-0.000247942819157438,19.8416903910888
0.000287000254904518,19.8432743707675
0.000717435255233458,19.8449152352792
0.00105317326249722,19.8466084504129
0.00130982306113769,19.8483725130326
0.00150168084584827,19.8502305104079
0.00164227159998514,19.852213787104
0.00174482166643543,19.8543677974942
0.00182301318235927,19.8567647943614
0.0018926018125161,19.8595371831075
0.00197681984920552,19.8630025962364
0.00208454123309144,19.8667717619603
0.00223009741154899,19.8709252487911
0.0024038708559036,19.8751639408952
0.00258195535846774,19.8791130950469
0.0027635627406255,19.8829369239286
0.0029488050034373,19.8867267244304
0.00313851579168155,19.8905397609363
0.00333422979769135,19.8944183253234
0.00353806560570715,19.8983975671706
0.00375261407759753,19.902509331546
0.00398087178410155,19.9067845452048
0.00422622836731069,19.9112548302591
0.00449254719224882,19.9159539063458
0.00478439979195325,19.9209190508023
0.00510751839018634,19.9261923266485
0.00545316160257288,19.9315698371231
0.00581003851296126,19.9368326740826
0.00618374109538757,19.9420283103735
0.00657574601967416,19.9471335113182
0.00699035840915809,19.9521600157503
0.00743190845785032,19.9571136517786
0.00790532774798099,19.9620015866115
0.00841588384279976,19.9668282671048
0.00896930648471081,19.9715961105535
0.00957185843379353,19.9763055038137
0.0102304679720129,19.9809554130687
0.0109614200346635,19.9855956983924
0.0117845739556167,19.9902681657202
0.0127176174269524,19.9949756599456
0.0138482272117027,20
