ecg,time
0.00909001680533849,15.0010243034465
0.00831859593312625,15.0037148699447
0.00756007012227363,15.0065850857906
0.00681829199551049,15.0096551729158
0.00609703901129604,15.0129495499916
0.00540029031796405,15.0164964059977
0.0047321856128027,15.0203284068242
0.00409694773459128,15.0244836588648
0.00349875969308888,15.0290071252196
0.00294157808963843,15.0339529825452
0.00242886987046259,15.0393889586117
0.001963364259379,15.0454035676743
0.00154699605986088,15.052115989306
0.00119415733624516,15.0593802452021
0.000900975956268096,15.0672542631755
0.000660855818757363,15.0758732435126
0.000467723375008564,15.0854156688184
0.000324595683080676,15.0954156688184
0.000227042057075437,15.1054156688184
0.000162814071203555,15.1154156688184
0.00011914864419138,15.1254156688184
8.89580648287892e-05,15.1354156688184
6.81576579667049e-05,15.1454156688184
5.4076087477812e-05,15.1554156688184
4.4779508833882e-05,15.1654156688184
3.8838077754655e-05,15.1754156688184
3.52225228423918e-05,15.1854156688184
3.32167603033409e-05,15.1954156688184
3.23332695452427e-05,15.2054156688184
3.22421541604564e-05,15.2154156688184
3.27195008453255e-05,15.2254156688184
3.36128810058976e-05,15.2354156688184
3.48189219803006e-05,15.2454156688184
3.62684685918753e-05,15.2554156688184
3.79164373475255e-05,15.2654156688184
3.97347257823763e-05,15.2754156688184
4.17072440259159e-05,15.2854156688184
4.38264706634408e-05,15.2954156688184
4.60911036800991e-05,15.3054156688184
4.85044878198969e-05,15.3154156688184
5.1073587174207e-05,15.3254156688184
5.38083414615682e-05,15.3354156688184
5.67212964538866e-05,15.3454156688184
5.98274356759976e-05,15.3554156688184
6.31441657816235e-05,15.3654156688184
6.66914256565103e-05,15.3754156688184
7.04919021096208e-05,15.3854156688184
7.45713448225531e-05,15.3954156688184
7.89589812405762e-05,15.4054156688184
8.368803917051e-05,15.4154156688184
8.87963917076666e-05,15.4254156688184
9.43273463977886e-05,15.4354156688184
0.000100330608919278,15.4454156688184
0.000106863461804227,15.4554156688184
0.000113992211740227,15.4654156688184
0.00012179397604155,15.4754156688184
0.000130358901644185,15.4854156688184
0.000139792940866875,15.4954156688184
0.000150221350667412,15.5054156688184
0.000161793141333411,15.5154156688184
0.00017468678415265,15.5254156688184
0.000189117607290327,15.5354156688184
0.000205347482943782,15.5454156688184
0.000223697665359929,15.5554156688184
0.00024456602431611,15.5654156688184
0.000268450507426017,15.5754156688184
0.000295981583568019,15.5854156688184
0.000327428483327681,15.5952536178763
0.000361149815175314,15.6043158196257
0.000397005075630772,15.6126423956848
0.000434939095318847,15.6202949075194
0.000474907409146954,15.6273306853653
0.000516856156523556,15.6338022626216
0.000560717416001536,15.6397578945617
0.000606407559803145,15.6452419550885
0.000653831242849545,15.6502951312273
0.000702884526359736,15.6549549362641
0.000753459397285564,15.659255846894
0.000805445140326513,15.6632296443782
0.000858737561954889,15.6669056260844
0.000913236767731372,15.6703108559311
0.000968858313641362,15.6734703821722
0.00102553706924164,15.6764074751827
0.00108323095894988,15.6791438469716
0.00114193471762283,15.6816999150469
0.00120168807919675,15.6840950721467
0.00126258925325911,15.686348042019
0.00132482120923548,15.68847733132
0.00138868720332924,15.6905018978522
0.00145467168874622,15.6924422353795
0.00152355960338742,15.6943223443861
0.00159669162379458,15.6961738721747
0.00167660723464826,15.6980466056343
0.00176924596737396,15.7000445459031
0.0018989108617121,15.7025726282505
0.00198645670466678,15.704126241615
0.00208076230634988,15.7056798549794
0.0021729106334173,15.7070909977024
0.00226611795939193,15.708422456051
0.00236654193975588,15.7097604952001
0.00248202892303846,15.7111890361756
0.00262814262626947,15.7128480479566
0.00286144549815026,15.7152062611191
0.00320420781952214,15.7181529833202
0.0035613461639411,15.7207217500876
0.00397963306081507,15.7232459185014
0.00446415249844982,15.7256852978821
0.00501267208080837,15.7279865847153
0.00563411747071529,15.7301627027137
0.00633763484589413,15.7322224226455
0.00713297889644431,15.7341727129262
0.00800044369813674,15.7359626869268
0.00894424512212888,15.737613856505
0.00997582224490206,15.7391548242383
0.0111112107155561,15.7406121717602
0.0123754238338948,15.7420143877587
0.0138489290357838,15.7434309979622
0.0156700418462063,15.7449470403655
0.0182255059306678,15.7467766790744
0.0202263289151814,15.7480503843279
0.0223723013567285,15.7493240895815
0.0243814700008818,15.7504752583721
0.0261745742696408,15.7515062700462
0.0278029274193758,15.7524822210656
0.0292792977849213,15.7534444008303
0.0305933283629726,15.7544280135861
0.0317164726128294,15.7554769711299
0.0325913642297375,15.7566708817605
0.033062248973441,15.7582628515296
0.0328236164987797,15.7597944805223
0.0320435417156409,15.761326109515
0.0310640837474107,15.7626410518638
0.029919748141318,15.76393841927
0.0286282383864075,15.7652889576692
0.0272145258019977,15.7667342292718
0.0257067818993499,15.7683179478118
0.0246192227574767,15.76953428508
0.0236433065140708,15.7707506223481
0.0222927967210574,15.7727814185296
0.0213118381998968,15.7747973642127
0.0206708969240645,15.7769416197723
0.020442919897876,15.7795207362553
0.0207887103602278,15.7821285476764
0.0216320664184327,15.7845955025253
0.0227420741106399,15.7866557569576
0.0239524044566068,15.7883242052661
0.0253539426433179,15.7898537164238
0.0269540058137076,15.7912715371115
0.028806734904864,15.7926240458771
0.0309431846666128,15.7939198017031
0.0333997127028604,15.7951654116195
0.0362155457437479,15.7963650038564
0.0394308741994628,15.7975206033859
0.0430929983548057,15.7986349282151
0.0472539214016496,15.799710151241
0.0519750265267432,15.800748978253
0.0573269463103887,15.8017540658316
0.0633932274015026,15.8027283383335
0.0702723104883855,15.80367479541
0.0780815863652592,15.8045966004058
0.0869617621184646,15.8054970584204
0.0970830146621944,15.8063796670069
0.108653047583817,15.8072481705292
0.121928024691204,15.8081066416379
0.1372277011185,15.8089595989201
0.154957270554891,15.8098121965929
0.17564120315863,15.810670571327
0.199983976856943,15.8115426369865
0.228740149314811,15.8124325842959
0.261990664857147,15.8133248570844
0.30057747303335,15.8142291848675
0.34574778337321,15.8151636538374
0.38697319084284,15.8159386544367
0.430699057159647,15.8167136550359
0.468468169784539,15.8173706246043
0.501196268096472,15.8179539669785
0.530069043006585,15.8185047976194
0.555329964418866,15.8190488754558
0.576668339647626,15.8196096062914
0.59317215053062,15.8202186776088
0.602556594299821,15.8209411125612
0.600289561190091,15.8216802577399
0.585388979041967,15.8224594540943
0.557239459707747,15.8232735559556
0.517629354361732,15.8240844601273
0.463343241479755,15.8249547815705
0.394643122691257,15.8258641072996
0.345775990640214,15.826437402957
0.293559252711982,15.8270106986144
0.247894993478462,15.8274945167152
0.208994464270727,15.8279041660987
0.174931085135275,15.8282686535423
0.144493246154042,15.8286055122077
0.116943911317539,15.828925884463
0.0917625096681321,15.8292383331014
0.0684969504609229,15.8295513183156
0.0466036428804059,15.8298766621473
0.0249352181144365,15.8302420120156
0.00718016335197565,15.8305896655214
-0.000896161705803748,15.8307684097108
-0.00829061615235729,15.8309471539003
-0.0147021993017319,15.831116702932
-0.0209381136193269,15.8312978655428
-0.027160229938471,15.831498926177
-0.0331306854393515,15.8317167109941
-0.0387039078849253,15.8319495056636
-0.04379926774339,15.832196803749
-0.0483753794727576,15.8324589192733
-0.0524148212169984,15.8327367765429
-0.0559150046879996,15.8330318140375
-0.0588825043861094,15.8333459608104
-0.0613293508068111,15.8336816655661
-0.0632669908843126,15.8340431757572
-0.064679065845343,15.8344278522226
-0.0656107220887699,15.8348450163793
-0.0660748595826109,15.8353004961334
-0.0660799106961023,15.8358016636216
-0.0656277089858503,15.8363581705479
-0.0647073991742878,15.8369845237934
-0.0632906417754076,15.8377000605021
-0.0613179146964879,15.8385349187278
-0.0586592054887226,15.8395439183462
-0.0549417173195617,15.8408674181223
-0.0508710054796323,15.8422767268106
-0.0469214169050661,15.8436436404623
-0.0431437094572627,15.8449721149977
-0.0395638233483343,15.8462638412354
-0.0361959110852789,15.8475192617551
-0.0330471719674856,15.8487381988831
-0.0301199825983938,15.8499201907753
-0.0274130294636668,15.8510646691049
-0.0249220532520666,15.8521710508022
-0.0226404344657254,15.8532387811015
-0.0205597060243174,15.8542673472897
-0.0186700206843745,15.8552562735979
-0.016960578651553,15.8562051030529
-0.0154200131253712,15.8571133695006
-0.0139446711335604,15.8580402708113
-0.0125324439549864,15.858991138963
-0.0111876053138307,15.8599678525717
-0.0099142409785735,15.860972644699
-0.00871626076596285,15.8620081471832
-0.00759735710170589,15.8630774909027
-0.00656096494289816,15.8641844387566
-0.00561022412641041,15.8653335662492
-0.00474794614804292,15.8665305127993
-0.00397658828748778,15.8677823417155
-0.00329823971847793,15.8690980739243
-0.00271462762726173,15.8704895132225
-0.00222715868466329,15.8719725906996
-0.00183702828085785,15.8735697067627
-0.00155875997394686,15.8752148716157
-0.00137947911114935,15.8769144434526
-0.00128569162229396,15.8786870351237
-0.00126560107808456,15.8805564328302
-0.00130900450908367,15.8825551238371
-0.0014074052792,15.8847306144153
-0.00155450681324918,15.8871593363429
-0.00174784821742374,15.8899842230608
-0.00199578510054685,15.8935638739053
-0.00223844283992526,15.8973514839137
-0.00246852921516832,15.901572773974
-0.00263406784010399,15.9054677081074
-0.00273921456065814,15.9090231590984
-0.00279367198511885,15.9124548355363
-0.00279739737104984,15.9159687826795
-0.00273720572557364,15.9198916559362
-0.00261081783402264,15.9238189220925
-0.00242792041157644,15.9276826734874
-0.00221283789355945,15.9312818414399
-0.00199240604216128,15.9344737430598
-0.00176335042008573,15.9374920146579
-0.00152452441807516,15.9404376313272
-0.00127561286627211,15.9433647475041
-0.00101647114274014,15.9463088468427
-0.000746944751976951,15.9492963718939
-0.000466798776978156,15.9523489840151
-0.00017567596473685,15.9554857983563
0.000126938931375782,15.9587247069353
0.000441764122607072,15.9620833200589
0.000769780935839919,15.9655797379915
0.00111231156455451,15.9692332412991
0.00147111657542431,15.9730649299745
0.00184852631584535,15.9770983867711
0.00224760381009442,15.9813602537857
0.00267230430337922,15.9858801369834
0.00310869126348428,15.9904893037752
0.0035360144563276,15.9949480359215
0.0039658566066927,15.999360423256
0.00440726316699437,16.0037967755147
0.00486825445699897,16.008308635407
0.00535697545541391,16.012938503391
0.00588250983134234,16.017724556906
0.0064483115897533,16.0226403234567
0.00703510992101686,16.0274690587628
0.00765496537722553,16.032270768642
0.00831055536629798,16.0370191478689
0.00900828762450057,16.0417120411841
0.00975474224902111,16.0463421848509
0.0105733239640786,16.0509897393813
0.0114798324110007,16.0556612760637
0.0124947162086351,16.0603692175826
0.0136466115837547,16.0651414684938
0.0149802640428455,16.0700403005286
0.0165814617838383,16.0752209865117
0.018698978063982,16.0812138192944
0.0205136557174549,16.0858275738019
0.0224391631762765,16.0904413283093
0.0240311238528863,16.0942273192354
0.0253492425566643,16.0975188781187
0.0264530750660931,16.1005930223085
0.027339676100891,16.1035812288081
0.0279550234877454,16.1064247720184
0.0283013719865105,16.1092440423904
0.0283544287023213,16.1121868480442
0.0280239162741605,16.1155391187693
0.0270224932578157,16.1198888004607
0.0261302565697732,16.1225788165059
0.0250762710149874,16.1252688325512
0.02400743807201,16.1277241603624
0.0229369781432006,16.1300324288423
0.0218655123526356,16.1322590924452
0.0207959314844404,16.1344408880502
0.0197319463088959,16.1366010097701
0.0186773031892066,16.1387557752292
0.017635534638356,16.140917616958
0.0166099054824715,16.1430965789475
0.0156033954900472,16.1453011997399
0.0146187115188505,16.147539041974
0.0136583005164562,16.1498170492938
0.0127243521505937,16.1521418252862
0.0118188216896956,16.1545198005754
0.0109434295512714,16.1569574161129
0.0100996737477881,16.1594612522971
0.00928883588325505,16.1620381630261
0.00851199264506333,16.1646953897007
0.00774984123867327,16.1675185776863
0.00700348191133031,16.1705361497509
0.0062766749587231,16.1737715381427
0.00557335400591597,16.1772519127514
0.00489762355196296,16.1810087360871
0.00425369419742574,16.1850786404826
0.00364577384888413,16.1895046926591
0.00307789448343134,16.1943384802591
0.00255368545198469,16.1996436522677
0.00207606936941938,16.2055027116405
0.00164717010572685,16.212026116327
0.00127808505487749,16.2191516566566
0.000970352798225155,16.2268590138249
0.000717318155706529,16.2352732593366
0.000512750378709542,16.2445605132131
0.000356138450473862,16.2545605132131
0.000247989849354845,16.2645605132131
0.00017696140589073,16.2745605132131
0.00012882917138546,16.2845605132131
9.55991328040256e-05,16.2945605132131
7.26751588889234e-05,16.3045605132131
5.70982230300063e-05,16.3145605132131
4.67533362374451e-05,16.3245605132131
4.00820590325247e-05,16.3345605132131
3.5959868573663e-05,16.3445605132131
3.36013833038426e-05,16.3545605132131
3.24703466112461e-05,16.3645605132131
3.22033994736798e-05,16.3745605132131
3.25538122844997e-05,16.3845605132131
3.33535084985021e-05,16.3945605132131
3.44882747528365e-05,16.4045605132131
3.58813848232063e-05,16.4145605132131
3.74824429960147e-05,16.4245605132131
3.92596057794975e-05,16.4345605132131
4.11941318037288e-05,16.4445605132131
4.327659645039e-05,16.4545605132131
4.55043015370374e-05,16.4645605132131
4.7879532943755e-05,16.4745605132131
5.0408413799837e-05,16.4845605132131
5.31001760464561e-05,16.4945605132131
5.59667296338704e-05,16.5045605132131
5.90224486372795e-05,16.5145605132131
6.22841212022064e-05,16.5245605132131
6.5771029443634e-05,16.5345605132131
6.95051392455803e-05,16.5445605132131
7.35113903528246e-05,16.5545605132132
7.78180855300226e-05,16.5645605132132
8.24573848122729e-05,16.5745605132132
8.74659177221832e-05,16.5845605132132
9.28855334418838e-05,16.5945605132132
9.8764216963149e-05,16.6045605132132
0.000105157208923016,16.6145605132132
0.000112128379047377,16.6245605132132
0.000119751919015323,16.6345605132132
0.000128114441681996,16.6445605132132
0.000137317602152462,16.6545605132132
0.000147481395344981,16.6645605132132
0.000158748339056832,16.6745605132132
0.000171288828066708,16.6845605132132
0.000185308053960703,16.6945605132132
0.000201055043318555,16.7045605132132
0.000218834599007134,16.7145605132132
0.000239023276164837,16.7245605132132
0.000262091052258506,16.7345605132132
0.000288631169973406,16.7445605132132
0.000319401932043813,16.7545605132132
0.000352582374954049,16.7638138273177
0.000387916137122908,16.7723170017362
0.000425338944749255,16.7801311536637
0.000464807014619481,16.7873148145193
0.000506270129302208,16.7939216705954
0.000549664027647388,16.8000009805224
0.000594909127990105,16.805598068152
0.000641911956450339,16.8107544960521
0.000690571262244234,16.8155085347067
0.00074077857121572,16.819895399409
0.000792424353635139,16.8239475013763
0.00084540236698649,16.8276947444727
0.000899610176298337,16.8311647147966
0.000954960742796314,16.8343829469054
0.00101138192799702,16.8373731260128
0.0010688255520366,16.8401573306991
0.00112727749956755,16.8427562747234
0.00118676374552519,16.8451895750314
0.00124736625511684,16.8474760858197
0.00130924539695289,16.8496343137705
0.00137266967540937,16.8516830259657
0.0014380693595788,16.8536421983813
0.00150613957849956,16.8555346945796
0.0015780466076973,16.8573896606634
0.00165592673110705,16.8592506722171
0.0017444474910379,16.8612012502373
0.00185905430157347,16.8635006787536
0.00195015572987505,16.8651703442051
0.00204874334249883,16.8668400096566
0.00214244506746225,16.8683100033761
0.00223464173801703,16.8696575595576
0.00233195047222902,16.8709848314965
0.00244128676615598,16.8723722902715
0.00257445063822642,16.8739309338384
0.00276448079668484,16.8759402606748
0.00309417405834911,16.8789399887132
0.00345189040525399,16.8816552297312
0.00384582822873438,16.8841614381779
0.00431272376565124,16.886644597661
0.00484122406933893,16.8889859540985
0.00543987018481584,16.8911983964839
0.00611785461460109,16.8932922652918
0.00688456692365793,16.8952744597522
0.00773039163062069,16.8971118833871
0.00864990263975425,16.898801615127
0.00965368006334723,16.9003733869401
0.010755396133669,16.9018529920823
0.0119774284443958,16.903268873056
0.0133738949548612,16.9046705496634
0.0150697149552565,16.9061456557581
0.0173152916878997,16.907831065582
0.0194635122251435,16.9092517687974
0.02181193323188,16.9106724720128
0.0239153241459025,16.911884023225
0.0257566435955257,16.9129381812011
0.0274225785869056,16.9139231233154
0.0289360171687211,16.9148854292241
0.0302912439935193,16.9158604189994
0.0314644047256931,16.9168883597167
0.0324074181796422,16.9180355999598
0.0330059582836054,16.919478038321
0.0329384518021265,16.9210934143658
0.0322272742438116,16.9227087904106
0.0312838924674492,16.9240451278086
0.0301729996076129,16.9253381261113
0.0289102853282002,16.926673842917
0.0275198549085303,16.9280959904125
0.0260291771277649,16.9296464945775
0.0250324939673275,16.9307356005005
0.024111102310165,16.9318247064236
0.022645083367325,16.9338728100348
0.0215643552708662,16.9358768255957
0.0208227612769855,16.937963741549
0.0204539020170312,16.9403591564857
0.0206234644874161,16.9430035000044
0.0213198908094943,16.9455133870618
0.022118059951004,16.9472619063952
0.023199816445745,16.9490104257287
0.0244909782333459,16.9506258723804
0.0259554053787829,16.9520940842473
0.0276557371170021,16.953488265361
0.0296152461364252,16.9548165545451
0.0318733238110867,16.9560917639146
0.0344673961429958,16.9573190542434
0.0374353994861386,16.9585008292005
0.0408215639379405,16.9596399489492
0.0446737154632222,16.9607384698072
0.0490481920211174,16.9617990390826
0.0540091972275193,16.962824185532
0.0596325401053215,16.9638167611361
0.0660070477830921,16.9647796754764
0.0732382939778985,16.9657160136341
0.0814521966870957,16.9666289827669
0.0908002992380931,16.9675219610713
0.101466499167812,16.9683985355683
0.113676134159267,16.9692625686532
0.127708372677622,16.9701182919883
0.143913620358216,16.9709704476176
0.162739124728674,16.9718245201571
0.18477078980804,16.9726872119011
0.210813899960931,16.9735675885003
0.241253958157809,16.974457564823
0.276489563295491,16.9753531241173
0.317483228756571,16.9762663783653
0.365785616900352,16.9772219658652
0.404379768995588,16.9779255569773
0.444566870419757,16.9786291480893
0.480255130566874,16.9792522310884
0.511573677169766,16.9798207443094
0.539203654097708,16.9803666589385
0.563170727346817,16.9809136782826
0.582984105504397,16.9814866603214
0.597416134770629,16.9821242767417
0.603132016767307,16.9828494207265
0.596958684744351,16.9835988544035
0.577676050179927,16.9843957089732
0.546169684276052,16.9851988135886
0.502309853836597,16.9860245136022
0.442934589172026,16.9869160558401
0.388026627332864,16.9876190201005
0.326964853576423,16.9883219843609
0.274766539858797,16.9888854190485
0.231826770109883,16.9893378938541
0.195015274001395,16.9897270953615
0.162496660794509,16.9900790297919
0.133274167973346,16.9904082350497
0.106717778723354,16.9907245049465
0.0823492723412252,16.9910360743688
0.0597055735653021,16.9913521463206
0.0381164081892305,16.9916880492064
0.0155733375308202,16.9920930051238
0.00400268911580336,16.9923325904472
-0.00364844504436035,16.9925074970932
-0.010656782007331,16.9926824037392
-0.0167749207518928,16.9928493768858
-0.0230351097252251,16.9930375220126
-0.0291946617981667,16.9932444625818
-0.0350445459879522,16.9934673890164
-0.0404645354231791,16.9937050449421
-0.0453893726558773,16.9939572314027
-0.0497870118266363,16.9942244831673
-0.0536457975102935,16.994507903063
-0.0569667178454335,16.9948090934466
-0.0597585165544623,16.9951301516497
-0.062033711143474,16.9954737147835
-0.0639033684443132,16.9958710661542
-0.0651183166513965,16.9962687718159
-0.0658572245938949,16.9967008503322
-0.0661326817339622,16.9971740343793
-0.0659507682607813,16.9976965290709
-0.0653089070045654,16.9982797629872
-0.064189929462921,16.9989398655706
-0.0625551893134123,16.9996997337784
-0.0603238855736345,17.000596932381
-0.057306384234939,17.0017072529354
-0.0531973014642006,17.0031484615063
-0.0491689088568005,17.0045389989452
-0.0452881702823981,17.0058891518415
-0.0415924081646715,17.0072018134127
-0.0381015968006331,17.0084780329404
-0.0348265368731246,17.0097179287238
-0.0317721831018486,17.0109211699885
-0.0289392270665033,17.0120872325422
-0.0263250184731011,17.0132155331327
-0.0239242242369951,17.0143054969738
-0.0217293766801136,17.0153565864658
-0.0197313649970592,17.0163683058912
-0.0179198856239159,17.017340190175
-0.016283852279307,17.0182717822385
-0.0147750932458791,17.0191855226657
-0.0133264633771694,17.0201225840723
-0.0119428433490446,17.0210843681302
-0.010628396449137,17.022072919297
-0.00938713768246776,17.023090632185
-0.00822288790035548,17.0241403403398
-0.00713923305566464,17.0252254290556
-0.00613948496504019,17.0263499867388
-0.00522664528385222,17.0275190125418
-0.004403375024883,17.0287387087665
-0.00367197315043435,17.0300169056633
-0.00303437003990643,17.0313637021202
-0.00249214633551585,17.0327924774191
-0.00204659808397627,17.0343215842487
-0.00170465221432808,17.0359441355141
-0.00147062386571401,17.0376104566775
-0.00132955025637215,17.0393388329053
-0.00126871570451425,17.0411496140123
-0.0012770061448719,17.043069797358
-0.00134492190144115,17.0451372547689
-0.00146481197654741,17.0474094314079
-0.00163169508646043,17.0499839758711
-0.00184613931564905,17.0530623050818
-0.00209895890828767,17.0567947737288
-0.00233646095444223,17.0607182435573
-0.00254544851598088,17.0649156997963
-0.00268427614434937,17.0686460734079
-0.00276778033055652,17.0721259021264
-0.0028017404059721,17.0755646486298
-0.00278176449664902,17.0791916578387
-0.00269056902715187,17.0832598908605
-0.0025395073701887,17.0871406268866
-0.0023322335239488,17.0910407359171
-0.0021153017960438,17.0944140151726
-0.00189127408180401,17.097510371995
-0.0016579196206687,17.1004875597328
-0.00141461081196595,17.1034196593469
-0.00116114663612443,17.1063506409545
-0.000897389887010506,17.1093112120559
-0.000623156260035026,17.1123253127895
-0.000338160868199463,17.1154132585241
-4.1980291677408e-05,17.1185934879493
0.000265984831037017,17.1218836626019
0.000586561873495578,17.125301522651
0.000920873639124786,17.1288656136137
0.00127042462526067,17.1325959513536
0.00163721063377335,17.1365146539499
0.00202386981205698,17.1406466389128
0.00243384266947302,17.1450199162016
0.00287153897587471,17.1496652111734
0.00330215653985439,17.154190463653
0.00372936929112539,17.1586177125617
0.00416341179405987,17.1630336417311
0.00461269015082101,17.1674984260624
0.00508516683033414,17.1720586926192
0.00558931377427418,17.1767545487405
0.00613490441873427,17.1816232110108
0.00670877078392029,17.1864922669936
0.00731015079956217,17.1913121722121
0.0079453719621802,17.1960902023246
0.00861919281342004,17.2008146006302
0.00933795713775032,17.2054798302341
0.0101136837980161,17.2101078671916
0.0109700276135463,17.2147669635685
0.0119224175023119,17.2194524152339
0.0129948394790574,17.2241845391573
0.0142216086945983,17.2290027589986
0.0156607873106742,17.2339992148983
0.0174409994081949,17.2394274527917
0.0198947934551185,17.2459689049427
0.0215116039902617,17.2499148462665
0.0231767515081277,17.2538607875903
0.0246279088227028,17.257361964466
0.0258500765149726,17.2605348177838
0.0268647330082005,17.2635665290155
0.0276339978437056,17.2664771138141
0.0281356703960913,17.26929468057
0.0283624349754992,17.2721449742852
0.0282706778115022,17.2752090097425
0.0276917297629957,17.2789710526322
0.0268748549806878,17.2820481196398
0.0258039000460493,17.2851251866475
0.0247259522342643,17.2877693961041
0.0236554983185553,17.2901691961161
0.0225844259057506,17.2924454743574
0.0215131830235418,17.2946542716172
0.0204450173588644,17.2968268613839
0.0193836966703226,17.2989837026678
0.018332908447487,17.3011396100661
0.0172961027416075,17.3033061005276
0.0162764469043267,17.3054926554549
0.0152768335741443,17.3077074359153
0.0142998786786179,17.3099577766666
0.0133479445145947,17.3122504822232
0.0124231451195974,17.3145920735656
0.0115273526890804,17.3169889806314
0.0106622165204041,17.3194476682209
0.00982916233592685,17.3219747932195
0.00902940405528779,17.3245773209507
0.00825886380406099,17.3272812193043
0.00750151454584538,17.3301662357945
0.00676119979286824,17.3332529088905
0.00604171431996728,17.3365659269059
0.00534705115954947,17.3401338025916
0.00468135981548362,17.3439895877297
0.00404886530101592,17.3481718639879
0.00345374057517574,17.352726211708
0.00289991458863361,17.3577076721934
0.00239080356024587,17.3631853020577
0.00192907340383676,17.3692496274412
0.00151660380405508,17.3760226644693
0.00116874180309552,17.3833316739758
0.000880016425408503,17.391259513243
0.000643848682608974,17.3999447441559
0.00045422158317529,17.4095699800111
0.00031513525065901,17.4195699800111
0.000220759281493933,17.4295699800111
0.000158572192013406,17.4395699800111
0.000116247716403369,17.4495699800111
8.6969708716503e-05,17.4595699800111
6.68069712035777e-05,17.4695699800111
5.31745404406908e-05,17.4795699800111
4.41929396701249e-05,17.4895699800111
3.84709065633187e-05,17.4995699800111
3.50077491654946e-05,17.5095699800111
3.31081834582394e-05,17.5195699800111
3.22993236695468e-05,17.5295699800111
3.22613258824568e-05,17.5395699800111
3.27771331186994e-05,17.5495699800111
3.36990201182705e-05,17.5595699800111
3.49268734719741e-05,17.5695699800111
3.63938151493753e-05,17.5795699800111
3.80563605009725e-05,17.5895699800111
3.98875342912489e-05,17.5995699800111
4.18720470575908e-05,17.6095699800111
4.40029535754079e-05,17.6195699800111
4.62793763826662e-05,17.6295699800111
4.87049842445771e-05,17.6395699800111
5.12870007428845e-05,17.6495699800111
5.40355861555695e-05,17.6595699800111
5.69634864516084e-05,17.6695699800111
6.00858788914939e-05,17.6795699800111
6.34203682956717e-05,17.6895699800111
6.69871052223136e-05,17.6995699800111
7.08090098043066e-05,17.7095699800111
7.49120946171054e-05,17.7195699800111
7.93258878557406e-05,17.7295699800111
8.40839651372726e-05,17.7395699800111
8.9224605112261e-05,17.7495699800111
9.47915914152378e-05,17.7595699800111
0.000100835191982742,17.7695699800111
0.000107413357187218,17.7795699800111
0.000114593191531306,17.7895699800111
0.000122452771083085,17.7995699800111
0.000131083402151109,17.8095699800111
0.000140592448371982,17.8195699800111
0.000151106896998079,17.8295699800111
0.000162777896018112,17.8395699800111
0.000175786579750475,17.8495699800111
0.000190351623809042,17.8595699800111
0.00020673914959909,17.8695699800111
0.000225275863354614,17.8795699800111
0.000246366712831705,17.8895699800111
0.000270518954506201,17.8995699800111
0.00029837547744322,17.9095699800111
0.000330003007399268,17.9193449211055
0.00036389310213809,17.9283468707374
0.000399912668326901,17.9366182200588
0.000438007942079234,17.9442202014925
0.000478133904850482,17.9512097510618
0.000520235491536299,17.9576390423299
0.000564243573163808,17.9635560189579
0.00061007326279006,17.9690047544463
0.000657628692106424,17.9740256669636
0.000706805102951992,17.9786560288195
0.000757494630133082,17.9829300878548
0.000809586390375195,17.9868794275762
0.000862976598179291,17.990533156666
0.000917566609149267,17.9939181758543
0.000973272686096239,17.9970593826387
0.00103003184088132,17.9999799179874
0.00108780438348612,18.0027013813094
0.0011465877885744,18.0052440993146
0.00120642618200657,18.007627398513
0.00126742356970591,18.0098699666958
0.00132977037777296,18.011990318496
0.00139378144663734,18.0140074852778
0.00145995992812382,18.0159421481652
0.00152912229627449,18.0178187157469
0.00160267138134661,18.0196697428785
0.00168329602487405,18.0215473411507
0.00177744418767495,18.0235637324641
0.00191397619986895,18.0261987968991
0.0020008481854731,18.0277216116813
0.00209432238378734,18.0292444264635
0.00218618551126617,18.0306368408524
0.00228004947954342,18.0319643777571
0.00238208137338996,18.0333098459501
0.00250071355757199,18.0347605485162
0.00265381585126629,18.0364746090508
0.0029177590396733,18.0390795980374
0.00326840612879301,18.0419988535514
0.00363336626727562,18.0445402117866
0.00407298033001061,18.0471023130994
0.00457004888930538,18.0495137642107
0.00513262910948171,18.0517886903269
0.00576999951425482,18.0539406131093
0.00649131592932514,18.0559775078626
0.00730285230738394,18.0578983231138
0.00818503912214997,18.0596577775095
0.00914567661025614,18.0612845956029
0.0101967257075628,18.0628064069062
0.0113558970334019,18.0642502897723
0.0126503709717892,18.0656450846266
0.0141805836992498,18.0670746358408
0.0160996282679801,18.0686259496121
0.018962897619015,18.0706094023684
0.0209478547859274,18.0718373936119
0.0230502005180937,18.0730653848554
0.0249786725199551,18.0741669611872
0.026715117974106,18.0751745638985
0.0282945674502393,18.0761421896378
0.029720695424301,18.0771073105291
0.03097743033932,18.0781062504626
0.0320291273128151,18.0791899331522
0.0328014608538455,18.0804645969487
0.0330174191479039,18.0824186014857
0.0325493509327093,18.0837991717476
0.0316973198391536,18.0851797420094
0.0306583713104423,18.0864705555149
0.0294569632434037,18.0877817054581
0.0281168555475285,18.0891628307467
0.0266645687665763,18.0906538886286
0.0251298061065808,18.0923033621297
0.0235814945380023,18.0941875995358
0.0222557161203236,18.0962009671283
0.0212841974913421,18.0982238862747
0.0206558835122049,18.100377358796
0.0204469921001662,18.1029611553899
0.0208107317585239,18.1055638557867
0.0216693856242013,18.10802651315
0.0227771480238086,18.110059354048
0.023998672432296,18.1117297583774
0.0254008254462172,18.1132491061781
0.0270051468215878,18.1146622524621
0.0288687461625526,18.1160150540974
0.0310123868341161,18.1173080370281
0.0334819532274117,18.1185535745743
0.0363085398588,18.1197513936503
0.0395380912811208,18.1209061092527
0.0432144484455862,18.1220190703071
0.0473922792777739,18.123093258165
0.0521316727433791,18.1241309586936
0.0575046750668609,18.1251350867898
0.0635945665272382,18.1261084357632
0.0705007849704073,18.1270540910278
0.078341066362957,18.127975176566
0.0872571394609954,18.1288750289203
0.0974200859061342,18.1297571387966
0.109039026235791,18.1306252678448
0.12237178238062,18.1314834954756
0.137740444879542,18.1323363600921
0.155553281797503,18.1331890376421
0.176339270192868,18.1340477059913
0.20081001065841,18.1349203562207
0.229694278898457,18.1358102676303
0.263095352959958,18.1367027400408
0.301863402008349,18.1376076603397
0.347264992352458,18.1385435296112
0.388217859456521,18.1393114824247
0.431590654942574,18.1400794352382
0.469207738596148,18.1407338118841
0.501845176716986,18.1413161029308
0.530641310063631,18.1418665492086
0.555824205531107,18.1424107278956
0.577072427788803,18.1429720994036
0.593457167813941,18.1435826928904
0.60262456644397,18.1443052128068
0.600128299079058,18.1450449001127
0.584972575322208,18.1458250820091
0.556633845219684,18.1466382023986
0.516788079251205,18.1474498242791
0.462210302361284,18.1483214161387
0.393349475082539,18.1492301580597
0.344632312512402,18.1498005670754
0.292623357470383,18.1503709760912
0.247121086179484,18.1508529036903
0.208326973364304,18.1512614786667
0.174339532327504,18.1516253243085
0.143960682800882,18.1519617902252
0.116459324913566,18.1522819426605
0.0913173311985184,18.152594321069
0.0680826421169817,18.152907408255
0.0462074568846719,18.1532331483106
0.0245192900857566,18.1535998242381
0.00599047555149025,18.153965288302
-0.00215748536795098,18.154148020334
-0.0095977722852642,18.154330752366
-0.0158543470153058,18.1544990894952
-0.0221091289295612,18.1546842322083
-0.0282994672330639,18.1548886174538
-0.0342044270159463,18.1551092908456
-0.0396931227313129,18.1553448023221
-0.0446938229967591,18.1555948218672
-0.0491705412267284,18.1558597891639
-0.0531091860042451,18.1561407292046
-0.0565092355532124,18.1564391720751
-0.0593785217216492,18.1567571402016
-0.0617297831674423,18.1570971862718
-0.0636518401963118,18.1574831907571
-0.0649476830701772,18.1578754862867
-0.0657655302464603,18.1583013157231
-0.0661183473116091,18.158767069656
-0.0660132332904499,18.1592805966993
-0.0654495428796107,18.1598525639312
-0.0644128112335863,18.1604983859502
-0.0628689481363929,18.1612393850271
-0.0607467890352021,18.1621097589856
-0.0578849731020904,18.1631753490217
-0.0537703589696165,18.1646261161988
-0.0497258414093978,18.1660226334245
-0.0458214861970101,18.167378169557
-0.042098271087715,18.1686959643218
-0.0385779017352663,18.1699772499227
-0.035272187132353,18.1712222355726
-0.0321867756651798,18.172430632271
-0.0293228881124343,18.1736019316189
-0.0266782970636467,18.1747355526991
-0.0242480095273302,18.1758309166625
-0.0220248255921006,18.1768874796773
-0.0199998362434799,18.1779047403322
-0.0181628791270669,18.1788822302594
-0.0165029543498161,18.1798194928797
-0.0149860577863577,18.1807300161271
-0.0135285316646648,18.1816637119957
-0.0121354143189516,18.1826218643748
-0.0108108862720705,18.1836064739919
-0.00955898676164514,18.1846198805497
-0.00838356671334775,18.1856648490618
-0.00728824789120498,18.1867446782266
-0.00627638334879404,18.1878633454155
-0.00535102082458976,18.1890257048882
-0.0045148712963275,18.1902377658169
-0.00377028599160863,18.1915070942747
-0.00311924725684198,18.1928434160265
-0.00256338285916122,18.1942595616434
-0.00210402257959383,18.1957730336097
-0.00174564111940731,18.1973907811842
-0.00149749943801047,18.1990497764307
-0.00134422276820112,18.2007683667765
-0.00127286683331107,18.2025661783453
-0.00127209527784826,18.2044690895722
-0.00133217576502407,18.2065130712726
-0.00144516938818563,18.2087520046569
-0.00160562695111004,18.211275738032
-0.00181296707821905,18.2142631719152
-0.00206813458894519,18.2179988347054
-0.00230687740621629,18.2218695261596
-0.00252565183682253,18.2261434453313
-0.00267164661758178,18.2299190160643
-0.00276090436458562,18.2334160388083
-0.0028004564901992,18.2368493878694
-0.0027871748341495,18.2404396928583
-0.00270238307559536,18.2445468242043
-0.00255676227191499,18.2484392559413
-0.00235514191784322,18.2523278004375
-0.00213885256032089,18.2557454977837
-0.00191574243581605,18.2588615618118
-0.00168343265981086,18.2618471798923
-0.00144120396114211,18.2647816863182
-0.00118883536244643,18.2677111599049
-0.000926189966749952,18.2706673277085
-0.000653091629675984,18.2736746692143
-0.000369268096075596,18.2767537896383
-7.43124695395526e-05,18.2799232691713
0.000232353497495836,18.2832008086541
0.000551529799280838,18.2866041037469
0.000884303754930873,18.290151580733
0.00123213420746759,18.2938630673143
0.0015969577521314,18.2977604239308
0.00198133565364396,18.3018682389781
0.00238861471640058,18.3062141977039
0.00282309221799655,18.310828774744
0.00325481422302612,18.3153716177097
0.00368184866113081,18.3198048207851
0.00411470004412264,18.3242187008916
0.00456189961551897,18.3286756179416
0.00503140432716496,18.3332232520473
0.00553159188868132,18.3379022307368
0.00607205008243542,18.3427499583493
0.00664385882979082,18.3476306634963
0.00724154472302631,18.3524529007538
0.00787287321138387,18.3572369406754
0.00854207370521618,18.3619674005811
0.0092555063918331,18.3666395767727
0.0100230190215655,18.3712636550858
0.0108698167761817,18.3759205941871
0.0118103768189866,18.3806021822359
0.0128679308058613,18.385327708445
0.0140751710733586,18.390133132628
0.0154862914619032,18.3951018744209
0.0172165759309899,18.4004568327562
0.0196688148882404,18.4070757113182
0.0213153332622905,18.4111211240114
0.0230204232123419,18.4151665367046
0.0244986235269639,18.4187184092084
0.0257414750869703,18.4219138805919
0.0267761446571382,18.4249527983367
0.0275715932439064,18.4278786468381
0.0280989936120434,18.4307000855196
0.0283533198073187,18.4335408974135
0.0282960206980483,18.4365724084928
0.0277826142125761,18.4402164229672
0.0269789482672856,18.4433829808066
0.0258995945268465,18.446549538646
0.0248181594347044,18.4492300586281
0.0237473587255941,18.451645125527
0.0226763830024339,18.4539292930576
0.0216050426119473,18.4561424397027
0.0205364665590778,18.4583172268795
0.0194744106904737,18.4604747791396
0.018422579596979,18.4626302780204
0.0173844452911078,18.4647954659958
0.0163632002602396,18.4669799641026
0.0153617604743828,18.4691920254293
0.0143827645646916,18.4714390427469
0.013428598031844,18.4737278514655
0.0125013927399191,18.4760649965356
0.0116030428083318,18.4784569058092
0.0107352175308657,18.480910032276
0.00989935949297867,18.483431016889
0.00909670147518512,18.4860267908192
0.00832518476574577,18.4887158947931
0.00756653058646004,18.4915844871787
0.00682459256464087,18.4946527552439
0.00610314623112602,18.4979450882021
0.00540616920017018,18.5014896395643
0.00473780005778703,18.5053190330521
0.00410226135380096,18.5094713232195
0.00350373712837336,18.5139914060714
0.00294618695085761,18.5189333644126
0.00243308325251664,18.5243647823535
0.0019671622081558,18.5303739562416
0.00155036479741732,18.5370797569008
0.00119697588221067,18.5443391325916
0.000903301835977366,18.5522072831428
0.000662744636588341,18.5608190450819
0.000469224463585556,18.5703524547946
0.000325647489234868,18.5803524547946
0.000227740389021285,18.5903524547946
0.000163285448402057,18.6003524547946
0.000119470946889895,18.6103524547946
8.91789351818946e-05,18.6203524547946
6.83076566657532e-05,18.6303524547946
5.41761698168404e-05,18.6403524547946
4.48445875083885e-05,18.6503524547946
3.88787776686401e-05,18.6603524547946
3.52462921349569e-05,18.6703524547946
3.32287347249256e-05,18.6803524547946
3.23369577715802e-05,18.6903524547946
3.22399473196555e-05,18.7003524547946
3.2713027925268e-05,18.7103524547946
3.36032482347147e-05,18.7203524547946
3.48068733611267e-05,18.7303524547946
3.62544950692213e-05,18.7403524547946
3.79008522023862e-05,18.7503524547946
3.97177170555855e-05,18.7603524547946
4.16889108497154e-05,18.7703524547946
4.38068481899188e-05,18.7803524547946
4.60701799432983e-05,18.7903524547946
4.84822149186539e-05,18.8003524547946
5.10498884549565e-05,18.8103524547946
5.37831158575431e-05,18.8203524547946
5.66944207626529e-05,18.8303524547946
5.97987652946069e-05,18.8403524547946
6.31135342343658e-05,18.8503524547946
6.6658643118076e-05,18.8603524547946
7.04567530278649e-05,18.8703524547946
7.45335846673485e-05,18.8803524547946
7.89183323394501e-05,18.8903524547946
8.36441855309447e-05,18.9003524547946
8.87489726641234e-05,18.9103524547946
9.4275948852921e-05,18.9203524547946
0.000100274757867212,18.9303524547946
0.000106802608721846,18.9403524547946
0.000113925720300637,18.9503524547946
0.000121721104429621,18.9603524547946
0.000130278780519409,18.9703524547947
0.000139704545698274,18.9803524547947
0.000150123466721655,18.9903524547947
0.000161684318975311,19.0003524547947
0.000174565281233466,19.0103524547947
0.000188981314125757,19.0203524547947
0.000205193823520545,19.0303524547947
0.000223523465639736,19.0403524547947
0.00024436733431331,19.0503524547947
0.000268222357265576,19.0603524547947
0.000295717643531613,19.0703524547947
0.000327144507038405,19.0801973729086
0.000360847081933856,19.0892662394096
0.000396684056460933,19.097598924702
0.000434600102290957,19.1052570265901
0.000474550812714024,19.1122979188541
0.000516482462053986,19.118774174685
0.000560327260888189,19.1247340838062
0.00060600172117331,19.1302220532086
0.000653410556069467,19.1352787997541
0.000702449918408975,19.1399418632564
0.000753011777426339,19.1442457457791
0.000804985443056726,19.1482222503713
0.000858266669219941,19.1519006953046
0.000912755435617636,19.1553081625135
0.000968367218246019,19.1584697169571
0.00102503664518249,19.1614086433265
0.0010827213922064,19.1641466661353
0.00114141588910725,19.1667042129681
0.00120115938242289,19.1691006839883
0.00126204946081662,19.1713548070446
0.00132426827683666,19.1734850881115
0.00138811782161682,19.1755104772318
0.00145408051734494,19.1774514481474
0.00152293790800164,19.1793319576928
0.00159602400391015,19.1811835564723
0.00167586245484724,19.1830557859842
0.00176834012309081,19.1850517977913
0.00189732683707966,19.187569405282
0.00198494021336924,19.189126238364
0.00207932958497201,19.1906830714461
0.00217151596058788,19.1920963287094
0.00226466112871941,19.1934282944322
0.00236492572004142,19.1947656566838
0.00248010169156349,19.1961920505073
0.00262554043966848,19.1978457856692
0.00285622505554404,19.2001829072235
0.00319826833716122,19.2031323001706
0.00355491656757974,19.2057051913905
0.00397131967416443,19.2082259044702
0.00445472541154946,19.2106678424973
0.00500199543733712,19.2129715389534
0.00562202245318186,19.2151498581694
0.00632395327693451,19.2172116521515
0.00711751469163012,19.2191638711897
0.00798363026127856,19.2209566881147
0.00892590822446472,19.2226101557432
0.00995572935047083,19.2241529409979
0.0110889825832628,19.2256115840711
0.0123504987601262,19.2270145533765
0.0138190105905193,19.2284300994474
0.0156317486073971,19.2299432509704
0.0181640607906494,19.2317616871734
0.0201641303679998,19.2330382403382
0.0223114730102729,19.234314793503
0.0243282626432184,19.235470863092
0.0261265820053014,19.2365042366681
0.0277592515509501,19.2374811041438
0.0292399535715415,19.2384431955479
0.0305588465437529,19.2394256842824
0.0316879512209916,19.240471995388
0.0325711013770921,19.2416599600565
0.0330586128566502,19.2432311814074
0.0328360116769595,19.2447848844769
0.0320525493140909,19.2463385875465
0.0310722840400324,19.2476573121302
0.0299287519845,19.2489548474589
0.0286381384169457,19.2503048989621
0.0272251620064352,19.2517493709293
0.0257179429241699,19.2533319359238
0.0246358705162809,19.2545407820192
0.023663661321337,19.2557496281147
0.0223080654992865,19.2577810696681
0.0213226420022087,19.2597963299803
0.0206771033727513,19.2619375977602
0.0204422087318205,19.2645083986593
0.0207800986637762,19.2671177853271
0.0216167598906581,19.2695866096151
0.0227261052574068,19.2716562831594
0.0239344911415095,19.2733279933149
0.0253334305564317,19.274859289776
0.0269305152306044,19.2762783706745
0.0287793295943502,19.2776315430168
0.0309117047481146,19.2789280842426
0.03336335099014,19.2801742568811
0.0361739949141776,19.2813744962392
0.0393834015127828,19.2825306589882
0.0430390165510486,19.2836455491275
0.047192593857806,19.2847212876088
0.0519054851139008,19.2857606037439
0.0572481036814223,19.2867661363683
0.0633038499796703,19.287740816512
0.0701709004044078,19.2886876366189
0.0779663785519267,19.2896097612459
0.0868306138337461,19.2905104911636
0.0969333359054165,19.2913933221033
0.108481653323119,19.2922619937901
0.121730971142609,19.2931205740129
0.137000029079191,19.2939735738456
0.154692644342066,19.2948261369954
0.175331306948129,19.2956843825646
0.199617348475804,19.2965561901942
0.228316674235276,19.2974461547653
0.261500395520026,19.2983383407462
0.300006857170923,19.2992424089038
0.345074842786983,19.3001762650286
0.386423859649654,19.3009544589663
0.430309757854565,19.301732652904
0.468146290771715,19.3023907756456
0.500914029748036,19.3029745808301
0.52982016453723,19.3035255813916
0.555114974154583,19.304069618007
0.576492430746418,19.3046300741112
0.593047727768036,19.3052384916982
0.602525590621916,19.3059607666835
0.600359900896339,19.3066996742825
0.585572026676604,19.307478436746
0.55750587916143,19.3082929859726
0.517999452326417,19.3091035779739
0.463841910773208,19.3099733376624
0.395214729202834,19.31088289819
0.346281105945399,19.3114574776863
0.293972107717045,19.3120320571826
0.248236048270134,19.3125167143818
0.209288453153647,19.3129268397124
0.175191543482038,19.3132916111337
0.144727680913038,19.3136286435857
0.11715718830108,19.3139491133351
0.0919584049025671,19.3142615936869
0.0686792104754503,19.3145745352244
0.0467778223296248,19.3148997073592
0.0251176093077856,19.3152644855604
0.00769606243600634,19.3156045377197
-0.000452038934373572,19.315783954556
-0.00791149809021276,19.3159633713923
-0.0143717203911242,19.316133369394
-0.0205997443547501,19.3163133463786
-0.0268294666686433,19.3165134244354
-0.0328179399043098,19.316730364452
-0.0384150821700489,19.3169623715439
-0.0435375321568635,19.3172088858524
-0.048142250374991,19.3174701838189
-0.052210796405809,19.3177471600896
-0.0557399497461474,19.3180412265572
-0.0587358985204181,19.3183542855098
-0.0612104524278857,19.3186887561224
-0.0631703292105025,19.3190476475767
-0.0646175711431799,19.3194329077686
-0.0655738889884246,19.319848278859
-0.0660620393834457,19.320301605171
-0.0660908034622379,19.3208001876284
-0.0656624424606427,19.3213535276508
-0.0647669195788563,19.321975848412
-0.063377010236232,19.3226861453471
-0.0614354111482059,19.3235137848206
-0.0588177563835993,19.3245116033392
-0.0551760100238741,19.3258112237721
-0.0511005596012096,19.3272232899383
-0.0471423681196821,19.3285924991396
-0.0433540216173964,19.3299231099141
-0.0397623965001904,19.331216915598
-0.0363821501892126,19.332474410206
-0.0332208082122939,19.3336954408035
-0.0302809869748681,19.3348795561382
-0.0275615616087709,19.3360261910382
-0.0250584243601374,19.3371347618588
-0.0227650762061533,19.3382047116907
-0.0206731425869094,19.3392355254523
-0.0187728431552044,19.3402267256769
-0.0170534217008313,19.3411778550063
-0.0155035341985074,19.342088448724
-0.0140248654433979,19.3430140425048
-0.0126090232642103,19.3439635361296
-0.0112603390203225,19.3449387611706
-0.00998290666588735,19.3459419312369
-0.0087806468801289,19.3469756536669
-0.00765726521055837,19.3480430285374
-0.00661621191066241,19.3491477794879
-0.00566064410712713,19.3502944311592
-0.00479339226726378,19.3514885557633
-0.00401693381682784,19.3527371256567
-0.00333337841799864,19.3540490350047
-0.00274447267089641,19.3554359043147
-0.00225163900500302,19.3569133868743
-0.0018560797633149,19.3585034350358
-0.0015717314691074,19.3601461340036
-0.00138721927125069,19.3618421548754
-0.0012889167964522,19.3636100355687
-0.00126493724937523,19.3654731817632
-0.00130498646355338,19.3674634597312
-0.00140046321225971,19.3696272605284
-0.00154492010612695,19.3720387390071
-0.00173558750339627,19.3748350583898
-0.00197970562958607,19.3783520232293
-0.00222345897629646,19.3821288594764
-0.00245450232076261,19.3863126152875
-0.00262469086972548,19.3902366999358
-0.00273359745871687,19.3938083286064
-0.00279146874383544,19.3972421925521
-0.00279893573098371,19.4007426148477
-0.00274417318268589,19.4046183015508
-0.0026222175112999,19.4085569964187
-0.00244349472867711,19.4124184432361
-0.00222841714531878,19.4160670711879
-0.00200848943898897,19.4192782138529
-0.00178010825271808,19.4223047029974
-0.00154199790968235,19.4252534061079
-0.00129381535700336,19.4281805195042
-0.00103541216363838,19.4311224417635
-0.000766637446788741,19.4341060869079
-0.000487263626258739,19.4371533695337
-0.000196943446007721,19.4402835359558
0.000104825722879984,19.4435145322587
0.000418745696108074,19.4468639617149
0.000745776562316201,19.4503498657488
0.0010872130559155,19.453991418507
0.00144478049683296,19.457809568815
0.00182076294738431,19.4618276965587
0.00221816566948498,19.4660722199583
0.00264087422749065,19.4705725489871
0.00307848776530617,19.4751979690387
0.00350603878432539,19.4796634353367
0.0039353888842831,19.4840764759529
0.00437571729965269,19.4885093083546
0.00483507356555037,19.4930144013086
0.00532156599027131,19.497634700989
0.00584418601666082,19.5024085770216
0.0064088092630062,19.5073314101369
0.00699345401011848,19.5121613704115
0.00761103907954809,19.5169665705489
0.00826393594774328,19.5217185003443
0.00895856255503404,19.5264155327999
0.00970140317531359,19.5310501403993
0.0105143752613661,19.5356952271456
0.0114142829317409,19.540365010191
0.0124209091588052,19.5450697612455
0.0135622051110874,19.5498361633771
0.0148813309015429,19.5547229673507
0.0164595423864826,19.5598750818461
0.0185226664359817,19.5657698766074
0.0203780553426423,19.570520339142
0.0223560615850856,19.5752708016767
0.0239675715599843,19.5790998745157
0.0252961641447679,19.5824065893508
0.0264090393594544,19.5854865698843
0.0273076109258872,19.5884840343295
0.0279343224598667,19.5913314349256
0.028292328752474,19.5941490802153
0.0283589177039035,19.5970826227295
0.0280487344875168,19.6004061392499
0.0270656694497929,19.6047681560367
0.0261776411542944,19.6074741604313
0.0251239413781286,19.610180164826
0.0240550018909878,19.6126446992594
0.0229846071784209,19.6149578532962
0.0219131353560722,19.6171872274621
0.0208433935419219,19.6193704595879
0.0197790788949817,19.6215311628327
0.0187239434578467,19.6236858815678
0.0176815309891555,19.6258471826978
0.0166551192565839,19.6280251934448
0.0156476995833548,19.6302285082778
0.0146619916934144,19.6324647224873
0.0137004528693914,19.6347408034184
0.012765284611286,19.6370633638223
0.011858453210805,19.6394388362586
0.0109816875562204,19.6418736628166
0.0101364968007904,19.644374411043
0.00932417097533262,19.6469479230323
0.00854579641869687,19.6496014181227
0.00778304665630228,19.6524165016866
0.00703591491835813,19.6554250614987
0.00630816727392884,19.6586503298623
0.00560372885903817,19.6621193042141
0.00492669763397145,19.6658632422396
0.00428128129917778,19.6699185269833
0.00367169109301803,19.6743279060411
0.00310197127360522,19.6791425307816
0.00257577526821285,19.6844254030751
0.00209606028459956,19.6902580245711
0.00166498423651116,19.6967494014948
0.00129303408707702,19.7038515957167
0.000982735096982922,19.7115309260575
0.000727421244797867,19.7199107993923
0.00052083876439782,19.7291553187795
0.000361803628460005,19.7391553187795
0.0002517518175116,19.7491553187795
0.000179502616463832,19.7591553187795
0.000130568836129315,19.7691553187795
9.67934669040252e-05,19.7791553187795
7.34885331106261e-05,19.7891553187795
5.76433858252024e-05,19.7991553187795
4.71105296769143e-05,19.8091553187795
4.03084409269133e-05,19.8191553187795
3.60954969475854e-05,19.8291553187795
3.3673878627127e-05,19.8391553187795
3.24985855290737e-05,19.8491553187795
3.22002573093767e-05,19.8591553187795
3.2528073639319e-05,19.8691553187795
3.33111531232057e-05,19.8791553187795
3.44333396960748e-05,19.8891553187795
3.5816550836964e-05,19.8991553187795
3.74094397353467e-05,19.9091553187795
3.91794937498734e-05,19.9191553187795
4.11074979805145e-05,19.9291553187795
4.31836887521983e-05,19.9391553187795
4.54051200850265e-05,19.9491553187795
4.77738909404177e-05,19.9591553187795
5.02959770607137e-05,19.9691553187795
5.29804874141403e-05,19.9791553187795
5.58392224985496e-05,19.9891553187795
5.75146593514039e-05,19.9945776593898
5.92272514089552e-05,20
