ecg,time
0.000299197993395376,15.0013961724443
0.000317569192869199,15.0108915656734
0.0003433720058018,15.0203047057793
0.000375671501844926,15.0296047192127
0.000414098103539866,15.0387773597216
0.000458709936177367,15.0478107944283
0.000509888622400439,15.0566912160496
0.000568278002384404,15.0654037537833
0.000634754795389936,15.0739341219735
0.000710409988592433,15.0822686979285
0.000796545071491494,15.0903951758985
0.000894716688651459,15.0983066570054
0.00099571124628544,15.1052683861405
0.00109953585046395,15.111488058704
0.00121125479163422,15.1173578228935
0.00133636829038685,15.1231275255687
0.00148234772711775,15.1290094048847
0.00166168211035735,15.1352587781709
0.00188799645679347,15.1419724873878
0.00213957516437852,15.1482655285741
0.00242846935226782,15.1543758940298
0.00275662224105657,15.1602384854731
0.00313164304882936,15.1658908138139
0.00355805540829367,15.1713008135987
0.00402398732186137,15.1762794599007
0.00453139238488967,15.1808610201778
0.00510166210734255,15.1852116504379
0.00575393865260281,15.1893954941241
0.00646337253570148,15.1932128509566
0.00723092642186152,15.1966871485311
0.00805724295760502,15.1998448425355
0.00894497626224984,15.2027208433008
0.00989624629321022,15.2053453432089
0.0109146117454857,15.2077492204126
0.0120031874338731,15.2099580514479
0.013165428249724,15.2119946197804
0.0144481753254096,15.213939896079
0.0158667038706015,15.2158011814113
0.0174366664094536,15.2175832141166
0.0191761428493241,15.2192910810243
0.0211055715734039,15.2209296197794
0.0232475706008144,15.2225030524998
0.0256282754284838,15.2240157971473
0.0282776405004586,15.2254721791185
0.0312302248333122,15.2268764773754
0.0345256800495789,15.2282327687222
0.0382106517622553,15.2295453143778
0.0423402026766031,15.2308184891903
0.0469801426236471,15.2320568936379
0.0522100710133321,15.23326544698
0.0581283713477838,15.2344496684059
0.064859669214706,15.2356160191838
0.0725669530207498,15.2367724615765
0.0814732777106159,15.2379295198375
0.0919041781235679,15.2391023815304
0.104385768028364,15.2403159667898
0.118894431443068,15.2415388352164
0.135854500063404,15.2427872119121
0.156020793756572,15.2440973696887
0.175370269377625,15.2452365601296
0.196032180536049,15.2463757505705
0.214810525275381,15.2473791793945
0.231744034138707,15.2482890800025
0.24697617115028,15.2491433048515
0.260370843940117,15.2499622054245
0.27164273207272,15.2507586557549
0.280407581654136,15.2515423555721
0.286191423313941,15.2523219924386
0.288411042555225,15.2531070344861
0.286304095696575,15.2539105030527
0.278664835746664,15.2547590881767
0.26383129793198,15.2556680123097
0.241507733588041,15.2565954940072
0.221682570471592,15.2572496880272
0.198996989005595,15.2579038820471
0.17737960342814,15.2584758499371
0.157417560957303,15.258981061726
0.138829170389534,15.2594444317519
0.121442335521097,15.2598808718107
0.105150644841193,15.2603003073751
0.0898670202496423,15.2607105518408
0.0754990940597115,15.2611189703406
0.0619220762444502,15.2615342438917
0.0489132123632352,15.261970172654
0.0358673221519242,15.2624611947989
0.0261097591032007,15.2628792610542
0.0197867644157232,15.2631825991822
0.0140729945179392,15.2634859373102
0.00925174493036269,15.263769718794
0.0048398100177797,15.2640581807453
0.000586666449960389,15.264370062017
-0.00340626415524795,15.2647028742793
-0.0070780914041583,15.2650554484761
-0.0103979066848443,15.2654278783108
-0.0133525514489601,15.2658211174647
-0.0159396318915404,15.2662367739368
-0.0181593520105849,15.2666770228025
-0.0204144339269449,15.2672779192619
-0.0217027156065808,15.2677663294424
-0.0226471713935163,15.2682875627851
-0.0232641813036077,15.2688476120984
-0.0235656217474731,15.269452154011
-0.0235619309501035,15.2701093115739
-0.0232599852848754,15.2708287026651
-0.0226601343204638,15.2716218630865
-0.0218568963727578,15.272405956573
-0.0206587431060865,15.2733795445819
-0.019110532189115,15.2744958354899
-0.0171975060066853,15.2757855674776
-0.0153331566893535,15.2770106110517
-0.0135636766886015,15.2781776911981
-0.0119087684578639,15.2792930003274
-0.0103772632274917,15.2803602015033
-0.00897167429392093,15.2813814835952
-0.00769055096847891,15.2823581599298
-0.00652989032477869,15.2832909850416
-0.00543153265726179,15.2842264340054
-0.00437721671962284,15.285184689899
-0.00337203271506444,15.286167646583
-0.00242062927889655,15.2871776545638
-0.00152740538162065,15.2882174267047
-0.000696482121047292,15.2892901419066
6.83283767669647e-05,15.2903995777414
0.000763556657096157,15.2915502877583
0.00138611011349654,15.2927478454798
0.00193330515084262,15.2939991908663
0.00240289391047214,15.2953131400738
0.00279308000835004,15.2967011675755
0.0031025128947507,15.2981786692849
0.00333023876634191,15.2997671394904
0.00347102627978428,15.3014205512368
0.00353375643087331,15.3031254539072
0.00353092722192574,15.304901080985
0.00347380713361117,15.3067709182351
0.00337269419095796,15.3087667672628
0.00323701670741183,15.310934695458
0.00307530656059013,15.3133479523024
0.00289477554198608,15.3161410026698
0.00269895948657469,15.3196379160539
0.00253352972327154,15.3234393352132
0.00242717474005406,15.3267606854241
0.00235550394741521,15.329796925629
0.00230525303854756,15.3326294693819
0.00226852369492061,15.3352901456572
0.00224034304825874,15.3377983730215
0.00221765569400398,15.3401708278048
0.00219869038156267,15.3424243220769
0.00218252261785217,15.3445771113846
0.00216878392993265,15.3466503239758
0.00215749233509194,15.3486704967071
0.00214899864371063,15.35067536134
0.00214411180117122,15.3527300002368
0.0021448382070778,15.3549918593279
0.00215324650829151,15.3570977239799
0.00217134315203163,15.3592035886318
0.00219451976210026,15.3608918938532
0.00222236725573958,15.3623733698016
0.00225681517622944,15.363802730501
0.00230082560556752,15.365270049324
0.00236017264883108,15.3668780671384
0.00244988348634998,15.36883978801
0.0026497938379058,15.3721620902575
0.00290343363859556,15.3753470634662
0.00317512229824234,15.3781089039388
0.00351420245207403,15.3810212725814
0.00400012037676254,15.3845797383797
0.0045592096605855,15.3881274658282
0.00510064059122419,15.3912049198539
0.0056601641158744,15.3941269514632
0.00625426983413342,15.397013576335
0.00689191168224758,15.3999167170285
0.00758096771931372,15.4028689928777
0.00832864161719097,15.4058909572118
0.00914275390887876,15.4089992906433
0.0100336662853286,15.4122152259879
0.0110125916462532,15.4155594603192
0.0120904414977665,15.4190524622598
0.013276131869356,15.4227170640558
0.014572441124605,15.4265784923613
0.0159721287210921,15.4306650947525
0.0174624861433071,15.4350093317532
0.0190386841901855,15.4396485411012
0.0206793541252179,15.444626000579
0.0219014248407516,15.4486657202395
0.0227877075863623,15.4521015679467
0.0234478179060977,15.4554476673165
0.0238423023287065,15.4586855117119
0.0239589273363954,15.4619786513447
0.023740362419939,15.4655690494247
0.0229496982742872,15.4701943469248
0.021872727226165,15.4741956878823
0.0207004314705132,15.4777007658917
0.0195481446126062,15.480775153442
0.0183907922471013,15.4836812751596
0.017222522234691,15.4865291350104
0.0160450664923905,15.4893774458253
0.0148620054374091,15.4922671975816
0.0136774024209018,15.4952324808979
0.0124956919764078,15.4983047277388
0.0113217464436843,15.5015151197112
0.0101609107368134,15.5048964868377
0.00901875809290074,15.5084859502366
0.00790135694687306,15.512326377553
0.00681599089945264,15.5164661523429
0.00627703571208292,15.5187122007632
0.00608440630734289,15.5195512401021
0.00590213249442997,15.5203902794411
0.00550403885966274,15.5224768672585
0.00513378514508394,15.5247841076701
0.00477038108280107,15.5274301924317
0.00438224358689922,15.5306643877997
0.00394131084185167,15.5347815244509
0.00351518828143719,15.5391632642697
0.00309196311291373,15.5439369268954
0.00272601810397428,15.5485027866915
0.00242264291995352,15.5526977988148
0.00215718332360884,15.556758166558
0.00191046148531832,15.560923494076
0.00166027716128384,15.5655778666614
0.00142904793630256,15.570269290949
0.00121219098658878,15.5749682481109
0.00102247133825657,15.5792512790216
0.000857343684233175,15.583050282952
0.000701801236109643,15.5866427654239
0.000549068155889098,15.5901475480318
0.000395243848079536,15.5936280521923
0.000344708729865041,15.5947565555265
0.000298983066962805,15.5958850588607
0.000234550851719288,15.5983402355311
0.000204998630414221,15.6013876752446
0.000215074662662604,15.6048816213041
0.000255879920874492,15.6086095516692
0.000316104912034718,15.6124559839397
0.000390026234673413,15.6164389483761
0.000475622046556316,15.6205777323754
0.000572416552660824,15.6248922987796
0.000679771915239713,15.629403846809
0.000795743408841763,15.6341354227626
0.000916562320840066,15.6391126627771
0.00103671067675055,15.6443647222279
0.00114943411358222,15.6499254711406
0.00124748354866411,15.6558350026346
0.00132387657262196,15.6621414199519
0.00137255332144144,15.6689028078661
0.00138888655266469,15.6761893192763
0.00137008066417641,15.6840859022716
0.00131548382755056,15.6926964674728
0.00122680665251167,15.7021496816861
0.00111362261214315,15.7121496816861
0.00100361926016822,15.7212034770389
0.00090023214552439,15.7296810175042
0.000803204388960437,15.7379078110529
0.000712645152305196,15.7460461408197
0.000628183056119326,15.7542441622093
0.000547657963426074,15.762832474251
0.000471711412704018,15.771889356496
0.0004008518545767,15.7815004319618
0.000336998174638661,15.7915004319618
0.000282195741263619,15.8015004319618
0.000235336688865852,15.8115004319618
0.000195330699766006,15.8215004319618
0.000161160231084782,15.8315004319618
0.000131908112372108,15.8415004319618
0.000106767267781796,15.8515004319618
8.50395053356035e-05,15.8615004319618
6.61281144150262e-05,15.8715004319618
5.22947923579208e-05,15.8815004319618
4.94065765210687e-05,15.8915004319618
5.04137873820879e-05,15.9015004319618
5.26569591324309e-05,15.9115004319618
5.56936885008359e-05,15.9215004319618
5.96795534722754e-05,15.9315004319618
6.47265328838777e-05,15.9415004319618
7.08351816946858e-05,15.9515004319618
7.79886233122821e-05,15.9615004319618
8.62250725176014e-05,15.9715004319618
9.55566450112576e-05,15.9813818506447
0.000105441905378887,15.9904900639881
0.000115756603393296,15.9988596509027
0.000126434693089938,16.0065507367939
0.00013743702557492,16.0136200112139
0.000148730424730522,16.0201198794027
0.000160281236320406,16.0260987596803
0.000172052694229438,16.0316013792929
0.000184007574934891,16.0366690263484
0.000196109210817503,16.0413398084416
0.00020832303864281,16.0456488863307
0.000220616256318832,16.0496287065969
0.000232962458405929,16.0533092314547
0.000245336108559473,16.0567181641002
0.000257720089114109,16.0598811795535
0.000270103177857464,16.0628221602717
0.000282479445997445,16.0655634479367
0.000294854453798436,16.0681261232986
0.00030724406015326,16.0705303364424
0.000319675947999023,16.0727957287696
0.000332198128981487,16.0749420207193
0.000344885668736372,16.0769899197006
0.00035785374803132,16.0789626874701
0.000371289677127466,16.0808892212775
0.000385526519941938,16.0828111992881
0.000401255427560319,16.0848042268451
0.00042051782774915,16.087076663998
0.000437159244683541,16.0889043306452
0.000454940302775649,16.0907319972924
0.000471102462940879,16.0922909197499
0.000486517153990933,16.0936946593378
0.000502414455471099,16.0950640489941
0.000519868779558031,16.0964831723835
0.000540525654553658,16.0980583297232
0.000568549824633744,16.1000328219493
0.000626180205835127,16.1035976868429
0.000691754296058643,16.1070022989707
0.000761049230801333,16.110042088214
0.000849577793015586,16.1133453709534
0.000990342389311666,16.1177762080818
0.0011976830910716,16.123330282583
0.00141920370645387,16.128458623981
0.00165418550142019,16.1331206958399
0.00190910094345989,16.1373523392451
0.00219136177039783,16.1411972005947
0.00250837791707032,16.1446964817452
0.00286828092972048,16.1478940253336
0.0032724955542248,16.1507835919505
0.0037299331167176,16.1534290612312
0.00425538322302931,16.1559071457463
0.00487710465526261,16.1583209255657
0.0056503184475906,16.1608190198261
0.00662228852968985,16.1634856818355
0.00744950138176588,16.1655215078355
0.00832318928775439,16.1675573338354
0.00918495350655941,16.1695228982934
0.0101538098436837,16.1717329168948
0.0111385212815157,16.1739846781611
0.0121399593439935,16.1762364394274
0.0130384572431145,16.1781568390115
0.0139375085339874,16.1799317447551
0.0149134626525095,16.1816676139042
0.0159857898138004,16.183351695469
0.0172058055921532,16.1850191182095
0.0185797372170163,16.1866372639958
0.0201442148272241,16.1882169381391
0.021913326424951,16.1897442844869
0.023899598456814,16.1912100999043
0.0261307272213756,16.1926187339568
0.0286297953918443,16.1939701449451
0.0314220289316197,16.1952652291935
0.0345396838120008,16.1965071938805
0.0380216168180392,16.1976999792886
0.0419115065721227,16.1988470342528
0.0462600116908373,16.1999517986346
0.0511262064200179,16.2010177069724
0.0565796160960024,16.2020482461729
0.0627015883547076,16.2030468073825
0.0695882422701522,16.2040167924222
0.0773538727597716,16.2049616490866
0.0861360002802773,16.2058849803401
0.0961013199459114,16.2067905746796
0.107454428808099,16.207682523122
0.120449848686118,16.2085653519698
0.135409316609836,16.2094442126827
0.152747580958281,16.2103251695211
0.173013143553519,16.2112156801815
0.196960903185523,16.2121255915738
0.224918768953557,16.2130454501934
0.257255370060043,16.2139709767384
0.294821351879582,16.2149129163743
0.33886490339522,16.21589028688
0.379838504899253,16.2167171052556
0.423335406863832,16.2175439236312
0.46077723322368,16.2182414748376
0.493129456677562,16.2188580028064
0.521592625890662,16.2194371594509
0.546433170857034,16.2200057124807
0.567373978935381,16.2205868817997
0.583578081272639,16.2212099657885
0.593067620560284,16.2219297421335
0.591761219412318,16.2226863151246
0.578228622758314,16.2234765586612
0.550865649348457,16.2243210273039
0.510068442041274,16.2251865356041
0.454545049760397,16.2260928053557
0.38759385556558,16.2269919381441
0.342173838635962,16.2275354253274
0.293953395762963,16.2280789125107
0.251377893773761,16.2285443176682
0.21461971095716,16.228944998934
0.182165745125539,16.2293053442735
0.153026139235908,16.2296407163548
0.12656969071057,16.2299613631968
0.102329947505254,16.2302755451874
0.0798793148727634,16.2305918802682
0.0586616762815817,16.2309232680451
0.0373462611433484,16.2313032829969
0.0281913941326946,16.2314870776497
0.0197692516915183,16.2316708723026
0.011100228677188,16.231878660857
0.00438863278416381,16.2320559462287
-0.00164002319771426,16.2322306620397
-0.00776239238528726,16.2324270623189
-0.0137083916362305,16.2326414596683
-0.0193013679644391,16.2328714895354
-0.0244422141662075,16.2331162297413
-0.0290786532063721,16.2333757161076
-0.0331867920680181,16.233650665216
-0.0367602711891309,16.2339423384922
-0.0398036756647218,16.2342524929541
-0.0423266719043438,16.2345833910431
-0.0444590886284493,16.234964834516
-0.0459162844374746,16.2353451418111
-0.0468995131523633,16.2357564096599
-0.0474269097454996,16.2362043863408
-0.0475125912062109,16.2366959318825
-0.0471666510458758,16.2372399303387
-0.0463912749327467,16.2378493404235
-0.0451772197525178,16.2385416503971
-0.0434969880103965,16.2393428574109
-0.0412837627618588,16.2402974453369
-0.0383527701184819,16.2415038572163
-0.0348893260083921,16.2429239668086
-0.0316232818771054,16.2442979392404
-0.0285826698738809,16.2456319702255
-0.0257712182680122,16.2469284442337
-0.0231831208870494,16.2481881752354
-0.02080913225464,16.2494111891107
-0.0186135352115599,16.2505971369336
-0.0165733823214901,16.2517455134039
-0.0146893683117802,16.2528557706293
-0.0129596450986996,16.253927373537
-0.0113802949303773,16.2549598208485
-0.00994575631885822,16.2559526443847
-0.00864921830735442,16.2569053937473
-0.0074829835270818,16.257817610277
-0.00637681316676638,16.258742399667
-0.00532231650343794,16.2596910404794
-0.0043238529702723,16.2606653338515
-0.00338558814976207,16.2616674814163
-0.00251155845248581,16.2627000751375
-0.00170563021713479,16.2637661955323
-0.000971461094224321,16.2648695411155
-0.000312464825098304,16.2660146038152
0.000268217828540251,16.2672069124898
0.000767737855632933,16.2684533807352
0.00118353967022309,16.2697628207866
0.00151333363279446,16.2711467347472
0.00175501614775774,16.2726205967081
0.00190648804519196,16.2742060707344
0.00196458968313989,16.2758472425181
0.0019400193704936,16.2775410241869
0.0018441808573704,16.2793059132784
0.00168699512413129,16.2811650730345
0.0014768806996663,16.2831499747439
0.00122047555189223,16.2853063024788
0.00092180827722603,16.2877067772014
0.000579792662330737,16.29048497468
0.000178123625483383,16.2939629607172
-0.000213157899275178,16.2977335896753
-0.000591802485752535,16.3018941393263
-0.000979263641640778,16.3068461705947
-0.00129601676113354,16.311666174863
-0.00150909153022006,16.3156582401918
-0.00165451884302641,16.3192290848977
-0.00174639208573512,16.3226445916814
-0.00178633068451675,16.3261083860677
-0.00176449749835315,16.3299067114486
-0.00166974089334161,16.3338415162316
-0.00151151756667856,16.3376824125573
-0.00130601342364203,16.3413749352885
-0.00109141834193649,16.3445884794179
-0.000865509077813632,16.3476011843477
-0.000627515206670374,16.3505271635657
-0.000377378028381825,16.3534244702245
-0.00011508813834319,16.3563298170811
0.000159470338713192,16.3592697455718
0.000446561245859425,16.3622652709913
0.00074661986671699,16.3653342907398
0.00106026677231078,16.368492921989
0.00138831681708289,16.3717562453529
0.00173180768221836,16.3751388645858
0.00209204402364516,16.3786552963459
0.00247066566391456,16.3823202848069
0.00286974973117024,16.3861490871272
0.00329195706821168,16.3901577791881
0.00374074923452037,16.3943636305512
0.00422069725261044,16.3987855308246
0.00473791241965838,16.4034443924584
0.00530064825959649,16.4083634606089
0.00589293549671815,16.413343249228
0.00650050164113911,16.4182155163427
0.00713504006992371,16.4230312377882
0.00780148443962673,16.4277788220015
0.00850745095929073,16.4324618109658
0.00926072804115352,16.4370788058856
0.0100798443938706,16.4416816283731
0.0109860348958976,16.4463109722451
0.0119976175531734,16.450969308479
0.0131410386084503,16.4556778025193
0.014455693618965,16.4604830746133
0.0160125038369732,16.4655003897682
0.0179891833660891,16.4710805622698
0.020518030117636,16.4773569609732
0.0221189820288787,16.4810448410953
0.0237462127166307,16.4847327212174
0.0251636678498956,16.488047216519
0.0263618238711552,16.4911046597971
0.0273510132347314,16.4940645368887
0.0280734286531493,16.4968755841638
0.0285274572002169,16.4996272491668
0.0286995151255299,16.5024499698918
0.0285299358979556,16.5055551012563
0.0277473471746155,16.5096886720754
0.0269057879985867,16.5124768851199
0.0258618211834028,16.5152650981643
0.0247999450671288,16.5177493265173
0.0237369518308649,16.520048022026
0.0226709505459141,16.5222469098387
0.0216041072580994,16.5243903281742
0.0205400635712061,16.5265046900875
0.0194826431181056,16.5286079239965
0.0184354842961295,16.5307133438923
0.017401948643186,16.5328315138633
0.0163851065998474,16.5349712766481
0.0153877452541735,16.5371403802582
0.0144123864048024,16.5393458801789
0.0134612975156671,16.5415944360103
0.0125365095172689,16.5438925186411
0.0116398278556717,16.5462465862859
0.0107728401647351,16.5486632430781
0.00993693191035941,16.5511493621842
0.00913329287391571,16.5537122278614
0.00834916791900202,16.5564088772818
0.00757812661234783,16.5592891124779
0.00682399414831691,16.5623747547845
0.00609071421516128,16.565691520178
0.00538246186610131,16.5692692255375
0.0047035956113572,16.5731426286521
0.00405859004036405,16.5773524585983
0.00345190343437591,16.5819470151202
0.00288774180506774,16.5869851507601
0.00236978361405988,16.5925413689213
0.00190086259583835,16.5987152913853
0.00149212819526095,16.6054728088387
0.00114920372799822,16.6127423984124
0.000865128900608978,16.6206290517715
0.000633372535814599,16.6292709986607
0.000448095007939782,16.6388498338145
0.000312340351118583,16.6488498338145
0.000217946616729914,16.6588498338145
0.000152402109046878,16.6688498338145
0.000106985650338781,16.6788498338145
7.56138715287974e-05,16.6888498338145
5.40398761168646e-05,16.6988498338145
3.92966233814676e-05,16.7088498338145
2.93101237839033e-05,16.7188498338145
2.26303346875301e-05,16.7288498338145
1.82418565055253e-05,16.7388498338145
1.55373737436973e-05,16.7488498338145
1.4111216488767e-05,16.7588498338145
1.35353999011495e-05,16.7688498338145
1.3536912365451e-05,16.7788498338145
1.39474665673082e-05,16.7888498338145
1.46595189266589e-05,16.7988498338145
1.56003905246599e-05,16.8088498338145
1.67195992930631e-05,16.8188498338145
1.79825360679788e-05,16.8288498338145
1.9366489090572e-05,16.8388498338145
2.08575873881142e-05,16.8488498338145
2.24483927854211e-05,16.8588498338145
2.41361205889988e-05,16.8688498338145
2.592141691707e-05,16.8788498338145
2.78075640482155e-05,16.8888498338146
2.97999857664878e-05,16.8988498338146
3.19059569530831e-05,16.9088498338146
3.41344562286136e-05,16.9188498338146
3.64961252637818e-05,16.9288498338146
3.90033135182438e-05,16.9388498338146
4.16701963775977e-05,16.9488498338146
4.4512961043241e-05,16.9588498338146
4.75500597400943e-05,16.9688498338146
5.08025345625894e-05,16.9788498338146
5.42944229600982e-05,16.9888498338146
5.80532578190322e-05,16.9988498338146
6.21106817496532e-05,17.0088498338146
6.65032020476544e-05,17.0188498338146
7.12731215217208e-05,17.0288498338146
7.64696918072493e-05,17.0388498338146
8.21505510857034e-05,17.0488498338146
8.83835289450779e-05,17.0588498338146
9.52489298365165e-05,17.0688498338146
0.000102842446728687,17.0788498338146
0.000111278913420725,17.0888498338146
0.000120697185602735,17.0988498338146
0.00013126655963259,17.1088498338146
0.000143195313809284,17.1188498338146
0.000156742221278492,17.1288498338146
0.000172232288417408,17.1388498338146
0.000190078604414073,17.1488498338146
0.000210813195717919,17.1588498338146
0.000235131425439049,17.1688498338146
0.000263957238281861,17.1788498338146
0.000298541316733721,17.1888498338146
0.000340612711728199,17.1988498338146
0.000389017203259555,17.2082181737072
0.000444104521161051,17.2168902804047
0.000506755081494469,17.2249130551967
0.0005780032804647,17.2323344505029
0.000659027254192957,17.2391994093802
0.000751161185278882,17.2455499030508
0.000855913644665871,17.2514251140121
0.000974989189578359,17.2568616054459
0.00111031382626438,17.2618934674711
0.00126406216932744,17.2665524684545
0.00143869103408873,17.2708682095372
0.00163697622583595,17.274868276339
0.00186205786483373,17.278578374076
0.00211749204197425,17.2820224613417
0.0024073149651059,17.2852228915214
0.0027361219188586,17.28820055466
0.00310916441424162,17.2909750155776
0.00353247626020238,17.2935646647864
0.00401303838848497,17.2959868859576
0.00455900012480833,17.2982582425067
0.00517998876120302,17.3003947078134
0.00588714580896899,17.3024108950427
0.00666522912491764,17.3042593818315
0.00752158126033503,17.3059688439016
0.00846711965551787,17.3075672944615
0.00951737082124954,17.3090817039495
0.0106962408595994,17.3105410967745
0.0120700928722948,17.3120077074626
0.0137853484530573,17.3135867405984
0.0162587887302773,17.3155361159851
0.0181095600541295,17.3168334116955
0.0200839184709169,17.3181307074059
0.0219031025287449,17.3192932086772
0.0235261336900482,17.3203433829514
0.0249914092512114,17.3213429921499
0.0263035921592105,17.3223323021141
0.0274461316749503,17.3233472953354
0.0283823570344348,17.3244346312642
0.0290379871475068,17.3256825101833
0.0291863471347022,17.3273984848579
0.0286650882417659,17.3288898350191
0.0276588322974179,17.3303811851803
0.0264629282387548,17.3317075112062
0.0250860751703228,17.3330250534
0.0235333529188091,17.3343955910352
0.021812301685678,17.3358591728877
0.0199246667536076,17.3374588600775
0.018313993606182,17.3388628495128
0.0167983106783303,17.340266838948
0.0146958226938292,17.3423884661409
0.0128958643419805,17.3444108114132
0.0113657447470019,17.3463255085565
0.010056358463089,17.3481479550062
0.00892567640675377,17.3498955381622
0.0079379417388087,17.3515885394009
0.00706162686955633,17.3532533356106
0.00626608793994966,17.3549303183701
0.00551325721200198,17.3566993526739
0.00471445424984681,17.3588241300899
0.00422001995020181,17.3603017673157
0.00377075733187927,17.3617794045414
0.00340550892733583,17.3630952486466
0.0030948065874919,17.3643111898874
0.0028107848024348,17.3655143987403
0.00253586749491185,17.3667771975772
0.0022517066582192,17.3682029706509
0.00191933028689641,17.3700605435515
0.00145077938894955,17.3731379258637
0.00107733891854048,17.3761377732593
0.000777361422078064,17.3790752582961
0.000484876190447211,17.3826391131879
0.000214637591675621,17.3869587550272
-1.20621339413601e-06,17.3917644648292
-0.000159243435841768,17.397168260345
-0.000233220373831859,17.4021060834
-0.00023919717787558,17.4065618973034
-0.000184883909173465,17.4105788207577
-7.24287077044771e-05,17.4141887176409
9.58419493235531e-05,17.4173796748895
0.000320643847296323,17.4202187797669
0.000604619749344797,17.422767706419
0.000954068538610222,17.4250944836211
0.00138054267996824,17.4272688541186
0.00190737631464323,17.4293786159023
0.00259468472416726,17.4315844687226
0.00352122852020158,17.4340246747868
0.00430217964953676,17.4358279004792
0.00513796369285583,17.4376311261715
0.00597346412104677,17.4393770841603
0.00692094222056198,17.4413393354325
0.00793083812361372,17.443418756889
0.00896688624941444,17.4454981783455
0.00990896551530794,17.4472771912469
0.0108562933361336,17.4489105950699
0.0118959789920366,17.4505057798404
0.0130429067090592,17.452039812673
0.0143580153178436,17.4535520233728
0.0158531328847892,17.4550163433726
0.0175634844630947,17.4564368611923
0.0195181848701274,17.4578111885505
0.0217355802963575,17.4591313761592
0.0242475422912279,17.4603997632163
0.0270873710376043,17.4616181673392
0.0302910273771603,17.4627884070396
0.033898032196257,17.4639124156901
0.0379582125480436,17.4649937595934
0.0425274615395191,17.4660355083217
0.0476706148074873,17.4670407463102
0.0534632560179142,17.4680125562252
0.0599934771328555,17.4689539538346
0.0673655796365199,17.4698680499256
0.0757025460119542,17.4707579177324
0.0851506385092302,17.47162667147
0.0958849912929039,17.4724775056324
0.108116769036849,17.4733137349928
0.122102592892543,17.4741388499724
0.138157039896658,17.4749565867265
0.156670021062782,17.4757710434087
0.178134015028117,17.4765869482638
0.20319496860224,17.4774103374835
0.232771840638643,17.4782504335546
0.267316462279615,17.4791003381
0.307289295308941,17.4799572684985
0.353928282094167,17.4808378334804
0.396523708685427,17.4815672435463
0.44176549121077,17.4822966536122
0.480756594001522,17.4829130805603
0.514620285219718,17.483461332909
0.544628773041044,17.4839809445554
0.571047752341976,17.484496766351
0.593573767450392,17.4850322132809
0.61128141650802,17.4856210122441
0.621551843658724,17.4863159776302
0.61987722386282,17.4870316183987
0.605270467620968,17.4877925494513
0.579542062065294,17.4885363802407
0.543099596342407,17.4892924955284
0.492974054438276,17.4901127824314
0.42600785304361,17.4910164670655
0.371623282540432,17.4916585781562
0.312549364231744,17.492300689247
0.261913792631691,17.4928254995811
0.219903404007863,17.4932551515174
0.183680666117935,17.4936297109298
0.151587938367429,17.4939715367007
0.122697995102855,17.4942936556658
0.0964026921989452,17.4946053075493
0.0722159774692883,17.4949148413832
0.0496208019118877,17.4952326621803
0.0277218849849811,17.4955793125252
0.00894642613858172,17.4959215500108
-0.000954082062162193,17.496126035137
-0.00991129730179285,17.4963305202632
-0.0166864058937196,17.4965008917185
-0.0228898903842191,17.49667188426
-0.0291848726048089,17.496863901389
-0.0352984759383897,17.4970734126057
-0.0410533253818679,17.4972982077711
-0.0463491390115575,17.4975374392679
-0.0511324764105558,17.4977911734821
-0.0553784305232545,17.4980601342648
-0.0590797376771122,17.4983455775763
-0.0622400848787978,17.4986492478923
-0.0648698010133385,17.4989733913302
-0.0669829128966165,17.4993208158005
-0.0685949723750652,17.4996949991027
-0.069714853732249,17.5001002555104
-0.0703525464106991,17.5005505858402
-0.0704957785324758,17.501030867692
-0.0701750690632169,17.5015624733938
-0.0693838669814224,17.502158213905
-0.0680988836315675,17.5028355499726
-0.0662705899202298,17.5036202785117
-0.0637945508259845,17.5045566230397
-0.0604069924927535,17.5057427480094
-0.0561537863989835,17.5071748908925
-0.0519958722180277,17.5085611910096
-0.0479954085070562,17.5099085839709
-0.0441857509210161,17.5112193224628
-0.0405852452655626,17.5124941066634
-0.0372039976346278,17.5137328595882
-0.0340466701863622,17.5149351383269
-0.0311138445962176,17.5161003524515
-0.0284028459337186,17.5172278785096
-0.0259083565488065,17.5183171166656
-0.0236229429058471,17.5193675132679
-0.0215375373914234,17.5203785619534
-0.0196418849531271,17.5213497902414
-0.0179249526757976,17.5222807355385
-0.0163350736563768,17.5231947396251
-0.014803147736211,17.5241320839595
-0.0133338960385623,17.5250941813305
-0.0119312761283616,17.5260830798301
-0.0105990606285461,17.5271011789249
-0.0093407822354942,17.5281513184548
-0.00815968121316346,17.5292368918779
-0.00705865042081995,17.5303619982599
-0.00604017775467058,17.531531650844
-0.00510628541992248,17.5327520708972
-0.00425846471158926,17.5340311148117
-0.00349760366792108,17.5353789186431
-0.00282390251051928,17.5368089166772
-0.00223676670817789,17.5383395474042
-0.00174392824057014,17.5399625224344
-0.00135360151216405,17.5416295197948
-0.00104900837423026,17.5433588176401
-0.000815362644678168,17.5451708367348
-0.000638801951122595,17.5470926857386
-0.000505985471025262,17.5491624276444
-0.000403493810211767,17.551437870298
-0.000316712366590779,17.5540174696295
-0.000226835675540709,17.5571050462181
-0.00011334020304557,17.5608374002257
2.42173176928872e-05,17.5647661691813
0.0002057301119304,17.5692882603974
0.000423650383103074,17.5742687499596
0.000679254531206878,17.5799420864695
0.000997197179291511,17.5871381387918
0.00127273344024724,17.5935372470211
0.00155790644845668,17.6003832007921
0.00181343148284036,17.606679592437
0.00205546414366392,17.6127728328588
0.00225242169431079,17.617779728337
0.00242736102692742,17.6222496302202
0.00259474681247989,17.6265259119865
0.00276558237900834,17.630868775585
0.00295547042904188,17.6356457580039
0.00315515952477121,17.6405457330006
0.00336109453932871,17.6454261448938
0.00356481125248764,17.6500753598034
0.00375030116886147,17.654149741701
0.00393189515020111,17.6579953451855
0.00411618302072367,17.6617534096283
0.00430729228744779,17.6654986767048
0.00450861051282662,17.6692809969172
0.00472338307550992,17.6731389242536
0.00495500522393063,17.6771051879492
0.00520725143615437,17.6812101622653
0.00548447771128026,17.6854838160814
0.00579185588437594,17.6899570379578
0.00613571516777107,17.6946628581297
0.00652411036286425,17.6996377977623
0.00694881583033432,17.7047032959407
0.00739838931529765,17.709677413881
0.00787946424639685,17.7145973377668
0.00839427089771442,17.7194398757967
0.00894830064137861,17.7242080131255
0.00954777181709542,17.7289026378055
0.0102000550993975,17.7335262089927
0.0109204914624033,17.7381231127166
0.0117301960306698,17.7427447273149
0.0126462181349823,17.7473910584728
0.0136930592707744,17.7520807784482
0.0149061444446378,17.7568533558036
0.0163464458108128,17.7618043942342
0.0181539589584445,17.7672063495141
0.0206202315308876,17.7736051571886
0.0222247836952688,17.7774094937692
0.023876826023547,17.7812138303499
0.0253250215740017,17.7846112047672
0.026549007300975,17.7877039973653
0.0275661840670474,17.7906677579698
0.0283314767630278,17.793498359754
0.0288299895455923,17.7962441093944
0.0290533097455873,17.7990280983204
0.0289556944829151,17.8020298413429
0.028358926245868,17.8057453817655
0.0275418507800883,17.808715935686
0.0264761610119598,17.8116864896064
0.0254002348935846,17.8142507308131
0.02433017478116,17.8165811051603
0.0232587254033435,17.818791590619
0.0221864844503785,17.8209356946651
0.0211167033224909,17.8230433759172
0.0200531805106728,17.8251342200307
0.018999577142122,17.8272223778942
0.0179592718849852,17.8293188171902
0.0169353629894981,17.8314325206096
0.0159306660816599,17.8335711967409
0.0149477281552292,17.8357417245335
0.0139888357248876,17.8379504725747
0.0130560306648995,17.8402035177296
0.012151120231836,17.8425068240067
0.0112756832766867,17.8448664004747
0.0104310841507941,17.8472884225495
0.00961848000885259,17.8497793622687
0.00882250448675871,17.8524019498861
0.00803802178974639,17.8551996340381
0.00726873789322189,17.8581930732362
0.00651850657819091,17.8614065156107
0.0057914300458526,17.8648680383835
0.00509182275297863,17.8686103132496
0.00442416174584017,17.8726715097824
0.00379298296072805,17.877096610345
0.0032027066622355,17.8819395432763
0.00265736768513541,17.8872671212878
0.00216028841073782,17.8931663104897
0.00171565212210496,17.8997263525518
0.00134033338246645,17.9067607184056
0.00102726277893366,17.9143621986988
0.000771363907082137,17.9226543041922
0.000616687263662078,17.9297054805575
0.000464883269542226,17.9392064469991
0.000356001714914733,17.9489918647662
0.00027939468213789,17.9589918647662
0.000227878015671409,17.9689918647662
0.000194364045706032,17.9789918647662
0.000173709765647138,17.9889918647662
0.000162226912068968,17.9989918647662
0.000157354728972628,18.0089918647662
0.000157370304870764,18.0189918647662
0.000161144678918107,18.0289918647663
0.00016796149759453,18.0389918647663
0.000177395082453399,18.0489918647663
0.000189233471120034,18.0589918647663
0.000203431902573686,18.0689918647663
0.000220086846705125,18.0789918647663
0.000239425293161749,18.0889918647663
0.000261807215728248,18.0989918647663
0.000287741288993549,18.1089918647663
0.000317915841279088,18.1189918647663
0.000353249385557988,18.1289918647663
0.000394968569797645,18.1389918647663
0.000444727028461556,18.1489918647663
0.000504788209272258,18.1589918647663
0.000578312330996105,18.1689918647663
0.000664127937473039,18.1784238538573
0.000762011136555392,18.1871054683666
0.000873454612999841,18.1950918268571
0.00100028683044028,18.2024422809974
0.00114460933778573,18.2092117201156
0.00130881500516135,18.21545075632
0.00149562766690555,18.2212062046741
0.00170815334079703,18.226521470586
0.00194994610136128,18.231436831174
0.00222508126230706,18.2359897641083
0.00253826384998586,18.2402153181653
0.00289495936408227,18.2441464992691
0.00330157802059402,18.247814621261
0.00376572924156708,18.2512497826711
0.00429660643093051,18.2544815546374
0.00490559833157408,18.2575399424191
0.00560729835749476,18.2604569054973
0.00640318214212929,18.2632115687575
0.00731177441374532,18.2658518933807
0.00837972051848273,18.268478397676
0.0095610757995398,18.2709739151251
0.0108448562900174,18.2733626472328
0.0122108710243363,18.2756773458478
0.0134003237807219,18.2775997694174
0.0144141601427814,18.2792392059147
0.0153062610648175,18.2807459023481
0.0160879831329364,18.2821919491944
0.0167521316910119,18.2836251151076
0.0172795524335528,18.2850914560581
0.0176355469847139,18.2866528825249
0.0177506617084322,18.2884291535633
0.0175497617878889,18.2901897817632
0.0170960291875628,18.2918256738417
0.0164254557871137,18.2934427551576
0.0155278587514057,18.2951408399343
0.0145196117360401,18.2967814443928
0.0134346087916442,18.2983987902829
0.0122845585339037,18.3000356523782
0.0119425657216212,18.3005154034792
0.0116019311948466,18.3009951545803
0.0111380345782473,18.3016653049699
0.00964154043679883,18.3039896230887
0.00818413359560208,18.306554150559
0.00692266962885942,18.3091013649449
0.00581032494976458,18.3116955536514
0.00482760496903251,18.3143636545552
0.00396002559438518,18.3171297463948
0.00319609695997485,18.3200183263496
0.0025267747139494,18.32305592485
0.00194546524435631,18.3262726176185
0.0014485752078181,18.3297037595307
0.00103696914285895,18.3333922271009
0.000719295010033346,18.337391560416
0.000538884457449143,18.3411454610404
0.000479597013238785,18.3445338882716
0.000523272035609656,18.3476312552089
0.000662552001392869,18.3505000029886
0.000899332823583092,18.3532196971849
0.00124857795501893,18.3558957439401
0.00175658116118313,18.3587218934051
0.00245920226930709,18.3617410081834
0.00321922288294831,18.3644685098036
0.00407068118618034,18.3671960114239
0.00508707526782147,18.3701794069479
0.00586368714882377,18.3722784373691
0.00671567419493432,18.3743774677904
0.00760310143694319,18.3763202511725
0.00854786184149001,18.3781262741108
0.00959093281881807,18.3798466131956
0.010770534831514,18.3815107125703
0.0121129230742322,18.3831217756414
0.0136391795961597,18.3846765436165
0.0153751829044311,18.386177265363
0.017340839730734,18.3876207164278
0.0195610138707461,18.3890080625575
0.0220616077779811,18.3903403442548
0.0248732518270629,18.3916200765531
0.0280303490443682,18.3928498829205
0.0315738994884434,18.3940331242158
0.0355507794416644,18.3951730106493
0.0400165354185256,18.3962730515961
0.0450359342030322,18.3973366802336
0.0506851916942641,18.3983673468976
0.0570550468250919,18.3993686229812
0.0642537889372618,18.400344153358
0.0724120996445284,18.401297759097
0.0816897728844106,18.4022335599985
0.0922847152660426,18.403156086486
0.104446345071393,18.4040704855368
0.11849562740854,18.4049828153511
0.134856918082352,18.4059005316967
0.154111180143783,18.4068333040659
0.176980798676696,18.4077901907629
0.203441366160478,18.4087492464549
0.234162614508649,18.4097197852282
0.270036103761414,18.4107152664121
0.312396214968913,18.4117589974744
0.350846603875255,18.4126244881221
0.391464888270017,18.4134899787698
0.42691946715654,18.414232843777
0.457637750838559,18.4148927122786
0.484544929806905,18.4155114222932
0.507828015177932,18.4161157684687
0.527186139732688,18.4167285543866
0.54179961047591,18.4173767050515
0.549871209434447,18.4181047628147
0.547911967998302,18.4188881116444
0.534145253784107,18.4196977906245
0.507109081682861,18.4205518699627
0.464803402821873,18.4214640082625
0.405790851606944,18.4224303639735
0.357891263598147,18.4230891569958
0.30471493352906,18.423747950018
0.257915293371277,18.424291778752
0.218345106024984,18.4247400358758
0.183884449019897,18.4251310353682
0.153177611243313,18.4254871047983
0.125435698148067,18.4258214904499
0.100135305475424,18.4261434670838
0.0768648400896758,18.4264610110448
0.0552147007036504,18.4267831208333
0.0345844681086121,18.4271246879408
0.0132219339732959,18.4275317523785
0.00126793477164583,18.427794555932
-0.00622254619891691,18.4279771651946
-0.0130735096119902,18.4281597744571
-0.0190385503367485,18.4283339171631
-0.0251347027340884,18.428530253333
-0.0311033274646765,18.428745582025
-0.0367490549876088,18.4289771161844
-0.0419611782845147,18.4292236641008
-0.0466803719955815,18.4294850960815
-0.0508781298581233,18.429762018105
-0.0545447579989643,18.430055607543
-0.0576780998143137,18.430367547062
-0.0603679684419989,18.4307135064315
-0.0624094024210938,18.4310671930117
-0.0639528077540518,18.4314471592008
-0.0650139729341207,18.4318577407708
-0.0656057808949049,18.4323041032457
-0.0657378183758368,18.4327927590408
-0.0654144044945213,18.4333320830049
-0.0646304242176114,18.4339340303964
-0.0633662586922158,18.4346148623347
-0.0615804599350248,18.4353979319658
-0.0591882876433699,18.4363215847628
-0.0559923345881764,18.4374634521596
-0.0518428122148021,18.4388878686528
-0.0477976209062714,18.4402621690449
-0.0439174037577971,18.441594810096
-0.0402340793047967,18.4428888190452
-0.0367643171023362,18.4441453724816
-0.0335164204063348,18.4453647130682
-0.0304932483229266,18.4465466284996
-0.0276936804232753,18.4476907040806
-0.0251135124638716,18.448796454614
-0.0227461158520252,18.449863389585
-0.0205829882325303,18.4508910394665
-0.0186142415288061,18.4518789579225
-0.0168290412392734,18.4528267080119
-0.01521599905531,18.453733836844
-0.0136631019312667,18.4546616807966
-0.0121715482649467,18.4556135189742
-0.0107453956031312,18.4565912598442
-0.00938850688290647,18.4575971502803
-0.0081045265592254,18.4586338386989
-0.00689682959018566,18.4597044761565
-0.00576846823452727,18.4608128506938
-0.00472211650503999,18.4619635698829
-0.00376001199268878,18.4631623150699
-0.00288389423568784,18.4644162059149
-0.00209493788047365,18.465734341549
-0.00139367719946597,18.4671286385955
-0.000779915227132313,18.4686151990376
-0.00025260361916242,18.4702166991503
0.000167564167884515,18.471863561681
0.000495381126553424,18.4735654816804
0.000746161634204289,18.4753411318816
0.000934084582559498,18.4772145395828
0.00107261569220919,18.4792185843892
0.00117500828245441,18.481401477582
0.00125512987747949,18.4838410974649
0.00132933139548755,18.4866840859686
0.00142326921025657,18.4903041434714
0.00153884626936016,18.4940994064608
0.00169451059249423,18.4983452564881
0.00186645975080846,18.5024429848571
0.00204208342249861,18.5063170463039
0.00222055458207473,18.5101005299725
0.00240179391296294,18.5138699141426
0.00258645956711503,18.51767599987
0.00277587328935581,18.5215578301279
0.00297188535506611,18.5255487918147
0.00317675041348615,18.5296798115489
0.00339304274853134,18.533981430754
0.00362362186827649,18.5384852594759
0.00387169147346359,18.543225348265
0.00414100720661293,18.5482396402328
0.00443629054424564,18.553571213197
0.00476145718176172,18.5592267418529
0.00508908936775755,18.5646704671673
0.00543028003553349,18.5700548800763
0.00578425048246966,18.5753202446583
0.00615570534412186,18.5804935004742
0.00654825447433435,18.5855802569079
0.00696619882983054,18.5905916694775
0.0074138897684817,18.5955342398547
0.0078959898678782,18.6004123765118
0.00841752635351866,18.6052280721579
0.00898402864749834,18.6099815371788
0.00960163237939588,18.614671481204
0.0102771883860761,18.6192955391447
0.0110287348545063,18.6239113025526
0.0118754098458938,18.6285509834111
0.0128356964013147,18.6332185217467
0.0139362431180808,18.6379364606551
0.0152177420830318,18.6427561809165
0.0167556680674297,18.6478061300013
0.0187501818957909,18.653493531081
0.0206744129808094,18.6583604124422
0.0222934021705134,18.662175480003
0.0239541769269783,18.6659905475638
0.0253839681160181,18.6693527709188
0.0265913630116052,18.6724272504372
0.0275919961644282,18.6753859841992
0.0283354498198983,18.6782055298346
0.0288121417155031,18.6809505169258
0.0290114816360408,18.6837463718716
0.0288824689776197,18.6867834956126
0.0282167750692254,18.6906362155275
0.027388145086572,18.6935316217283
0.0263297469521786,18.696427027929
0.0252578861248907,18.6989586127598
0.0241891798879401,18.7012753505746
0.0231185580696425,18.7034796620342
0.0220471947519189,18.7056214879341
0.0209784539030316,18.7077294495327
0.0199160712003164,18.7098225221312
0.0188636568818003,18.7119145542897
0.0178245625297362,18.7140163794507
0.0168018527624642,18.7161369527722
0.0157983088068615,18.7182840289003
0.0148164390976504,18.720464604596
0.0138584952873611,18.7226852194475
0.0129264823609701,18.7249521903752
0.0120221708912946,18.7272717939713
0.0111471103057858,18.7296504176802
0.0103026333877779,18.7320947207084
0.00948987339972584,18.7346117582621
0.0086955574617576,18.7372583248149
0.00791311757504662,18.7400828640418
0.00714630635180893,18.7431063978716
0.00639900128028256,18.7463536893297
0.0056753253470016,18.7498534220545
0.00497961096390588,18.7536389671142
0.0043163434443824,18.7577493166121
0.0036900562410519,18.7622303956673
0.00310514010052042,18.7671373089988
0.00256556641667516,18.7725384214082
0.00207455502465121,18.7785229110878
0.00163832868944535,18.7851452403185
0.00127024406363416,18.7922534639654
0.000975659310491318,18.7999438197649
0.000772038305874337,18.8072955658804
0.000591099255914659,18.8160617602885
0.000451889879251179,18.8253587058437
0.000346151041345344,18.8353587058437
0.000273466901042678,18.8453587058437
0.000224215604895363,18.8553587058437
0.000191384283396419,18.8653587058437
0.000169979395709898,18.8753587058437
0.000156549001106122,18.8853587058437
0.000148752735503057,18.8953587058437
0.000145015690683818,18.9053587058437
0.000144281089396622,18.9153587058437
0.000145846334284598,18.9253587058437
0.000149257085495043,18.9353587058437
0.000154238208270871,18.9453587058437
0.000160648119370694,18.9553587058437
0.000168448987384289,18.9653587058437
0.000177688628454169,18.9753587058437
0.00018849170850956,18.9853587058437
0.000201058949629918,18.9953587058437
0.000215673964680244,19.0053587058437
0.000232718347088884,19.0153587058437
0.000252696882065629,19.0253587058437
0.000276276455296099,19.0353587058437
0.000304344834414519,19.0453587058437
0.000338099753235261,19.0553587058437
0.000379186080265883,19.0653587058437
0.000429118406094109,19.0752161007368
0.000486460968443448,19.084339339041
0.000552059096890977,19.0927612076084
0.000627022832774546,19.1005350859547
0.000712635989965798,19.1077114359131
0.000810359211697598,19.1143371658735
0.000921846982610328,19.1204558657693
0.00104897141555382,19.1261080470969
0.00119385049354117,19.1313313595263
0.00135888060705783,19.1361607906682
0.00154677383062804,19.1406288575852
0.00176060241448872,19.144765792218
0.0020038514695117,19.1485997190079
0.00228048298322127,19.1521568275322
0.002595015222145,19.1554615468727
0.00295262249690386,19.1585367259378
0.00335926443243055,19.1614038225915
0.00382185674309297,19.164083111874
0.0043485046504325,19.1665939290327
0.00494883350231494,19.1689549697438
0.00563447662333968,19.1711846907888
0.00639487588165291,19.1732403319633
0.00723569755971846,19.1751456913711
0.00816970988365896,19.1769343439453
0.00921620110983842,19.1786405773618
0.0104073547585565,19.1803050528666
0.0118197246257331,19.1820045788482
0.0137121314097241,19.1839622187384
0.0154603370529917,19.185555681822
0.0173647938931026,19.1871491449056
0.019077726075891,19.1885197211713
0.0205710048362178,19.1897141567193
0.0219081356702012,19.190827996754
0.0231032807195864,19.1919124889675
0.0241464326606189,19.1930058847251
0.0250102980685905,19.1941504222693
0.0256421811645379,19.1954127949996
0.0259190109850581,19.1969571072835
0.0255719387097415,19.1987570371569
0.024609489955697,19.2005569670303
0.0234865683342009,19.2020154899498
0.0222252455420035,19.2033998413353
0.0208190788661096,19.2048076084968
0.0192758909188533,19.2062830464174
0.0176023799676127,19.2078642036021
0.0161952536628029,19.2092251709046
0.0148695328723475,19.2105861382071
0.0123347526089745,19.2134747419693
0.0101460093484055,19.2163823086743
0.00843133290119247,19.219046341383
0.00705371614998898,19.2215343472598
0.00585695204862516,19.224044286046
0.00480641619715651,19.226615343248
0.00388180575233528,19.2292713598079
0.00306710570162802,19.2320354375616
0.0023651915237012,19.2348605631112
0.00180649317280431,19.237514724528
0.0013504781936113,19.2400412774847
0.000968038707504701,19.2424884214699
0.0006412751398424,19.2448837433003
0.000360852003297255,19.247219897725
0.000120716665069549,19.2494725446056
-8.64711978496884e-05,19.2516390920113
-0.000269195153784604,19.2537489885057
-0.000435955598001038,19.2558592439774
-0.000596780491693703,19.2580794449644
-0.000775178005669188,19.260773110816
-0.000885107563076048,19.2625602841825
-0.000989407981970051,19.2643474575491
-0.00107898949606569,19.2659531506107
-0.0011591692676188,19.2674444533775
-0.00123629877229722,19.2689254429195
-0.00131528445697775,19.2704867681846
-0.00140273774059822,19.2722644526125
-0.00151640581369336,19.2746439374738
-0.00169440456867596,19.2784996867974
-0.00184488940430472,19.2818560063829
-0.00197925899134152,19.2849107456094
-0.00212829166272713,19.2883530692097
-0.00232338007982513,19.2929489953405
-0.00255807514365417,19.2987329379151
-0.00274027279688155,19.303867525163
-0.00285626770171821,19.3084025990836
-0.00289535961355034,19.3124323748491
-0.00284932991005352,19.3160821353845
-0.00271017989614661,19.3194353259063
-0.00247400666979281,19.3225090878877
-0.00214069898556009,19.3253277903473
-0.00170697585292742,19.3279489753839
-0.00115888648284935,19.3304570593932
-0.000455677146902587,19.3329877055901
0.00050914024818631,19.3357878437872
0.00177121601693812,19.3388426491481
0.0029795214919279,19.3414392152002
0.00417630059132947,19.3438436210574
0.00538649597434232,19.3461556834319
0.00667099373067732,19.3484677458063
0.00791243059519938,19.3505323736814
0.00908450008001637,19.3523040935079
0.0103410370571919,19.3540073781938
0.011699650523618,19.3556357071058
0.0132045073503557,19.3572138206073
0.0148838582704377,19.3587426098526
0.0167653884152545,19.3602217540622
0.0188686051695451,19.3616452639717
0.021226257010072,19.3630171232904
0.0238660817100804,19.364336856621
0.0268147810752094,19.3656035388727
0.0301146799543565,19.3668221408608
0.0338086953409131,19.3679954115917
0.0379466238264727,19.3691264215348
0.0425861047805808,19.3702183259335
0.0477948729435358,19.3712744632415
0.0536545007188476,19.3722985652659
0.0602606920069486,19.3732942115565
0.0677280673677162,19.3742651186065
0.0761952885161799,19.3752152061966
0.0858325102042567,19.3761487330633
0.0968518731023862,19.3770704588169
0.109522342018189,19.3779858353902
0.124193091628046,19.378901375124
0.141330878730849,19.3798252224375
0.161585586687837,19.380768218262
0.18542536289951,19.3817276382676
0.213036875637326,19.382692079534
0.245149199746922,19.38367204461
0.2827594106219,19.3846833618196
0.327463972300856,19.3857558236513
0.364023085867081,19.3865656969569
0.402096620490473,19.3873755702625
0.435833662645277,19.3880903647366
0.465293004194677,19.3887380377668
0.491064394998468,19.3893530349558
0.513171790080651,19.3899599754533
0.531181549772859,19.39058192145
0.544074754770721,19.3912485981059
0.549564692032483,19.3920143434381
0.544146764360574,19.3928053307074
0.526577570107799,19.3936278510606
0.495235146220483,19.3944986489717
0.448023548418975,19.3954295966131
0.3857056229915,19.3963866889887
0.340044344624102,19.3969891559637
0.290341425945264,19.3975916229388
0.246323753280201,19.3980992408401
0.208583626170127,19.3985273494064
0.175418573778134,19.3989065389872
0.145714857076508,19.3992553939143
0.118791801665725,19.3995855720492
0.0941745458115178,19.3999057263154
0.0714664508285454,19.4002238477963
0.0502339226382235,19.4005498801068
0.0297326597645021,19.40090281231
0.0068952500231628,19.4013638706533
-0.00126390794264599,19.401554275327
-0.00871568656501548,19.4017446800006
-0.0150879589935363,19.4019232015645
-0.021154696481386,19.402110098688
-0.0272080404772111,19.4023175544344
-0.0330147883118361,19.4025422683037
-0.0384308153390366,19.4027823974472
-0.0433767303726179,19.4030373800325
-0.0478119374375353,19.4033075148292
-0.0517193320874092,19.4035937325668
-0.0550957534752016,19.4038974903968
-0.0581250068599848,19.4042455547255
-0.0603821988471284,19.4045896954329
-0.0621346446925885,19.4049584886411
-0.0633996183304898,19.4053560568672
-0.0641909304822321,19.4057871063405
-0.0645198216422195,19.4062575298357
-0.0643931957353299,19.406774835882
-0.0638109134806853,19.4073490943079
-0.0627600009436203,19.4079948793162
-0.0612101850713394,19.4087318011881
-0.0590997714482867,19.4095903701784
-0.0562959405617271,19.4106259934479
-0.0524206223340809,19.4119801870933
-0.0483476886544917,19.4133725323023
-0.0444167702582094,19.4147213848699
-0.0406715665541659,19.4160305807752
-0.0371338135291712,19.4173019261819
-0.0338147226750497,19.4185359870718
-0.0307191105382161,19.4197327086417
-0.0278473115172661,19.4208917458777
-0.0251962533011671,19.4220126374463
-0.0227601935417212,19.4230948944241
-0.0205313078734056,19.4241380405481
-0.0185002009767375,19.4251416231993
-0.0166563648009611,19.4261052055331
-0.0149885894486117,19.4270283455068
-0.0134248325359177,19.4279472055926
-0.0119206289813262,19.4288896073644
-0.0104804812693239,19.4298571342277
-0.00910833390461665,19.4308519019924
-0.00780793764561319,19.4318763940024
-0.00658279712138455,19.4329335540229
-0.00543611948769566,19.4340269063059
-0.00437076104203053,19.4351607173714
-0.00338917182771364,19.4363402190919
-0.00249333788538125,19.4375719248069
-0.00168472023288172,19.4388640920026
-0.000964188638753032,19.4402274265
-0.000331946389139332,19.4416762071547
0.000212561541981113,19.4432301954426
0.000657240475464622,19.4448608889971
0.00100276735968333,19.4465392742892
0.00126521797548879,19.4482836616726
0.00145899149098724,19.4501156042956
0.00159757957874859,19.4520639876359
0.00169396625328127,19.4541699366864
0.00176121926622999,19.4564971315137
0.00181362221090343,19.459157386082
0.00186991696431,19.4623962058476
0.00194737964963069,19.4661366857053
0.00205568779119864,19.4701549250138
0.00221280384392947,19.4748463278464
0.00240461976607103,19.479831358874
0.00258060362743842,19.4840915374073
0.00274793850447657,19.4880178787751
0.00291235549589519,19.4918105961954
0.00307726530641027,19.4955642325565
0.00324544446759883,19.499336709337
0.00341951302505229,19.5031705520965
0.00360208532615971,19.5071007577828
0.00379585417560089,19.5111587040129
0.00400368047909871,19.5153748079593
0.00422867925665211,19.5197800442269
0.00447435669036011,19.5244072575634
0.00474485939414832,19.5292926046237
0.00504540178456709,19.5344768526971
0.00537935714021903,19.5399481239491
0.0057215446822859,19.5452392241529
0.00608231952106663,19.5504826262948
0.00646100191345585,19.5556232240799
0.00686229877503567,19.5606815050235
0.00729014096240724,19.5656603185527
0.00774939702345287,19.5705684267135
0.00824516004728691,19.5754105023153
0.00878298325521892,19.5801892887327
0.00936890182436439,19.5849051507616
0.0100095528771507,19.5895567125252
0.0107146989504703,19.5941564153376
0.0115087849381911,19.5987864635279
0.012406592182452,19.6034378828355
0.0134310438775515,19.608127311473
0.0146145753476552,19.6128882832929
0.0160114756435802,19.617802150505
0.0177387603876179,19.623090341219
0.0202053900899791,19.629618421193
0.0218558264420185,19.6335722675394
0.0235706529865112,19.6375261138858
0.0250647036327619,19.6410039716293
0.0263249763605632,19.6441332610341
0.0273777855118707,19.6471083963055
0.0281898021286589,19.6499651863164
0.0287343109224995,19.6527180514437
0.0290068858631907,19.655486651646
0.0289706343722351,19.6584340132015
0.0284895890439256,19.661950099445
0.0276973618314273,19.6650749997543
0.0266187355890346,19.6681999000636
0.0255377841635549,19.6708282281034
0.0244680861365773,19.6731864944525
0.0233976687190664,19.6754123310936
0.0223260018934054,19.6775659245476
0.0212561233967007,19.6796796704416
0.0201917437365405,19.6817743472178
0.0191365217227709,19.6838648032086
0.0180938777530598,19.6859624672861
0.0170669490114784,19.6880766598502
0.0160585867945517,19.6902153585881
0.0150713686552307,19.6923856804267
0.0141076098594777,19.6945942169257
0.0131693771572809,19.6968472753661
0.0122585022029271,19.6991510652253
0.0113765872251176,19.7015118716293
0.0105250202617205,19.703936188318
0.00970498256652594,19.7064308642461
0.00890818229208028,19.709034711024
0.00812232629413325,19.7118117314269
0.00735117447784482,19.7147819769291
0.00659854325875762,19.7179693178102
0.00586849929882761,19.7214013869521
0.00516532923661624,19.7251103121593
0.00449349200255044,19.7291335968096
0.00385752555721401,19.7335153437506
0.00326188545274635,19.7383081967358
0.00271068302757942,19.7435769431588
0.00220736356412126,19.7494051188967
0.0017544688439389,19.7559058277408
0.00137076910110087,19.7628830912561
0.00105557474090559,19.77041498259
0.000846760846427696,19.7773087105798
0.000656122913650879,19.785755264277
0.00050568525437353,19.7949360331685
0.000390366450359989,19.8049360331685
0.000311855594491374,19.8149360331685
0.000259617141783595,19.8249360331685
0.000226002225458318,19.8349360331685
0.000205533108512003,19.8449360331685
0.000194409585310824,19.8549360331685
0.000190069963953368,19.8649360331685
0.000190824382428312,19.8749360331685
0.000195584454769977,19.8849360331685
0.000203682542737262,19.8949360331685
0.000214757942826185,19.9049360331685
0.000228688064229881,19.9149360331685
0.000245550045112414,19.9249360331685
0.000265605330262979,19.9349360331686
0.000289304681057474,19.9449360331686
0.000317314668380937,19.9549360331686
0.000350570272310159,19.9649360331686
0.00039036314529494,19.9749360331686
0.000438483073144588,19.9849360331686
0.000481906186795834,19.9924680165843
0.000532827349130189,20
