ecg,time
0.00409363273656938,15.0020764492003
0.00435158567882595,15.005916685204
0.0046238024943687,15.0098447272505
0.00491437787296166,15.0138922155352
0.00522784094457757,15.0180891277294
0.00556940994341461,15.0224653840777
0.00594530912232623,15.0270520840953
0.00636324620216967,15.0318827126629
0.0068276963132524,15.0369359824671
0.00731197134926854,15.0418681436008
0.00782820911401927,15.0467703100718
0.00837687812214948,15.0516007883835
0.00896383136653321,15.0563636360725
0.00959522475489175,15.0610569684834
0.0102787561585678,15.0656834277535
0.0110370386330474,15.0703263561012
0.0118864091088112,15.0749967413357
0.0128471698179219,15.0797074745928
0.0139473013126431,15.08448550992
0.0152300024540189,15.0893904800067
0.0167771964961782,15.0945713361701
0.0188212073678919,15.1005293102943
0.0206264417005424,15.1052329400455
0.0225510655589562,15.1099365697967
0.024131521960117,15.113758797039
0.0254374191539798,15.1170692938973
0.0265306374148234,15.1201560713035
0.0274107095105961,15.1231610371631
0.0280206972945945,15.1260171862704
0.0283628676837249,15.1288451900124
0.0284134797979388,15.1317919286226
0.0280848333627353,15.1351362901155
0.0270843395656054,15.139502499564
0.0261880278921672,15.1422132387703
0.0251280481591505,15.1449239779766
0.0240540863815551,15.1473946795214
0.0229794897262829,15.1497147675301
0.0219044951392236,15.1519514145792
0.0208318140710754,15.15414211521
0.0197650747822218,15.1563104297452
0.018707976454003,15.158472884102
0.0176640242709594,15.1606420326169
0.01663646252795,15.1628279986676
0.0156282560548599,15.1650393686965
0.0146420987941688,15.1672837334342
0.0136804234565711,15.1695680547435
0.012745408363971,15.1718989359249
0.0118389926886115,15.1742828078022
0.0109628802362736,15.1767261030037
0.0101185499461611,15.1792353910053
0.00930726256100491,15.1818175117479
0.00853007025092332,15.1844796978162
0.00776808966607335,15.1873059650248
0.00702191298001173,15.1903262713373
0.0062952873322817,15.1935638861873
0.00559212271632105,15.1970457937345
0.00491649586029815,15.200803207973
0.00427258532432861,15.2048724278708
0.00366456517122938,15.2092960530606
0.00309643255173163,15.2141250075059
0.00257183494681033,15.2194219378215
0.00209381497459857,15.2252677343321
0.00166447292030471,15.2317701186202
0.00129286298951577,15.2389072759654
0.000982845577889886,15.2466280332873
0.000727778014837179,15.2550569586298
0.000521416012622502,15.264360402799
0.000368591035468688,15.274360402799
0.000273143340830926,15.2837509097074
0.00020236151817056,15.2937509097074
0.000153068903163041,15.3037509097074
0.000118851267894517,15.3137509097074
9.54748602416809e-05,15.3237509097074
7.98485060346503e-05,15.3337509097074
6.96791356832423e-05,15.3437509097074
6.33164313222024e-05,15.3537509097074
5.96135362757033e-05,15.3637509097074
5.77900379967983e-05,15.3737509097074
5.73175949717838e-05,15.3837509097074
5.78373688200204e-05,15.3937509097074
5.91052729049354e-05,15.4037509097074
6.09565298250335e-05,15.4137509097074
6.32822516837479e-05,15.4237509097074
6.60134320018636e-05,15.4337509097074
6.91097865363826e-05,15.4437509097074
7.25519938761927e-05,15.4537509097074
7.63364049996748e-05,15.4637509097074
8.04715522061384e-05,15.4737509097074
8.49759636285384e-05,15.4837509097074
8.98769322859674e-05,15.4937509097074
9.52100046179193e-05,15.5037509097074
0.000101019042667523,15.5137509097074
0.000107356780929137,15.5237509097074
0.000114285850648068,15.5337509097074
0.000121880288385683,15.5437509097074
0.000130227588181833,15.5537509097074
0.000139431403184644,15.5637509097074
0.000149615058980615,15.5737509097074
0.000160926114313836,15.5837509097074
0.00017354230559694,15.5937509097074
0.000187679354698962,15.6037509097074
0.000203601328285905,15.6137509097074
0.000221634548602674,15.6237509097074
0.000242186530564369,15.6337509097074
0.000265772159600978,15.6437509097074
0.000293050502477647,15.6537509097074
0.000324877565197417,15.6637509097074
0.000362383533266591,15.6737509097074
0.000407088591010144,15.6837509097074
0.000461081341921614,15.6937509097074
0.000523162814159709,15.7031752710046
0.000593250451202165,15.7118834710173
0.000672274475712624,15.7199235808624
0.000761369047252807,15.7273471870882
0.000861834975311882,15.7342023937477
0.000975147858144291,15.7405338509839
0.00110297844198347,15.7463830501791
0.0012472181492735,15.7517885690856
0.00141001092341048,15.7567862157986
0.00159378301441821,15.7614092158576
0.00180128737728836,15.7656884305166
0.002035647815558,15.7696525824666
0.00230041802401142,15.7733283893284
0.00259964396563006,15.776740708199
0.00293794857405632,15.7799127349384
0.00332064127454205,15.7828661959736
0.00375384650283952,15.7856214957812
0.00424468545581164,15.7881979285233
0.00480152569927572,15.7906139346914
0.00543432310183963,15.7928873692383
0.00615230759581475,15.7950281966135
0.00694280278504492,15.7969954414115
0.00781458529573893,15.7988211352922
0.00878083761329091,15.8005370650719
0.00986128370264505,15.8021755695604
0.0110887261495612,15.8037751194525
0.0125561630700249,15.8054245166651
0.0145186228705505,15.8073223308437
0.0168482690385531,15.8092830516173
0.0184905399748658,15.810552551095
0.0201914045457939,15.8118220505726
0.0217358056364144,15.8129763943965
0.0231256338360241,15.8140589293153
0.0243708643440833,15.8151157902882
0.0254609351853957,15.816184349695
0.0263676989512854,15.817307035092
0.0270363494002268,15.8185527365367
0.0273349825366279,15.8200989845083
0.0270651722452094,15.8216396744037
0.0263843010187578,15.8230537791462
0.0254006115429518,15.8244372529432
0.024212763610785,15.8257937733831
0.0228607738120073,15.8271667464343
0.0213606109281038,15.8285975090432
0.0197221291372833,15.8301230799718
0.0185995877685975,15.8311711825747
0.0175056442094793,15.8322192851775
0.0162326242426889,15.8335066152364
0.0143310579730577,15.8356004136292
0.0124298276189856,15.8379612357293
0.010538246744671,15.840680815369
0.00900685789014367,15.8432719928788
0.00776242238495213,15.8457521533862
0.00669506138779803,15.8482706537094
0.00578020655485789,15.8508569944658
0.00500248759439762,15.8535343532067
0.00435166745130621,15.8563259445282
0.00382207559617646,15.8592566687511
0.00341306282685455,15.8623545131715
0.00313069024992594,15.8656521106424
0.00299154879592534,15.8691887111544
0.00301486570835509,15.8725252113509
0.00317290070646115,15.8755247896514
0.0034428241716052,15.8782379180633
0.00381274343485817,15.8807109500232
0.0042786160993384,15.8829879898457
0.00484464380099552,15.8851172488975
0.00552357185344976,15.887147316194
0.00634150332502039,15.8891349604373
0.00734744740373092,15.8911531727268
0.0086378158906184,15.8933123299172
0.0103923662701429,15.8957695021086
0.0126296594775031,15.8983984309926
0.0147692783575571,15.9005411933167
0.0167726539090007,15.9022858412325
0.018799608096349,15.9038327031071
0.0209473708069682,15.9052674012923
0.0232792576095679,15.9066254742548
0.0258408246218195,15.90792070912
0.0286873245233204,15.9091658433147
0.0318566301266472,15.910361864118
0.0354055128635661,15.9115152267073
0.0393821716001122,15.9126269756209
0.0438494374500908,15.9137007932141
0.0488742544283447,15.9147391695331
0.05453436498999,15.9157448959839
0.0609216241967593,15.9167211005411
0.0681424937611788,15.9176707906971
0.0763254658168389,15.9185973817733
0.0856240616963368,15.9195043695706
0.0962251532787725,15.9203955394731
0.108359248969055,15.9212750661754
0.122313840222149,15.9221475873693
0.138454038645693,15.9230184381383
0.157253167427587,15.9238939684431
0.179343647791882,15.9247821654047
0.205574467460108,15.9256927640532
0.235900268548398,15.9266043731109
0.271062146916896,15.9275254827503
0.31207996319723,15.9284700321349
0.360649602021348,15.929466883744
0.398053352105778,15.9301782496285
0.436748915970626,15.9308896155129
0.471131452690485,15.9315238749892
0.501327877361,15.9321066589978
0.527869144990377,15.9326684029022
0.550699621470629,15.9332326065424
0.569256129199597,15.9338245915256
0.582193634062124,15.9344842211702
0.586087305463565,15.9352253208336
0.578148878854646,15.9359910307285
0.557090162808339,15.9368033900396
0.522562667352882,15.9376467418739
0.47484820827098,15.9385117194908
0.411842458612955,15.9394266863643
0.361120094219973,15.9400631482581
0.305693458675922,15.940699610152
0.257489516485739,15.9412249113488
0.216970298828777,15.9416589144546
0.181788861282972,15.9420386782181
0.150498985125094,15.9423856167454
0.122264885436914,15.9427124990167
0.0965292429659783,15.9430284362336
0.0728451414635905,15.9433415728659
0.0507448513212501,15.9436617492089
0.0294618189685881,15.9440072348802
0.00602471167608246,15.9444524240664
-0.00275879626973586,15.9446451062722
-0.0107600713685373,15.944837788478
-0.0173212014969701,15.9450111812815
-0.0235009185691286,15.9451904574113
-0.0297098074078897,15.9453903484114
-0.0356973704186031,15.9456074793659
-0.0413058081740374,15.9458398804121
-0.0464472107007278,15.9460868835728
-0.0510758277050087,15.9463486957383
-0.0551715365244517,15.9466261619704
-0.0587300262472839,15.9469206535001
-0.0617567545648273,15.947234033959
-0.0642592066060599,15.9475686807104
-0.0663165076351346,15.9479440276267
-0.0677591793661402,15.9483285431397
-0.0687210094275615,15.9487450276685
-0.0692156949447001,15.9491993543476
-0.069251870798532,15.9496987228662
-0.0688318321961206,15.9502525120314
-0.0679458132253876,15.9508747261869
-0.0665671984567136,15.9515840048234
-0.0646402706284255,15.9524089431922
-0.0620454537015443,15.9534003526562
-0.058457705143263,15.9546810357094
-0.0543760862028644,15.9560923781438
-0.0504046247197745,15.9574600759399
-0.0465968214977783,15.9587886846224
-0.0429801452886823,15.9600801492745
-0.0395697262861161,15.9613350553363
-0.0363735400227528,15.9625533089652
-0.0333946628957706,15.9637344997209
-0.0306324477328127,15.9648780922173
-0.0280832800656857,15.9659835253402
-0.0257411642750656,15.96705025939
-0.0235982333810803,15.9680777921161
-0.0216452133589626,15.9690656549011
-0.0198718493404325,15.9700133953423
-0.0182672912611691,15.9709205496728
-0.0167208307842141,15.9718481429709
-0.0152331166096292,15.9727997340851
-0.0138081564624824,15.973777225604
-0.0124497563097969,15.9747828608802
-0.0111614978926483,15.9758192845337
-0.00994668423944808,15.9768896433708
-0.00880828204934361,15.9779977204723
-0.00774886033066489,15.979148117391
-0.00677052434016212,15.9803465078874
-0.00587484292246009,15.9816000016946
-0.00506276564196937,15.9829176844311
-0.00433452290944821,15.9843114534938
-0.00368949586925026,15.9857973820383
-0.00312602846216845,15.9873981001527
-0.00266629811083103,15.9890445656881
-0.00229567451286996,15.9907459851311
-0.00199856777725931,15.9925210148792
-0.00176035819655387,15.9943936377577
-0.00156689111800665,15.9963966625051
-0.00140382390135989,15.9985781746001
-0.00125545475607013,16.0010157957923
-0.00110190486879274,16.0038555115041
-0.000908445075289866,16.0074683356804
-0.000691086998616838,16.0112619801712
-0.00044063082405858,16.0152847543925
-0.000159823955702758,16.0195282069371
0.000145923096335283,16.0240156465269
0.000470313345294475,16.0287713236094
0.000808470666464186,16.0338209057956
0.00112101434289548,16.0386115969709
0.00140249392349952,16.0430380291259
0.00167088620044013,16.0473513633253
0.00194419874517129,16.0518199626556
0.00225253020987017,16.0569265429718
0.00254833601455326,16.0618473246696
0.00284816294238566,16.0668260912101
0.00311705979035069,16.0712492944182
0.00336398933232923,16.0752587366788
0.00360439701094215,16.079099473081
0.0038459052542936,16.0828821363483
0.00409355186398109,16.0866709195932
0.00435150094261125,16.0905111358138
0.00462371271651158,16.0944391486729
0.00491428178082159,16.0984865992058
0.00522773709220966,16.1026834652936
0.00556929663143925,16.1070596670259
0.00594518428401153,16.1116463034154
0.00636310722676709,16.1164768585096
0.00682755152803276,16.1215301677214
0.00731181679778123,16.1264623349565
0.0078280449770412,16.1313645234422
0.00837670266594706,16.1361950218659
0.00896364293144694,16.1409578911526
0.00959502114632279,16.1456512444888
0.0102785348730393,16.1502777241232
0.0110367909856947,16.1549206408315
0.0118861304858484,16.1595910168809
0.0128468528503215,16.1643017344988
0.0139469356476005,16.1690797424427
0.0152295707792934,16.1739846576761
0.0167766615235005,16.1791653849764
0.0188204309562075,16.1851229194754
0.0206258439486386,16.1898271678105
0.0225507001477952,16.1945314161456
0.0241312426690718,16.1983538372281
0.0254371859254661,16.2016644020452
0.0265304440601352,16.2047512056699
0.0274105690501289,16.2077562130819
0.0280206071268884,16.2106123796014
0.0283628291755279,16.2134403763075
0.028413501312082,16.2163870739528
0.0280849449989791,16.2197313083979
0.0270845321319428,16.224097572922
0.0261882379243977,16.2268083860743
0.0251282579688781,16.2295191992267
0.0240542953926321,16.2319899417497
0.0229796988724892,16.2343100513654
0.0219047041520995,16.2365467103995
0.0208320222918516,16.2387374173962
0.0197652814839766,16.2409057345331
0.0187081809308498,16.243068188729
0.0176642258643346,16.245237334914
0.0166366606335521,16.247423296836
0.0156284501202165,16.2496346611811
0.0146422883211254,16.2518790188287
0.0136806079937057,16.2541633317436
0.0127455875094994,16.2564942032735
0.0118391660890786,16.2588780642533
0.0109630475782185,16.2613213473112
0.0101187109627525,16.2638306218756
0.00930741702440637,16.2664127278327
0.00853021797488228,16.2690748976755
0.0077682347541247,16.2719011294194
0.00702205467211354,16.2749213963124
0.00629542489566568,16.2781589669135
0.00559225538160265,16.2816408246376
0.00491662283094964,16.2853981825912
0.0042727057919107,16.2894673386684
0.00366467834295359,16.2938908911275
0.00309653768911243,16.298719762059
0.00257193139946588,16.3040165952916
0.00209390225445456,16.3098622768888
0.00166455069254616,16.3163645223088
0.00129292825854499,16.3235015774819
0.000982899645405151,16.3312222120624
0.000727822132944992,16.3396509868266
0.000521451331120836,16.3489542437251
0.000368614627224054,16.3589542437251
0.000273146900943048,16.368346191035
0.000202364146080523,16.378346191035
0.000153070870806403,16.3883461910351
0.000118852713294433,16.3983461910351
9.54759030649778e-05,16.4083461910351
7.98492571712837e-05,16.4183461910351
6.96796850546222e-05,16.4283461910351
6.33168434255471e-05,16.4383461910351
5.96138542065639e-05,16.4483461910351
5.77902900741673e-05,16.4583461910351
5.73178002120237e-05,16.4683461910351
5.78375404083192e-05,16.4783461910351
5.91054201749383e-05,16.4883461910351
6.09566594208093e-05,16.4983461910351
6.32823683250167e-05,16.5083461910351
6.6013539037743e-05,16.5183461910351
6.91098863551096e-05,16.5283461910351
7.25520882015919e-05,16.5383461910351
7.63364950994456e-05,16.5483461910351
8.0471639035665e-05,16.5583461910351
8.49760479300506e-05,16.5683461910351
8.98770146576224e-05,16.5783461910351
9.52100855626925e-05,16.5883461910351
0.000101019122628468,16.5983461910351
0.000107356860315466,16.6083461910351
0.000114285929855204,16.6183461910351
0.000121880367811625,16.6283461910351
0.000130227668241637,16.6383461910351
0.000139431484324531,16.6483461910351
0.000149615141693068,16.6583461910351
0.000160926199155084,16.6683461910351
0.000173542393208464,16.6783461910351
0.000187679445835089,16.6883461910351
0.000203601423850339,16.6983461910351
0.000221634649698031,16.7083461910351
0.000242186638560771,16.7183461910351
0.000265772276232899,16.7283461910351
0.000293050629983391,16.7383461910351
0.000324877706524239,16.7483461910351
0.00036238369237929,16.7583461910351
0.000407088773367109,16.7683461910351
0.00046108155523013,16.7783461910351
0.000523163047515418,16.7877705496397
0.000593250706424048,16.7964787470656
0.000672274755806828,16.8045188545224
0.000761369355922189,16.8119424585466
0.000861835316962668,16.8187976631767
0.000975148237971552,16.8251291185432
0.00110297886608377,16.8309783160167
0.00124721862478213,16.8363838333385
0.00141001145864436,16.8413814785938
0.00159378361905822,16.8460044773131
0.00180128806258155,16.8502836907427
0.00203564859455675,16.8542478415661
0.00230041891179546,16.857923647397
0.00259964497967618,16.8613359653267
0.00293794973463408,16.8645079912097
0.00332064260519548,16.8674614514684
0.00375384803107586,16.8702167505755
0.00424468721400167,16.87279318269
0.00480152772587656,16.8752091883016
0.00543432544323321,16.8774826223624
0.00615231019167092,16.8796234490098
0.00694280566779304,16.8815906932163
0.00781458851400083,16.8834163866418
0.00878084123698732,16.8851323160998
0.00986128784123195,16.8867708204153
0.0110887309982692,16.888370370336
0.0125561693569759,16.8900197682429
0.0145186325144408,16.8919175845327
0.0168482852817279,16.8938783096159
0.018490554871875,16.8951478075194
0.0201914174244681,16.8964173054229
0.0217358168354117,16.8975716483469
0.0231256436098439,16.8986541828924
0.0243708726854502,16.899711043846
0.0254609419244614,16.9007796035692
0.0263677037426153,16.9019022897349
0.0270363515487595,16.9031479928201
0.0273349799700326,16.9046942453814
0.0270651576566517,16.9062349533378
0.0263842727542717,16.9076490655068
0.0254005750563396,16.909032539211
0.0242127215367288,16.9103890595482
0.0228607268855213,16.9117620338318
0.0213605595395048,16.9131927988148
0.0197220735013246,16.9147183732929
0.0185995680848947,16.9157664425859
0.0175056590995604,16.9168145118789
0.0162326264395771,16.9181018540154
0.0143310609925881,16.9201956507189
0.0124298409391541,16.922556457943
0.0105382781819524,16.9252760050813
0.00900688396061417,16.9278671823092
0.00776244393579546,16.9303473421893
0.00669507894945182,16.9328658412961
0.00578022044405255,16.9354521803207
0.00500249796571378,16.9381295368307
0.00435167430467241,16.9409211254007
0.00382207875547744,16.9438518462997
0.00341306187967547,16.9469496867403
0.0031306844205644,16.9502472794547
0.00299153669040585,16.9537838742629
0.00301484694976709,16.9571203985218
0.00317287642305829,16.9601199970501
0.00344279491666314,16.9628331428788
0.00381270933252578,16.9653061892765
0.00427857689285592,16.9675832405289
0.00484459878185076,16.9697125078811
0.00552351963431404,16.971742579895
0.00634144134012728,16.9737302243277
0.00734737070196598,16.975748430155
0.00863771435025369,16.9779075699311
0.0103922174728393,16.9803647045983
0.0126294834832006,16.9829936323713
0.014769117077428,16.9851364321541
0.0167724977488442,16.9868811010384
0.018799447705771,16.9884279740017
0.0209472004756562,16.9898626791349
0.0232790735425015,16.9912207574028
0.0258406228822514,16.9925159964299
0.0286871019378213,16.9937611344215
0.0318563831421235,16.9949571586456
0.0354052377816878,16.9961105244261
0.0393818638767625,16.9972222761805
0.0438490929023047,16.9982960965268
0.0488738675304675,16.9993344753281
0.0545339300362068,17.0003402041146
0.0609211342273799,17.0013164107965
0.0681419405302079,17.0022661028505
0.0763248395232394,17.0031926955921
0.0856233504351645,17.0040996847988
0.0962243427177881,17.004990855852
0.108358321341427,17.0058703834147
0.122312773236183,17.0067429051414
0.138452804032751,17.0076137560733
0.15725172832346,17.0084892860945
0.17934195436017,17.0093774821947
0.205572514001297,17.0102880812619
0.235898010755275,17.0111996902978
0.271059527451668,17.0121207992567
0.312076898698304,17.0130653467668
0.360645934618392,17.0140621936482
0.398049988588608,17.0147735690133
0.436745988823818,17.0154849443784
0.47112888327482,17.0161192097593
0.501325587057954,17.0167019966303
0.527867117349102,17.0172637414377
0.550697879103552,17.0178279442301
0.56925473694946,17.0184199261118
0.582192744121212,17.0190795483839
0.586087247685532,17.0198206472643
0.578149724222036,17.0205863546876
0.557092036208857,17.0213987099238
0.522565355036282,17.0222420637424
0.474851942143537,17.0231070379683
0.411847144852379,17.024022003626
0.361124230557192,17.0246584785017
0.305696762225222,17.0252949533773
0.257492190827086,17.0258202626671
0.216972578874514,17.0262542701966
0.181790871355147,17.0266340365461
0.150500790194841,17.0269809766712
0.122266525307373,17.0273078598999
0.0965307467062583,17.0276237975641
0.0728465353432432,17.0279369341221
0.050746168471659,17.0282571096385
0.0294631314213161,17.0286025927062
0.00602649988116243,17.0290477672065
-0.00275762303169869,17.0292404599919
-0.0107594228499493,17.0294331527773
-0.0173206563902795,17.0296065469165
-0.0235003554663139,17.0297858209862
-0.0297092536549743,17.0299857102921
-0.0356968448100462,17.0302028398122
-0.0413053214058615,17.0304352395378
-0.0464467685586751,17.0306822413952
-0.0510754330256367,17.0309440522081
-0.055171190331563,17.0312215169867
-0.0587297284402913,17.0315160069167
-0.0617565043531731,17.0318293855845
-0.0642590038272992,17.0321640303045
-0.0663163764138687,17.0325393798632
-0.0677590859633989,17.0329238931488
-0.0687209524587316,17.0333403750029
-0.0692156735523643,17.0337946985141
-0.0692518845151825,17.0342940632311
-0.0688318811521687,17.0348478477568
-0.0679458987533221,17.035470055994
-0.066567323483114,17.0361793269601
-0.0646404412111059,17.0370042548186
-0.0620456836519042,17.0379956482158
-0.0584580400021763,17.0392762984888
-0.0543764142754399,17.040687645035
-0.0504049404634093,17.0420553461555
-0.0465971219152444,17.043383957907
-0.0429804287727062,17.0446754255309
-0.0395699919720258,17.0459303345469
-0.0363737875202872,17.0471485911511
-0.0333948921601198,17.0483297849203
-0.0306326589890701,17.0494733804741
-0.0280834737547268,17.0505788166984
-0.0257413410086883,17.0516455538912
-0.0235983939018757,17.0526730897987
-0.021645358503696,17.0536609558018
-0.0198719800067906,17.0546086994974
-0.0182674083780593,17.0555158571208
-0.0167209431726857,17.0564434485718
-0.0152332238922467,17.0573950377434
-0.0138082583492275,17.0583725271575
-0.0124498525263423,17.0593781601393
-0.0111615881849953,17.0604145812737
-0.00994676837822716,17.0614849373233
-0.00880835983440133,17.0625930113126
-0.00774893159598973,17.0637434047219
-0.00677058895924967,17.0649417912155
-0.0058749008143314,17.0661952803962
-0.00506281677823133,17.0675129577006
-0.0043345673231371,17.0689067202618
-0.00368953366691374,17.0703926408346
-0.00312605984235847,17.071993348858
-0.00266632151986411,17.0736398108389
-0.00229569134162279,17.0753412251835
-0.00199857925370275,17.0771162481698
-0.00176036549224278,17.0789888620718
-0.00156689538976886,17.0809918747231
-0.00140382635884765,17.0831733699686
-0.00125545679720484,17.0856109661904
-0.00110190845710562,17.0884506401337
-0.000908454568192784,17.0920633700688
-0.000691099356668395,17.0958569974444
-0.000440645844415363,17.0998797599627
-0.000159841209916741,17.1041231995059
0.000145904234272107,17.1086106247614
0.000470293430999942,17.1133662861226
0.000808450051289279,17.1184158510822
0.00112099599587206,17.1232065690921
0.00140247685512974,17.127633014593
0.00167086942298822,17.1319463481784
0.0019441811030137,17.1364149293554
0.00225250896591232,17.1415214469673
0.00254831480616952,17.1464422296371
0.00284814075551797,17.1514209825108
0.00311703999747911,17.1558442298394
0.00336397033456834,17.1598536901035
0.00360437809112355,17.1636944336631
0.00384588599281435,17.1674770984689
0.00409353194033126,17.1712658795835
0.00435148006616099,17.1751060908813
0.00462369059537495,17.1790340964782
0.00491425809982014,17.1830815376184
0.00522771149336556,17.1872783922351
0.00556926869413267,17.1916545803791
0.0059451534967676,17.1962412009381
0.00636307294348702,17.2010717377518
0.00682751581906543,17.2061250567083
0.00731177868308233,17.2110572254219
0.00782800450420397,17.2159594193379
0.00837665940738786,17.2207899227209
0.00896359647821116,17.2255527973358
0.00959497095694632,17.2302461558326
0.0102784803298137,17.2348726404872
0.0110367299476165,17.2395155543269
0.0118860618151959,17.2441859281113
0.0128467747304406,17.2488966418729
0.0139468455266227,17.2536746430662
0.015229464390437,17.2585795447798
0.0167765296776963,17.2637602403229
0.0188202396172955,17.2697176664987
0.0206256966530711,17.2744220673231
0.0225506101279857,17.2791264681475
0.0241311738709609,17.282948936998
0.0254371284749897,17.2862595185585
0.026530396431981,17.2893463286428
0.0274105344515296,17.2923513462912
0.0280205849168505,17.2952075171005
0.0283628196905339,17.2980355120741
0.0284135066118039,17.30098219963
0.0280849724964593,17.3043264027843
0.0270845795640231,17.3086926808767
0.0261882896586375,17.3114035122444
0.0251283096480314,17.314114343612
0.0240543468749018,17.3165850962289
0.0229797503879719,17.3189052111669
0.0219047556347042,17.321141873153
0.0208320735793357,17.3233325817177
0.0197653323973063,17.3255008994952
0.0187082312961737,17.3276633536513
0.0176642755194585,17.3298324992623
0.0166367094296482,17.3320184601672
0.0156284979212258,17.3342298231121
0.0146423350043699,17.336474179013
0.0136806534480183,17.3387584898598
0.0127456316359433,17.3410893590119
0.0118392088006232,17.343473217307
0.0109630887976843,17.3459164973731
0.0101187506244484,17.3484257686268
0.00930745507224646,17.3510078709408
0.00853025436302457,17.3536700367857
0.00776827049299301,17.3564962597939
0.00702208957450716,17.3595165169771
0.00629545878109522,17.3627540766788
0.00559228806056005,17.3662359221305
0.00491665410724146,17.36999326622
0.00427273546640803,17.3740624065769
0.00366470622038127,17.3784859411212
0.00309656358756807,17.3833147914817
0.00257195515852729,17.3886116008013
0.00209392375389712,17.3944572540939
0.00166456984997234,17.4009594653093
0.00129294433619292,17.4080964953158
0.000982912963957445,17.4158170996631
0.000727833000848919,17.4242458373376
0.000521460031607567,17.4335490481087
0.000368620436971564,17.4435490481087
0.000273147752979621,17.4529413526944
0.00020236477524441,17.4629413526944
0.000153071342054167,17.4729413526944
0.000118853059129589,17.4829413526944
9.5476151934339e-05,17.4929413526944
7.98494357009259e-05,17.5029413526944
6.96798149313871e-05,17.5129413526944
6.33169402180934e-05,17.5229413526944
5.96139283059839e-05,17.5329413526944
5.77903482957416e-05,17.5429413526944
5.73178471243412e-05,17.5529413526944
5.78375791750698e-05,17.5629413526944
5.91054530329276e-05,17.5729413526944
6.09566879592218e-05,17.5829413526944
6.32823936689515e-05,17.5929413526944
6.60135619811169e-05,17.6029413526944
6.91099074591031e-05,17.6129413526944
7.25521078658829e-05,17.6229413526945
7.63365136121735e-05,17.6329413526945
8.04716566077977e-05,17.6429413526945
8.49760647189283e-05,17.6529413526945
8.98770307831814e-05,17.6629413526945
9.52101011187386e-05,17.6729413526945
0.00010101913769056,17.6829413526945
0.000107356874946449,17.6929413526945
0.00011428594410912,17.7029413526945
0.000121880381736501,17.7129413526945
0.000130227681881541,17.7229413526945
0.000139431497721149,17.7329413526945
0.000149615154887018,17.7429413526945
0.00016092621218714,17.7529413526945
0.000173542406120845,17.7629413526945
0.000187679458672979,17.7729413526945
0.000203601436663857,17.7829413526945
0.000221634662544928,17.7929413526945
0.000242186651510289,17.8029413526945
0.000265772289371435,17.8129413526945
0.000293050643423026,17.8229413526945
0.000324877720415832,17.8329413526945
0.000362383706933003,17.8429413526945
0.000407088788885348,17.8529413526945
0.000461081572161703,17.8629413526945
0.000523163064807584,17.8723657110774
0.000593250724092472,17.881073908291
0.000672274773969393,17.8891140155521
0.000761369374760224,17.896537619396
0.000861835336725141,17.90339282386
0.000975148258986447,17.9097242790734
0.00110297888877173,17.9155734764058
0.00124721864967218,17.9209789935976
0.0014100114863893,17.9259766387331
0.00159378365045756,17.930599637342
0.00180128809860235,17.9348788506702
0.00203564863635916,17.9388430014006
0.0023004189607541,17.9425188071464
0.00259964503742031,17.9459311249983
0.00293794980308956,17.9491031508107
0.00332064268662884,17.9520566110056
0.00375384812816674,17.9548119100553
0.00424468732993688,17.957388342119
0.00480152786446869,17.959804347686
0.00543432560911312,17.9620777817087
0.00615231037863328,17.9642186082927
0.0069428058792863,17.9661858524491
0.00781458875519039,17.968011545838
0.00878084151531848,17.969727475273
0.00986128816842108,17.971365979581
0.0110887313953613,17.9729655295161
0.0125561699007939,17.9746149275084
0.0145186334137427,17.9765127440419
0.0168482875502886,17.9784734701351
0.0184905569275682,17.979742967807
0.0201914191674712,17.9810124654788
0.021735818321833,17.9821668082742
0.0231256448778622,17.9832493427683
0.0243708737342709,17.9843062037223
0.0254609427292785,17.985374763495
0.0263677042527353,17.9864974497766
0.027036351662005,17.9877431531056
0.0273349793817649,17.9892894063431
0.027065154744456,17.9908301185738
0.026384266994918,17.9922442325084
0.0254005676503283,17.9936277061816
0.0242127130071078,17.9949842264975
0.0228607173789669,17.9963572010292
0.0213605491342697,17.9977879664899
0.0197220622403551,17.9993135416818
0.0185995640677454,18.0003616042618
0.0175056620479853,18.0014096668417
0.0162326268355581,18.0026970114033
0.0143310616285783,18.0047908076727
0.0124298439445788,18.0071516114852
0.0105382853383513,18.0098711511878
0.00900688989620631,18.0124623283479
0.00776244884135069,18.0149424880849
0.00669508294568099,18.0174609869145
0.0057802236030202,18.0200473255446
0.00500250032249932,18.0227246815463
0.00435167585905804,18.0255162694894
0.00382207946704788,18.0284469896311
0.00341306165404796,18.031544829165
0.00313068308037533,18.0348424207957
0.00299153391704875,18.0383790143043
0.00301484265694521,18.0417155440646
0.00317287086838567,18.0447151472174
0.0034427882263152,18.0474282970271
0.00381270153515876,18.0499013467276
0.00427856792962521,18.0521784005938
0.00484458849034338,18.0543076698428
0.00552350769727859,18.0563377429343
0.0063414271712628,18.0583253874104
0.00734735316909825,18.0603435917596
0.00863769114143853,18.0625027275568
0.0103921834618972,18.064959853645
0.0126294432562011,18.0675887811631
0.0147690802154277,18.0697315895083
0.0167724620597639,18.0714762631863
0.0187994110517365,18.0730231386844
0.0209471615503236,18.074457845405
0.0232790314790956,18.0758159248852
0.0258405767812821,18.0771111648634
0.0286870510740652,18.0783563037228
0.0318563267036571,18.0795523287286
0.0354051749233633,18.0807056952384
0.0393817935601126,18.0818174476419
0.0438490141715747,18.0828912686172
0.048873779122952,18.0839296479859
0.0545338306482094,18.0849353773062
0.060921022268649,18.0859115844736
0.0681418141165917,18.0868612769613
0.0763246964152787,18.0877878700835
0.0856231879126757,18.0886948596123
0.0962241575060652,18.0895860309286
0.108358109381007,18.090465558688
0.122312529433826,18.0913380805365
0.138452521929644,18.0922089315057
0.157251399497023,18.0930844614622
0.179341567424271,18.0939726573658
0.205572067652067,18.0948832565288
0.235897494869296,18.0957948655598
0.271058928928633,18.0967159743635
0.31207619849215,18.0976605214454
0.36064509666095,18.0986573672469
0.398049220057145,18.0993687447783
0.436745319987314,18.1000801223097
0.471128296166652,18.1007143890398
0.501325063715297,18.101297176565
0.527866654012933,18.1018589215788
0.550697480939655,18.1024231241775
0.569254418771864,18.1030151053508
0.582192540700011,18.1036747259386
0.586087234384538,18.1044158246402
0.578149917259193,18.105181531499
0.557092464117806,18.1059938858042
0.522565968968708,18.1068372400765
0.474852795079179,18.107702213528
0.411848215369069,18.108617178908
0.361125175458776,18.1092536567493
0.305697516884954,18.1098901345907
0.257492801750938,18.1104154457293
0.216973099726414,18.1108494542694
0.181791330535597,18.1112292212097
0.150501202545597,18.1115761616998
0.122266899921016,18.1119030451472
0.0965310902231104,18.1122189829137
0.0728468537644941,18.1125321194547
0.0507464693655811,18.1128522947823
0.0294634312427389,18.1131977772552
0.00602690837534484,18.1136429484008
-0.00275735503518691,18.1138356436034
-0.010759274731968,18.114028338806
-0.017320531893035,18.1142017332503
-0.0235002268580531,18.1143810068495
-0.0297091271815694,18.1145808957684
-0.0356967247642759,18.1147980249609
-0.0413052102307107,18.115030424385
-0.0464466675756233,18.1152774259447
-0.05107534288261,18.1155392364487
-0.0551711112624005,18.1158167008953
-0.0587296604220499,18.1161111904599
-0.0617564472053109,18.1164245687187
-0.0642589575126442,18.1167592129747
-0.0663163464410444,18.1171345631366
-0.0677590646283381,18.1175190759136
-0.0687209394451993,18.1179355571567
-0.0692156686645155,18.1183898799444
-0.06925188764623,18.1188892437931
-0.0688318923318855,18.1194430272591
-0.0679459182860356,18.1200652341446
-0.0665673520372378,18.1207745033588
-0.0646404801702203,18.1215994288168
-0.0620457361704551,18.1225908185443
-0.058458116481201,18.1238714613305
-0.0543764892042765,18.1252828088157
-0.0504050125761503,18.1266505106956
-0.0465971905273174,18.127979123148
-0.0429804935170308,18.1292705914507
-0.0395700526511235,18.1305255011414
-0.0363738440450415,18.1317437584251
-0.0333949445203077,18.1329249528825
-0.0306327072361191,18.1340685491346
-0.0280835179893461,18.1351739860672
-0.0257413813706254,18.1362407239778
-0.0235984305607478,18.137268260612
-0.0216453916506294,18.13825612735
-0.0198720098468237,18.1392038717889
-0.0182674351233634,18.1401110301644
-0.0167209688379045,18.1410386211935
-0.0152332483911845,18.1419902099214
-0.0138082816156479,18.1429676988548
-0.0124498744976011,18.1439733313126
-0.0111616088030864,18.1450097518717
-0.00994678759077192,18.1460801072846
-0.00880837759569372,18.1471881805632
-0.00774894786812324,18.148338573171
-0.00677060371333775,18.1495369587503
-0.00587491403188815,18.1507904468744
-0.0050628284527815,18.1521081229382
-0.00433457746223261,18.1535018840145
-0.00368954229489713,18.1549878027666
-0.00312606700458501,18.1565885084854
-0.00266632686149503,18.1582349696546
-0.002295695180333,18.1599363828348
-0.0019985818699594,18.1617114042768
-0.00176036715362773,18.1635840161286
-0.00156689636049962,18.1655870260174
-0.00140382691520617,18.1677685174147
-0.00125545725847064,18.1702061079337
-0.00110190927173251,18.1730457723379
-0.000908456731327962,18.1766584807505
-0.000691102174208276,18.1804521042176
-0.00044064926985235,18.1844748640666
-0.000159845145371277,18.1887183006443
0.000145899931789641,18.1932057226304
0.000470288888392908,18.1979613804057
0.000808445348808782,18.2030109414361
0.00112099181072907,18.207801665566
0.00140247296165902,18.2122281141107
0.00167086559591245,18.2165414475562
0.0019441770787698,18.2210100245934
0.0022525041202903,18.2261165279055
0.00254830996866981,18.2310373107972
0.00284813569486435,18.2360160605543
0.00311703548279621,18.2404393179453
0.00336396600119887,18.2444487823154
0.00360437377550488,18.2482895275074
0.00384588159924853,18.252072192664
0.00409352739571921,18.2558609732929
0.00435147530421757,18.2597011834681
0.00462368554952791,18.2636291874089
0.00491425269818429,18.2676766264071
0.00522770565429375,18.2718734784078
0.0055692623216899,18.276249663453
0.00594514647429675,18.2808362804017
0.00636306512362636,18.2856668130466
0.00682750767396274,18.2907201342257
0.00731176998921603,18.2956523032766
0.0078279952724135,18.3005544984313
0.00837664954014231,18.3053850029455
0.00896358588222739,18.3101478787757
0.00959495950871937,18.3148412384497
0.0102784678884475,18.3194677242494
0.011036716024748,18.3241106374348
0.0118860461513139,18.3287810107025
0.0128467569111671,18.3334917235846
0.0139468249698822,18.3382697232381
0.0152294401229894,18.3431746218678
0.0167764996035781,18.3483553101674
0.0188201959734061,18.3543127116361
0.0206256630560796,18.3590171472453
0.0225505895963476,18.3637215828545
0.0241311581798177,18.3675440626007
0.0254371153719842,18.37085464798
0.0265303855691905,18.3739414595376
0.0274105265604428,18.3769464795208
0.0280205798512662,18.3798026513085
0.0283628175271872,18.382630645887
0.0284135078204348,18.3855773311418
0.0280849787677131,18.3889215271598
0.0270845903817978,18.3932878083469
0.0261883014576144,18.395998643869
0.0251283214344336,18.3987094793911
0.0240543586163951,18.4011802343102
0.022979762137038,18.403500350462
0.0219047673762732,18.4057370131214
0.0208320852764046,18.4079277220436
0.0197653440090441,18.4100960399673
0.0187082427829294,18.4122584941144
0.01766428684424,18.4144276395944
0.0166367205585129,18.4166136002674
0.0156285088231433,18.4188249628929
0.0146423456513604,18.4210693183954
0.0136806638147289,18.4233536287705
0.0127456416998082,18.4256844973804
0.0118392185417929,18.4280683550632
0.0109630981985563,18.4305116344469
0.0101187596700414,18.4330209049456
0.00930746374976798,18.4356030064288
0.00853026266201906,18.4382651713619
0.00776827864390966,18.4410913923777
0.00702209753465047,18.4441116473464
0.00629546650930155,18.4473492045624
0.00559229551360892,18.4508310472151
0.00491666124038723,18.4545883881426
0.00427274223423605,18.4586575249143
0.00366471257835515,18.4630810553727
0.00309656949420131,18.4679099010417
0.00257196057723387,18.4732067049075
0.00209392865725743,18.4790523517448
0.00166457421919348,18.4855545551593
0.00129294800301205,18.4926915794261
0.000982916001511948,18.5004121768782
0.000727835479485818,18.5088409060937
0.000521462015922872,18.5181441063448
0.00036862176200904,18.5281441063448
0.000273147947358258,18.5375364924084
0.00020236491878311,18.5475364924084
0.00015307144956961,18.5575364924084
0.000118853138036532,18.5675364924085
9.5476208722157e-05,18.5775364924085
7.98494764434515e-05,18.5875364924085
6.96798445756365e-05,18.5975364924085
6.33169623154347e-05,18.6075364924085
5.96139452267496e-05,18.6175364924085
5.77903615946091e-05,18.6275364924085
5.73178578435097e-05,18.6375364924085
5.78375880362748e-05,18.6475364924085
5.91054605464777e-05,18.6575364924085
6.09566944877014e-05,18.6675364924085
6.32823994690876e-05,18.6775364924085
6.60135672340967e-05,18.6875364924085
6.91099122930315e-05,18.6975364924085
7.25521123720333e-05,18.7075364924085
7.63365178563858e-05,18.7175364924085
8.04716606383201e-05,18.7275364924085
8.49760685717893e-05,18.7375364924085
8.98770344858939e-05,18.7475364924085
9.52101046928742e-05,18.7575364924085
0.000101019141153551,18.7675364924085
0.000107356878312856,18.7775364924085
0.000114285947391528,18.7875364924085
0.000121880384946165,18.7975364924085
0.000130227685028862,18.8075364924085
0.000139431500816045,18.8175364924085
0.00014961515793924,18.8275364924085
0.000160926215206568,18.8375364924085
0.000173542409117805,18.8475364924085
0.000187679461658627,18.8575364924085
0.000203601439650665,18.8675364924085
0.000221634665547358,18.8775364924085
0.000242186654545753,18.8875364924085
0.000265772292461698,18.8975364924085
0.000293050646596307,18.9075364924085
0.000324877723710015,18.9175364924085
0.000362383710400658,18.9275364924085
0.00040708879260175,18.9375364924085
0.000461081576237991,18.9475364924085
0.000523163068993535,18.9569608507381
0.00059325072839422,18.9656690479007
0.000672274778417529,18.9737091551148
0.000761369379400461,18.9811327589154
0.000861835341619202,18.9879879633394
0.000975148264214822,18.994319418516
0.00110297889443676,19.0001686158145
0.00124721865590188,19.0055741329751
0.00141001149334086,19.0105717780818
0.0015937836583227,19.0151947766642
0.0018012881076124,19.0194739899681
0.00203564864679079,19.0234381406761
0.00230041897293484,19.0271139464015
0.00259964505173767,19.0305262642347
0.00293794982000085,19.0336982900301
0.00332064270667188,19.0366517502097
0.0037538481519773,19.0394070492456
0.00424468735827001,19.041983481297
0.00480152789822755,19.0443994868533
0.00543432564939387,19.0466729208668
0.00615231042396954,19.0488137474356
0.00694280593049046,19.0507809915801
0.00781458881348062,19.0526066849601
0.00878084158245101,19.0543226143896
0.00986128824715789,19.0559611186956
0.0110887314906591,19.0575606686339
0.0125561700307752,19.0592100666463
0.0145186336275576,19.0611078832369
0.0168482880779312,19.0630686095608
0.0184905574059858,19.0643381071789
0.0201914195735098,19.065607604797
0.0217358186684518,19.0667619475624
0.0231256451739099,19.0678444820446
0.0243708739795577,19.0689013429986
0.0254609429180508,19.0699699027828
0.0263677043732297,19.0710925890912
0.0270363516905135,19.0723382924767
0.0273349792476074,19.0738845458711
0.0270651540765397,19.0754252590778
0.0263842656745672,19.0768393734154
0.0254005659521894,19.0782228470816
0.0242127110512136,19.0795793673926
0.0228607151989703,19.0809523419813
0.0213605467481192,19.0823831075515
0.0197220596579028,19.0839086829071
0.0185995631468103,19.0849567439473
0.0175056627247489,19.0860048049875
0.0162326269266624,19.0872921501056
0.0143310617741884,19.0893859462761
0.0124298446315845,19.091746749309
0.0105382869739229,19.0944662873124
0.00900689125276556,19.097057464457
0.00776244996250675,19.0995376241613
0.00669508385902274,19.1020561229276
0.00578022432501748,19.1046424614675
0.00500250086117016,19.107319817353
0.00435167621435398,19.1101114051529
0.00382207962973407,19.1130421251215
0.00341306160255644,19.1161399644481
0.00313068277417473,19.1194375558312
0.00299153328332965,19.1229741490428
0.00301484167598781,19.1263106800603
0.00317286959906618,19.1293102842699
0.00344278669747003,19.1320234349895
0.00381269975332784,19.1344964854447
0.00427856588135852,19.1367735399082
0.00484458613853124,19.1389028095906
0.00552350496944603,19.1409328829285
0.00634142393337926,19.1429205274144
0.00734734916241078,19.1449387314257
0.00863768583763004,19.1470978663137
0.0103921756895312,19.1495549904413
0.0126294340632913,19.1521839179012
0.0147690717915419,19.154326728203
0.0167724539039394,19.1560714029766
0.018799402675417,19.1576182790539
0.0209471526549752,19.1590529861373
0.0232790218666307,19.1604110658946
0.0258405662461422,19.1617063060901
0.0286870394505141,19.1629514451478
0.0318563138061479,19.1641474703322
0.0354051605587565,19.1653008370087
0.0393817774910963,19.1664125895606
0.0438489961797389,19.1674864106797
0.0488737589197221,19.168524790178
0.0545338079356618,19.1695305196202
0.0609209966833873,19.1705067268986
0.0681417852280256,19.1714564194854
0.0763246637116473,19.1723830126946
0.0856231507723366,19.1732900022971
0.0962241151806524,19.1741811736734
0.108358060942841,19.1750607014778
0.122312473718977,19.1759332233541
0.138452457462085,19.1768040743318
0.157251324351998,19.1776796042736
0.179341478999723,19.1785678001322
0.205571965650091,19.1794783993171
0.235897376976435,19.180390008347
0.271058792151039,19.1813111171152
0.312076038477399,19.1822556640993
0.360644905166447,19.183252509654
0.39804904442835,19.1839638876805
0.436745167141671,19.1846752657069
0.471128161998194,19.1853095327453
0.501324944118935,19.18589232042
0.527866548129649,19.186454065481
0.550697389950005,19.1870182680355
0.569254346061177,19.1876102490469
0.582192494214057,19.1882698692498
0.586087231345864,19.1890109679105
0.578149961373938,19.1897766746403
0.557092561906642,19.1905890287327
0.522566109268691,19.1914323831087
0.474852989997502,19.1922973563832
0.411848460010547,19.1932123216997
0.361125391393772,19.1938488002188
0.305697689344635,19.1944852787379
0.25749294136308,19.195010590299
0.216973218754568,19.1954445990701
0.181791435469997,19.1958243661454
0.150501296778184,19.196171306719
0.122266985529707,19.1964981902163
0.0965311687252842,19.1968141280062
0.0728469265315122,19.1971272645433
0.0507465381272259,19.1974474398277
0.0294634997592005,19.1977929221647
0.00602700172524424,19.1982380925438
-0.0027572937928545,19.1984307882987
-0.0107592408849403,19.1986234840537
-0.0173205034437374,19.1987968785677
-0.0235001974693024,19.1989761520594
-0.0297090982805916,19.1991760408899
-0.0356966973320393,19.1993931700076
-0.0413051848255246,19.1996255693627
-0.0464466444994444,19.1998725708544
-0.051075322283508,19.2001343812878
-0.0551710931938505,19.2004118456585
-0.0587296448788066,19.2007063351397
-0.0617564341461016,19.201019713305
-0.064258946928983,19.201354357455
-0.0663163395917612,19.2017297077547
-0.0677590597528986,19.2021142204154
-0.0687209364713379,19.2025307015189
-0.069215667547484,19.2029850241414
-0.0692518883616241,19.2034843877916
-0.0688318948865102,19.2040381710155
-0.0679459227494291,19.204660377592
-0.0665673585621416,19.2053696464059
-0.0646404890727961,19.2061945713154
-0.0620457481715327,19.2071859602043
-0.0584581339575133,19.2084666012797
-0.0543765063263677,19.2098779489795
-0.0504050290547397,19.2112456510329
-0.0465972062059703,19.2125742636455
-0.0429805083118612,19.2138657321032
-0.0395700665170034,19.2151206419481
-0.0363738569616049,19.2163388993871
-0.0333949564852172,19.2175200940018
-0.0306327182611283,19.2186636904135
-0.0280835280974711,19.219769127508
-0.0257413905937979,19.2208358655826
-0.0235984389377276,19.2218634023828
-0.0216453992250903,19.2228512692888
-0.019872016665623,19.2237990138975
-0.0182674412349826,19.2247061724448
-0.0167209747027111,19.2256337633776
-0.0152332539894814,19.226585352004
-0.0138082869323017,19.2275628408276
-0.0124498795182963,19.2285684731657
-0.0111616135145692,19.2296048935933
-0.00994679198107342,19.2306752488607
-0.00880838165436938,19.2317833219769
-0.00774895158651027,19.2329337144015
-0.00677060708483609,19.234132099772
-0.00587491705227081,19.2353855876547
-0.00506283112056952,19.2367032634349
-0.00433457977915127,19.2380970241719
-0.00368954426650865,19.239582942508
-0.00312606864125376,19.2411836477001
-0.00266632808213569,19.2428301086838
-0.00229569605753747,19.2445315215979
-0.00199858246781786,19.246306542687
-0.00176036753328585,19.2481791540704
-0.00156689658233413,19.250182163328
-0.0014038270423506,19.2523636538459
-0.00125545736388372,19.2548012430617
-0.00110190945789047,19.2576409052861
-0.000908457225630314,19.2612536087807
-0.000691102818046665,19.2650472313546
-0.000440650052604738,19.2690699905936
-0.000159846044672197,19.2733134264936
0.000145898948614185,19.2778008477325
0.000470287850341927,19.2825565046883
0.000808444274219501,19.2876060648207
0.0011209908543689,19.2923967903493
0.00140247207195514,19.2968232395896
0.00167086472138079,19.3011365730031
0.00194417615917702,19.3056051490942
0.00225250301298282,19.3107116491384
0.00254830886321849,19.3156324320808
0.0028481345384145,19.3206111811256
0.00311703445112183,19.3250344408163
0.00336396501096201,19.3290439061247
0.00360437278932556,19.3328846516898
0.00384588059525643,19.3366673169266
0.00409352635720891,19.3404560974445
0.00435147421604094,19.3442963073631
0.0046236843964713,19.3482243109254
0.00491425146381977,19.3522717494341
0.0052277043199625,19.356468600837
0.00556926086546824,19.360844785174
0.00594514486952522,19.3654314012976
0.00636306333662884,19.3702619329898
0.00682750581264204,19.3753152546768
0.00731176800248929,19.3802474238049
0.00782799316275976,19.3851496192425
0.00837664728527417,19.3899801240153
0.00896358346082691,19.3947430001233
0.00959495689256222,19.3994363600662
0.0102784650453367,19.4040628461276
0.0110367128430827,19.4087057591634
0.0118860425717881,19.4133761323131
0.012846752839088,19.4180868449941
0.0139468202722322,19.4228648442958
0.0152294345773643,19.4277697422208
0.0167764927310086,19.4329504288651
0.0188201859998863,19.4389078246878
0.0206256553785215,19.4436122682462
0.0225505849045396,19.4483167118046
0.024131154594156,19.4521391940406
0.0254371123777525,19.4554497802926
0.0265303830868817,19.4585365921868
0.0274105247572131,19.4615416127035
0.028020578693706,19.4643977847148
0.028362817032831,19.4672257792031
0.0284135080966247,19.470172463932
0.0280849802007832,19.4735166583193
0.0270845928538139,19.4778829402135
0.0261883041538497,19.480593776685
0.025128324127794,19.4833046131565
0.0240543612994927,19.4857753686017
0.0229797648218662,19.4880954850309
0.0219047700593881,19.4903321478441
0.0208320879493504,19.4925228568481
0.0197653466624896,19.4946911748051
0.0187082454078153,19.4968536289501
0.0176642894321137,19.4990227744002
0.0166367231016172,19.5012087350202
0.015628511314387,19.5034200975727
0.01464234808435,19.5056644529842
0.0136806661836701,19.5079487632516
0.0127456439995451,19.5102796317375
0.0118392207677893,19.5126634892803
0.0109631003467901,19.5151067685082
0.0101187617370883,19.5176160388343
0.00930746573270532,19.5201981401276
0.00853026455845793,19.5228603048524
0.00776828050651012,19.525686525413
0.00702209935365685,19.5287067798756
0.00629546827530721,19.5319443365235
0.00559229721673732,19.5354261785366
0.0049166628704134,19.5391835187417
0.00427274378078175,19.543252654694
0.00366471403124341,19.5476761842188
0.00309657084395198,19.5525050288157
0.00257196181548635,19.5578018314352
0.00209392977774587,19.5636474767973
0.00166457521762363,19.5701496784292
0.00129294884093319,19.5772867013845
0.000982916695637226,19.5850072972609
0.000727836045890424,19.5934360245435
0.000521462469367984,19.6027392223906
0.00036862206479895,19.6127392223906
0.000273147991764759,19.6221316270743
0.000202364951575421,19.6321316270743
0.000153071474132478,19.6421316270743
0.000118853156063547,19.6521316270743
9.54762216957075e-05,19.6621316270743
7.98494857511526e-05,19.6721316270743
6.9679851347726e-05,19.6821316270743
6.33169673632973e-05,19.6921316270743
5.96139490919313e-05,19.7021316270743
5.77903646322988e-05,19.7121316270743
5.73178602918103e-05,19.7221316270743
5.78375900600744e-05,19.7321316270743
5.91054622623616e-05,19.7421316270743
6.09566959785052e-05,19.7521316270743
6.32824007934619e-05,19.7621316270743
6.60135684334336e-05,19.7721316270743
6.9109913396595e-05,19.7821316270743
7.25521134006724e-05,19.7921316270743
7.63365188251379e-05,19.8021316270743
8.04716615582031e-05,19.8121316270743
8.49760694510289e-05,19.8221316270743
8.98770353307688e-05,19.8321316270743
9.52101055083051e-05,19.8421316270743
0.000101019141943512,19.8521316270743
0.000107356879080662,19.8621316270743
0.000114285948140044,19.8721316270743
0.000121880385677948,19.8821316270743
0.000130227685746272,19.8921316270743
0.000139431501521328,19.9021316270743
0.000149615158634601,19.9121316270743
0.000160926215894238,19.9221316270743
0.00017354240980011,19.9321316270743
0.000187679462338075,19.9421316270743
0.000203601440330056,19.9521316270743
0.000221634666229935,19.9621316270743
0.000242186655235418,19.9721316270743
0.000265772293163327,19.9821316270743
0.00029001160384545,19.9910658135372
0.000317764732893688,20
