ecg,time
0.000389506699467933,15.0084750057941
0.000325551668465418,15.0184750057941
0.000285148275025036,15.0284750057941
0.000261693018671539,15.0384750057941
0.000250522760862606,15.0484750057941
0.000248495130451094,15.0584750057941
0.00025360427405261,15.0684750057941
0.000264668281433384,15.0784750057941
0.000281113305820886,15.0884750057941
0.000302848637335147,15.0984750057941
0.000330215562904267,15.1084750057941
0.000363998361128817,15.1184750057941
0.0004054987544128,15.1284750057941
0.000456691677301282,15.1384750057941
0.000517524685045252,15.1480478963987
0.000587229205506631,15.1568834593848
0.000666779006254228,15.1650278075885
0.000757453399663173,15.1725364574641
0.000860751276472493,15.1794610223097
0.000978388225350652,15.1858491373307
0.00111231466777417,15.191744832738
0.00126474384592825,15.1971888618455
0.00143818681507701,15.2022189800972
0.00163549288982335,15.2068701978135
0.00185989901870757,15.2111750163694
0.00211508858840855,15.2151636516207
0.00240526511339731,15.2188642448734
0.00273524338477568,15.222303073841
0.00311056825765181,15.2255047746763
0.00353767114061295,15.228492582225
0.00402408269333942,15.2312886029633
0.00457873421166755,15.2339141515196
0.00521240140434041,15.2363901972346
0.00593095112787234,15.238716044155
0.0067278669970513,15.2408673051054
0.00761556270418957,15.2428830360407
0.00861370844126806,15.2448047238495
0.00975601006583145,15.2466824989402
0.0111126812745046,15.2485973955929
0.0129612313989395,15.2508357148164
0.0145164685045364,15.2525036263569
0.0161921928516357,15.2541715378973
0.017691903584933,15.2556135264189
0.0190072761328725,15.2568891738704
0.0201818077106831,15.2580867857455
0.02122232165582,15.2592567798169
0.0221161402045106,15.2604389997687
0.0228344699397227,15.2616790670351
0.0233223895329822,15.263051300943
0.0234465348050126,15.2647477575988
0.0229970015025219,15.2666018221418
0.0220271202506764,15.2684558866848
0.0209330013030214,15.2699793001412
0.01972219608561,15.2714261100828
0.0183905330585699,15.2728891132704
0.0169465106770605,15.274411370772
0.0158374819060768,15.2755684160065
0.0147502673647955,15.2767254612409
0.0137471785936141,15.2778482742413
0.0114836781763513,15.280636425784
0.00952324299215341,15.2834318378882
0.00795489618255931,15.2860294031721
0.00664902546421221,15.2885345542129
0.00550477819941124,15.2910817955738
0.0044966823858615,15.2937001120718
0.00360668565999361,15.2964129697506
0.00285532001042354,15.299106537449
0.00224943819779821,15.3016444871482
0.0017520199342752,15.3040530951162
0.00133486551784304,15.30636601809
0.0009769752694004,15.3086202940895
0.000661953869474622,15.3108608837367
0.000375343363516527,15.313154255317
9.87733269204844e-05,15.315645289935
-0.00015410463281226,15.3182076293163
-0.000325682959801965,15.3201251949351
-0.000484393313276237,15.3220427605539
-0.000616206594776638,15.3237489071048
-0.00073301699035501,15.3253521014831
-0.000844089695698963,15.3269593511039
-0.000956565997170647,15.3286714461373
-0.00108028900181189,15.3306545150647
-0.00124511084651026,15.3334587937604
-0.00144667617718513,15.3371357144811
-0.00160519378594657,15.3402147267969
-0.00175084736704766,15.3431881747633
-0.00190904415245316,15.3465826753585
-0.00209822885692364,15.3509144948002
-0.00231295310932269,15.3564418146832
-0.0024639309401257,15.3614702895225
-0.00253655025257802,15.3659924591339
-0.0025197455618191,15.3700497910606
-0.00240728269246686,15.3736924762576
-0.00219717269525382,15.3769807182307
-0.00188897953250233,15.3799780390239
-0.00148028665523235,15.3827507874319
-0.000964559809913671,15.3853607763415
-0.000326619414853896,15.3878763043948
0.00046798727963925,15.3903920537083
0.00150117595223044,15.3930727070373
0.00287675354148478,15.3960496836622
0.00460629893378461,15.3992493112318
0.00616335367917465,15.4018028186674
0.00752876076796913,15.4038411481732
0.00902990119955682,15.405879477679
0.0105224198395487,15.407701229029
0.0120807534775075,15.4093974778235
0.0137343851229332,15.4109889328712
0.0155366490949046,15.4125111827098
0.017524330425785,15.4139750559894
0.0197276508456248,15.4153831075667
0.0221821335204114,15.4167396423967
0.0249227156381306,15.4180466568772
0.0279811719466202,15.4193037623164
0.0314035649789927,15.4205154566382
0.0352363205210289,15.4216840797398
0.0395305456238547,15.4228117705418
0.0443511383861467,15.4239023606374
0.0497723535998388,15.424959297142
0.0558814263801126,15.4259860627835
0.0627826902947363,15.426986356305
0.0706015181354816,15.4279640433529
0.0794928471759938,15.428923512264
0.089649712350905,15.4298696561662
0.101316900279165,15.4308080790121
0.11481332128093,15.4317455349505
0.130568063683349,15.4326905762486
0.149184499304505,15.433654750107
0.171172421986064,15.4346386294997
0.196654921986699,15.4356276141254
0.226321296794006,15.4366329556705
0.261112939884856,15.437671099277
0.302489904952213,15.4387708374341
0.338887885112568,15.4396590150537
0.37712157542677,15.4405471926733
0.410868150394539,15.441321283644
0.440259846757368,15.4420145637738
0.46595473417285,15.4426652710684
0.488047867276527,15.443299243558
0.50620999313611,15.4439385565782
0.519636549499915,15.4446082055992
0.526670684313308,15.4453460071931
0.52418117108863,15.4461510666791
0.510246151196897,15.4469767579221
0.483510980190922,15.4478392758588
0.442213527515435,15.4487504079753
0.3844020336232,15.4497186616423
0.340049115524794,15.4503448874649
0.291137592162701,15.4509711132875
0.247571051042172,15.4514966771248
0.210183237943304,15.4519373512797
0.177309909015896,15.4523259107888
0.14785005188527,15.4526820949662
0.121136049973758,15.4530180870512
0.0967081958766835,15.4533427168988
0.074191544276926,15.4536638298759
0.0531962999135981,15.4539905930886
0.0331182630333563,15.4543388129108
0.0120389540827156,15.4547609538248
0.00159280692519164,15.4550017137219
-0.00574301822712255,15.4551881884648
-0.0124480565040839,15.4553746632077
-0.0183438210094473,15.4555544659115
-0.0243561278994037,15.4557571240718
-0.030210877162248,15.4559786299717
-0.0357271653562895,15.4562163429956
-0.0408038928308826,15.4564692027196
-0.045387594590171,15.4567371820106
-0.0494532985880973,15.4570209739493
-0.0530486464884431,15.4573279384906
-0.056008492197237,15.4576452047748
-0.0584501511457467,15.4579832586374
-0.0603877459910399,15.4583450181565
-0.0618355867546273,15.4587339401301
-0.0628077132477261,15.4591542895732
-0.0633163764863999,15.4596113721013
-0.0633704227181882,15.4601118784668
-0.0629733205571899,15.4606644148351
-0.062118430908408,15.4612815468299
-0.0607848611166984,15.4619798674279
-0.0589293173627174,15.4627835995604
-0.0564634448458753,15.4637328837449
-0.0531783389615989,15.4649106601983
-0.0491030643488711,15.4663217923477
-0.0451447795684782,15.4676838985831
-0.0413596476502023,15.4690039089637
-0.0377758315793483,15.4702847642565
-0.034407734438977,15.4715276370108
-0.0312619948131035,15.4727328038933
-0.0283401167978901,15.4739001030646
-0.02563984223872,15.4750291748902
-0.0231560197098057,15.4761195870145
-0.0208812563555023,15.4771708951866
-0.0188064635050568,15.4781826664193
-0.0169213365288129,15.4791544786697
-0.0152147818406253,15.4800859048215
-0.0136353708846111,15.4810003068601
-0.0121143962035803,15.4819380224752
-0.0106565926580897,15.4829004693153
-0.00926593272268328,15.4838897008889
-0.00794620420610458,15.4849081215812
-0.00670095643733639,15.4859585758659
-0.00553344902246718,15.4870444617475
-0.00444659835083474,15.4881698829648
-0.00344292187325089,15.4893398578205
-0.00252447977727993,15.490560613369
-0.00169281309081744,15.4918400130123
-0.000948876201647492,15.4931882018108
-0.000292959836586069,15.4946186263568
0.000275403352113667,15.4961497431538
0.000748693309123547,15.4977732168223
0.001119414151151,15.4994407357569
0.0014042569401378,15.5011706030296
0.00161792997088669,15.5029832677432
0.00177419682603265,15.5049058772692
0.00188626986854829,15.5069765549455
0.00196738868358845,15.5092532166311
0.00203188130875168,15.5118345496613
0.00209797426777398,15.514925044118
0.00218710598602058,15.5186583430534
0.00230468619746739,15.5225894775689
0.00245635345875315,15.5267516619368
0.00261829772654894,15.5306533606795
0.00278773026213036,15.5344402931006
0.00296330248279872,15.5381984734721
0.00314478070172325,15.5419827803418
0.00333293308498831,15.5458341545644
0.00352934236250692,15.5497868519562
0.00373623699799351,15.5538720820054
0.00395636932232598,15.5581202637844
0.00419294998116279,15.5625625532381
0.00444967815611749,15.5672321846517
0.00473092948588838,15.5721659226565
0.00504216461489736,15.5774053219661
0.00538039303999024,15.5828352416879
0.00572773377120573,15.588119696593
0.00609205015480747,15.5933460339904
0.00647375770458943,15.5984756876844
0.00687734183765799,15.603525242903
0.00730691501746863,15.6084998437775
0.00776728290151558,15.6134075973365
0.00826351989293277,15.6182533385186
0.00880114542041905,15.6230399470191
0.0093861791327996,15.6277681524695
0.0100252722524387,15.6324371335994
0.0107289268031287,15.6370644430766
0.0115208577756561,15.6417280188534
0.012416161732463,15.6464212327106
0.0134382280687163,15.6511633141889
0.0146205760286631,15.6559923851511
0.0160203804800599,15.6610001276762
0.0177655283515226,15.6664421047148
0.0201796365024824,15.6729830665811
0.0217725334165059,15.6769201167185
0.0234160721126884,15.680857166856
0.0248512168740214,15.6843528768075
0.0260611445272051,15.6875213057053
0.0270660212043387,15.6905484924
0.0278282132268588,15.6934566818579
0.0283242412104471,15.6962709336909
0.0285465470351861,15.6991162851369
0.0284517666018833,15.7021718805085
0.0278742000143626,15.7059111930163
0.0270529211888896,15.7089981169414
0.0259750884881129,15.7120850408665
0.0248922094957126,15.7147318351935
0.0238179854939601,15.71713129261
0.0227436012538392,15.7194061869333
0.0216692522260704,15.7216130943718
0.0205980673952726,15.7237834929706
0.0195337382218548,15.725937954948
0.0184798929672018,15.7280913801765
0.0174399282326063,15.7302553712622
0.0164169649799427,15.7324394973165
0.0154138460166311,15.734652036461
0.0144331446442012,15.7369004532779
0.0134771745067268,15.7391917325542
0.0125480039633098,15.7415326170075
0.0116474628757998,15.7439298112468
0.0107771524467764,15.746390149815
0.00993845960992884,15.7489207365776
0.00913255892906111,15.7515291162294
0.00835842558568684,15.754230681704
0.00759729701337423,15.7571134485109
0.00685305169354538,15.7601978815729
0.00612948747329114,15.7635087301509
0.00543060742643375,15.7670745856087
0.00476058071065594,15.7709285949476
0.00412366714450121,15.7751094271974
0.00352409588174074,15.7796626853016
0.00296587803755887,15.7846432658628
0.00245253575485851,15.7901197822654
0.00198685568324463,15.7961818867046
0.00157083672077183,15.8029503199702
0.00122005442127887,15.8102513690765
0.000941149777829627,15.8181679787531
0.000749134684691806,15.8258985680973
0.000595220804169827,15.8343473111491
0.000472956613408186,15.843651934375
0.000382408419390926,15.853651934375
0.000322973241501438,15.863651934375
0.000286038586653893,15.873651934375
0.000265349320061224,15.883651934375
0.000256512900285153,15.893651934375
0.00025660018456602,15.903651934375
0.000263776221873656,15.913651934375
0.000277004491830928,15.923651934375
0.000295848699314449,15.933651934375
0.00032036562414798,15.943651934375
0.000351073346070416,15.953651934375
0.000388986776960634,15.963651934375
0.000435727728305809,15.973651934375
0.00049332198055195,15.9835862884005
0.000559582289601599,15.992766904563
0.000635299409313367,16.0012275784225
0.000721648861075197,16.009025844694
0.000820043009172464,16.0162156044525
0.000932112254189287,16.0228465439503
0.00105971499161833,16.0289645334867
0.00120496207566588,16.0346119912891
0.00137024914643586,16.039828189714
0.00155829537608829,16.0446495226048
0.00177218879249841,16.0491097529676
0.00201544210333689,16.0532402466418
0.00229206028493057,16.0570701922891
0.00260662508437,16.0606268146735
0.00296440356777352,16.0639355956818
0.00337148957128798,16.0670205121769
0.00383499539827594,16.0699043000417
0.00436331855494321,16.0726087706709
0.00496652971265725,16.0751552216875
0.00565696518897646,16.0775650121985
0.00642455368933163,16.0797925597488
0.00727824366154573,16.0818701322569
0.00823511300808957,16.0838390182642
0.00932339163864467,16.0857463292547
0.0105979756892083,16.087660819369
0.0122273388856433,16.0897633802635
0.0138775472985442,16.0916317760383
0.01568954564657,16.0935001718132
0.017241077784511,16.0950256084789
0.0185764606791376,16.0963383981068
0.0197654438912052,16.0975568791918
0.0208217608905024,16.0987382208796
0.021736104267765,16.0999232002751
0.0224834759456376,16.1011550634817
0.0230165634834321,16.1024989592363
0.0232301465716737,16.1041036424477
0.0228760545085796,16.1060568298039
0.0221629004798407,16.1076179925234
0.0211479244823914,16.1091791552429
0.019997398659483,16.1106394270927
0.0187223698192037,16.1120944630336
0.0173328371296269,16.1135927384654
0.0158381058797956,16.1151704183209
0.0152584082554602,16.1157829736817
0.0146916156238778,16.1163955290425
0.0124886027953378,16.1189610293708
0.0103275132232122,16.1218491920598
0.00859976803527517,16.1245339913399
0.00720632883345753,16.1270423623681
0.00599454271890018,16.1295680887494
0.00492830729928672,16.1321538548524
0.00398741457762447,16.1348240057894
0.00316739963712167,16.1375602349829
0.00250792134837233,16.1401387536191
0.00196890115325779,16.142582112489
0.00151915164778648,16.1449230096048
0.00113522965156575,16.1471990727307
0.000798754196139232,16.1494572413895
0.000493433193051599,16.1517685983017
0.000198758916134327,16.1542876199825
-6.37035427443607e-05,16.1568177911083
-0.000245474080761568,16.1587545897919
-0.000413103456137727,16.1606913884756
-0.000551795544025381,16.1624130204472
-0.000674506742853353,16.1640324157207
-0.00079099165996323,16.1656572976903
-0.000908744809256649,16.1673897665446
-0.0010381003202564,16.1693996516252
-0.0012107353206074,16.1722579236559
-0.00141718553125395,16.1759385427331
-0.00157894927208824,16.1790207656086
-0.00172782501397138,16.1820119307645
-0.00188909076361845,16.1854295875534
-0.00208071492337544,16.1897827454001
-0.00229497927103359,16.1952933827425
-0.00244345114176771,16.2002938559283
-0.00251265028703619,16.20479861835
-0.00249163247489308,16.2088443556239
-0.00237427993695938,16.2124825603473
-0.00215882324616692,16.2157682762922
-0.00184493371826901,16.2187649329208
-0.00143034740506894,16.2215376090323
-0.000908176883664175,16.2241499332041
-0.000262030297285814,16.2266736953982
0.000544701786199492,16.2292072171592
0.00159855443785411,16.2319217998348
0.0029931151251738,16.2349217900513
0.00473958307172443,16.2381368534973
0.00624443543507877,16.2405956310853
0.00791345532752958,16.2430544086733
0.00944863370414058,16.2450820835545
0.0109604797762221,16.2468687978654
0.0125370752167332,16.248525493508
0.0142353125440526,16.2500995658145
0.0160882931469425,16.2516035895351
0.0181395402571414,16.2530531041962
0.0204138737111678,16.2544461697861
0.0229502872105238,16.2557889091487
0.0257818070960758,16.2570819402476
0.02894382503972,16.2583262587693
0.0324826966387786,16.2595258146883
0.0364469179016079,16.260683115307
0.0408900025986225,16.2618004100685
0.045880458946573,16.2628816966947
0.0514960776990158,16.2639303983645
0.057828944314347,16.2649500701066
0.0649895984615692,16.2659444996952
0.073111347567344,16.2669176592994
0.0823602267128748,16.2678741411405
0.0929438939156196,16.2688190609897
0.105128139690297,16.2697583910653
0.119263027280192,16.270699456053
0.135826443205113,16.2716517325498
0.155505020249221,16.2726284161365
0.17849890616668,16.2736153063014
0.205185433980171,16.2746109277508
0.236325264709061,16.275628102835
0.272991480662866,16.2766864549023
0.316816345238397,16.2778195473387
0.351557560532527,16.2786537837618
0.387511356552888,16.2794880201849
0.419496483867105,16.2802313347571
0.447493954567973,16.2809098611007
0.471889815967482,16.2815552521466
0.492620577287225,16.282191127165
0.509214365867364,16.282839686547
0.520653253637688,16.2835284208446
0.524803801449949,16.2843031537669
0.518517287356696,16.2851149663096
0.500415343918117,16.2859527232989
0.46900219026815,16.2868311019363
0.422445828077853,16.2877603048379
0.375014968173729,16.2885166355875
0.319940767441744,16.2892729663371
0.281217652917831,16.2897597126485
0.240765588088877,16.29024645896
0.204458480782513,16.2906756097156
0.172270932583792,16.2910583669691
0.143344353102809,16.2914111320178
0.117070656215787,16.2917452211843
0.0930138037474544,16.2920691617715
0.0708062486536173,16.2923908178317
0.050046693769487,16.2927198499965
0.0300608931140981,16.2930741719289
0.00830259791631478,16.2935237920619
-0.000321627569931163,16.2937291256119
-0.00816094030192233,16.2939344591619
-0.0145639202428446,16.2941189267292
-0.0205413317066329,16.2943083506859
-0.0265149775812555,16.2945188261264
-0.0322516598984353,16.2947469543147
-0.0376053617776307,16.2949907664887
-0.0424957734877156,16.2952496350492
-0.046881795509827,16.295523826627
-0.050743957499583,16.2958142573971
-0.0542975781687859,16.296146480761
-0.057028355964876,16.2964732279679
-0.0592447278462642,16.2968216982964
-0.0609636570657203,16.2971953066752
-0.062199512827639,16.2975978422999
-0.0629657082577362,16.2980339887237
-0.0632731951963261,16.2985096015856
-0.0631287381393859,16.2990321211581
-0.0625322379480302,16.2996115458275
-0.06147121571613,16.3002622161458
-0.0599167801161647,16.3010033147533
-0.057810518346787,16.3018644123671
-0.0550285318068037,16.3028983185435
-0.0512312088329376,16.3042345293111
-0.0472053230137206,16.3056212279621
-0.0433248642438659,16.3069633346621
-0.0396326788629601,16.3082648862031
-0.0361495986416168,16.309527894804
-0.0328860162635069,16.3107530690944
-0.029845980417174,16.3119404593405
-0.0270291184820326,16.313089801814
-0.0244317306387841,16.3142006997187
-0.0220475421690291,16.3152727154017
-0.0198683004138837,16.3163054121372
-0.0178842884324065,16.3172983655553
-0.0160847801562636,16.3182511555859
-0.0144584441890514,16.3191633448785
-0.0129055239370338,16.3200885991776
-0.0114134567437081,16.3210376971962
-0.00998643862175716,16.3220124507812
-0.00862836266823666,16.323015068052
-0.00734291067313715,16.3240481479113
-0.0061335020079963,16.3251147785905
-0.00500324127934858,16.3262186675472
-0.00395486377237092,16.3273643174984
-0.00299067852729535,16.3285572708247
-0.00211250842476961,16.3298044587226
-0.00132162587969695,16.3311147172568
-0.000618681343103458,16.3324995822318
-3.61912162797208e-06,16.3339745779122
0.000524430654434531,16.3355614480256
0.00094750502428757,16.3372033326371
0.00127626722422256,16.338898010579
0.00152623591875954,16.340664006433
0.00171164148421223,16.3425245607246
0.00184594036652984,16.3445112663055
0.00194228297698192,16.3466700200492
0.00201425910508743,16.3490739682011
0.00207749935370613,16.3518577371412
0.00215507101424125,16.3553473510745
0.0022561238158071,16.359120418271
0.00239561322255992,16.3632884433499
0.00254980235225422,16.3672002171245
0.00271479259987325,16.3709915572061
0.00288816371467337,16.3747506988876
0.00306872648331255,16.3785335998708
0.00325650546138091,16.3823816960282
0.00345254904578266,16.386329500017
0.00365872587558057,16.3904083366064
0.00387756029990794,16.3946486476685
0.0041121207718683,16.3990815444746
0.00436600250395603,16.4037401451685
0.00464346930919633,16.4086610363692
0.00494981690370775,16.4138855523465
0.00528523600092482,16.4193511747524
0.00562815428226257,16.4246542731937
0.00598770986116337,16.4299051600911
0.00636369255478849,16.4350557513899
0.00676065991187379,16.4401251685057
0.00718257511366895,16.4451180342623
0.00763414624046892,16.4500430558731
0.00812030860459773,16.4549054153235
0.0086464248806878,16.4597083992149
0.00921833042119883,16.4644530696749
0.00984246494856362,16.4691388574399
0.0105260122957253,16.4737641827503
0.0112931942448506,16.478420274448
0.0121587457260473,16.4831040108353
0.013144030482099,16.4878304778007
0.0142789527583905,16.4926301565527
0.0156120239393652,16.4975749117142
0.0172421459119683,16.5028529547303
0.019499881431991,16.5091922502107
0.0211894745012772,16.5134647676548
0.0229630924680455,16.5177372850988
0.0244790150291818,16.5213926964131
0.0257480462029604,16.5246309633677
0.0268092532319503,16.5276822083637
0.0276456211561405,16.5306372785728
0.0282140801412837,16.5334658864312
0.028513255464268,16.5362888214527
0.0285127922155039,16.539261892902
0.0281028321272168,16.5427169260461
0.0273165722312753,16.5460698029599
0.0262087399630898,16.5494226798737
0.0251141579614377,16.5521692167283
0.0240385392315816,16.5546080570471
0.0229642941717058,16.5569029062518
0.0218896978815719,16.5591208441236
0.0208175305855609,16.5612969420198
0.0197514436883543,16.5634534483919
0.0186950994402864,16.5656061869369
0.0176519475561076,16.5677673173441
0.0166251661890068,16.5699467607239
0.0156176550364192,16.5721530207805
0.0146320409782255,16.5743937075767
0.0136706900762477,16.57667589042
0.0127357202887358,16.5790063539689
0.0118290080419106,16.5813918120852
0.0109522027648925,16.5838390685704
0.0101067324942933,16.5863551831906
0.00929381614977557,16.5889476146464
0.00851447004606981,16.5916243848161
0.00775035673172318,16.5944685878071
0.00700233191835536,16.5975099748657
0.00627418908082306,16.6007724414123
0.0055698921156261,16.6042837387678
0.00489358006494066,16.608076018157
0.00424950095166042,16.6121867310571
0.00364190215465882,16.6166599167698
0.00307485826746788,16.621548299744
0.00255201485757577,16.6269171786196
0.00207632025951779,16.6328511429991
0.00164992020901587,16.6394636676934
0.00128580595544058,16.6466500238186
0.000992014116301666,16.6544288677703
0.000762168673040596,16.6631919895463
0.000615529937873314,16.6709839680147
0.000485409223999608,16.6804224823609
0.000390374244638714,16.6904224823609
0.000327584017623554,16.7004224823609
0.000288117375333363,16.7104224823609
0.000265473908203038,16.7204224823609
0.000255054749628151,16.7304224823609
0.000253765486301151,16.7404224823609
0.000259642834788365,16.7504224823609
0.000271547090419722,16.7604224823609
0.000288949938642286,16.7704224823609
0.000311814071911894,16.7804224823609
0.000340548436810712,16.7904224823609
0.000376028508307933,16.8004224823609
0.000419684897332535,16.8104224823609
0.000473681938867992,16.8204224823609
0.000536684982721675,16.829806717307
0.000608761065158026,16.8384616632545
0.00069097504146203,16.8464399593453
0.000784659409171791,16.8537962018713
0.000891363343856489,16.8605809168395
0.0010128559533924,16.8668407536541
0.00115114740491631,16.8726188506363
0.00130851865085669,16.8779551487312
0.0014875578729162,16.8828866608568
0.00169120241185464,16.8874477193082
0.00192279061906531,16.8916702080402
0.00218612341887158,16.8955837818099
0.00248554179600577,16.8992160749911
0.00282602381541988,16.9025929137428
0.00321331075460186,16.9057385412026
0.00365407538248437,16.9086758627501
0.00415615194318188,16.9114267301218
0.00472886505185841,16.9140122981497
0.00538351997011776,16.9164535064425
0.00612004847473427,16.918731934626
0.00693739734491667,16.9208451216447
0.00784937186966513,16.9228324087381
0.00887799988457692,16.9247362576538
0.0100624000051708,16.9266108612946
0.0114896539421902,16.9285523793764
0.0135782172362803,16.9309830864392
0.0150641129987329,16.9325253877403
0.0166400926402536,16.9340676890413
0.0180793825567777,16.9354461747347
0.0193564744957676,16.9366933598493
0.0204973960435997,16.9378785173607
0.0215023883585024,16.9390469195035
0.0223546786520353,16.940238444711
0.0230202256999568,16.9415031902857
0.0234322359724857,16.9429315427501
0.0234012219307079,16.9448068087681
0.0228292841004855,16.9465445832244
0.0218266224550692,16.9482823576807
0.0207094801480362,16.9497719743698
0.0194712423912916,16.9512164834086
0.0181132585925246,16.9526887673969
0.0166446428320203,16.9542283768138
0.0157529942675747,16.955157835353
0.0148779346432881,16.9560872938921
0.0138204799769867,16.9572650006837
0.0115541153935719,16.9600451630158
0.00958072985409107,16.9628467024356
0.00800269126074982,16.9654493585205
0.00669189184431291,16.9679536140686
0.00554367674803881,16.9704989652396
0.00453224899334586,16.9731146881658
0.00363943433328922,16.975824268711
0.0028775205869772,16.9785460941406
0.00226417738214829,16.9811109999366
0.00176152068056474,16.983545109957
0.00134062611454426,16.9858826923189
0.000979860695574341,16.9881624608504
0.000662442562367384,16.9904310067969
0.000373576868295721,16.9927574779613
9.42092197732148e-05,16.9952950982482
-0.00015176488052343,16.9978086512294
-0.000324050940786467,16.9997492713157
-0.000483268017758946,17.001689891402
-0.000615174551396049,17.0034135122613
-0.000732133712048501,17.0050349302202
-0.000843405726822009,17.006662135439
-0.000956165810830497,17.008397640936
-0.00108040212065844,17.010412230647
-0.00124708243940151,17.0132839095766
-0.0014457235777553,17.0169544252015
-0.00160202418112253,17.0200290809565
-0.00174657493589722,17.0230187783212
-0.00190358956886246,17.0264361265358
-0.00209041639315753,17.03078684171
-0.00229940687026857,17.0362968657899
-0.00244313247462107,17.0412887925865
-0.00250806860907876,17.0457826614875
-0.00248322447105514,17.0498153114346
-0.00236249894026411,17.0534403169426
-0.00214394109686087,17.0567154982093
-0.00182676666044296,17.0597062701393
-0.00140824424597822,17.0624775215344
-0.000881513319062424,17.0650899926656
-0.0002308554147445,17.067611692654
0.000578673540270844,17.0701360845219
0.00162920909204851,17.0728250463669
0.00302783265872239,17.075813218595
0.00477489459236581,17.0790011922611
0.00629264887227424,17.081453884618
0.00797917709789485,17.0839065769749
0.00954145125970372,17.085940714553
0.0110716953553712,17.0877218290456
0.0126738883690303,17.0893792872499
0.0143934239366221,17.0909479567672
0.0162708635429994,17.0924478548002
0.0183467266119564,17.0938918271631
0.0206488289734577,17.0952800843397
0.0232147725523398,17.0966176475463
0.0260800098000666,17.0979062297908
0.0292787163413986,17.0991460521728
0.0328588620786512,17.1003414911407
0.0368697908702124,17.1014950714139
0.0413664792497268,17.1026091700881
0.0464176687938251,17.103687539787
0.0521030503800152,17.1047337309174
0.0585165642365544,17.1057513205145
0.0657711109584111,17.1067441269539
0.0740034836957045,17.1077162142504
0.0833832254381967,17.1086721619904
0.094124132979515,17.1096172304848
0.106500439988103,17.110557554219
0.120874982667794,17.1115007111414
0.13774637236629,17.1124566056819
0.157837270883799,17.1134391814368
0.18120942589623,17.1144279984083
0.208352479228137,17.1154270964874
0.240058210580655,17.1164500327897
0.277461372707254,17.1175180052708
0.321667513873416,17.1186521060184
0.364469129744475,17.1196722235679
0.399723317339239,17.1204907554084
0.430024068619586,17.1212065775015
0.456513971163928,17.1218705173925
0.479428157306238,17.1225111093726
0.498542071946427,17.1231506449356
0.513199415193858,17.1238124079165
0.522057614174367,17.1245285384596
0.522304080655312,17.125334400064
0.511432227515465,17.1261554122122
0.488222304649074,17.1270084262276
0.451029852705351,17.1279061993451
0.397969317837931,17.1288576207154
0.352627361873584,17.1295299447582
0.301692816889873,17.1302022688009
0.256402270249147,17.130758217527
0.217885359839007,17.1312163670839
0.184219834987605,17.1316156463237
0.154148134417205,17.1319787980069
0.126934034717688,17.1323192952011
0.102088604577943,17.1326464919849
0.0792298821115371,17.1329682700439
0.0579867266208349,17.133293177372
0.0378466421888275,17.1336344304716
0.0175147185272165,17.1340274942751
0.00894873862375444,17.1342137697373
0.00105236020565765,17.1344000451995
-0.00699969256099301,17.1346080469509
-0.0135649382144324,17.1347946498034
-0.0195047705270759,17.1349801367501
-0.0254921204195186,17.1351874611198
-0.0312771092749658,17.1354129783272
-0.0366987089911412,17.1356544190112
-0.0416676713812623,17.1359109620913
-0.0461375745247745,17.1361827429217
-0.0500867842839244,17.1364705777697
-0.0537541955379962,17.1368016519721
-0.0565678569335523,17.1371253106237
-0.0588649386615745,17.1374702275451
-0.060662512319702,17.1378397421923
-0.0619749331358417,17.138237515922
-0.0628158482622599,17.1386680680433
-0.0631967061647832,17.1391370363415
-0.0631250833758435,17.1396515612686
-0.0626024434499188,17.1402209811094
-0.0616184739191091,17.140859106479
-0.0601476506685326,17.1415839424502
-0.0581380573457657,17.1424227744858
-0.0554816754662331,17.1434227932452
-0.051901761137094,17.1446912242724
-0.0478594650002909,17.146086524122
-0.0439517910934306,17.1474358698213
-0.0402271386692724,17.1487440213793
-0.036708915925036,17.1500133478195
-0.0334089290000119,17.1512447412217
-0.030332136160959,17.1524383444118
-0.0274788175731554,17.1535939381375
-0.0248457689766799,17.1547111447201
-0.0224270970765454,17.1557895328033
-0.0202148374622633,17.1568286664131
-0.0181994806600648,17.1578281208597
-0.0163704367312968,17.1587874776153
-0.0147164477020471,17.1597063048268
-0.0131540361768991,17.1606278464981
-0.011651655794599,17.1615730441172
-0.0102136829583215,17.1625435749551
-0.00884403868703957,17.1635415930122
-0.00754644156302143,17.1645696289892
-0.0063243557239919,17.1656306854437
-0.00518093886135759,17.1667283607903
-0.00411898798586919,17.1678670167541
-0.00314088286047937,17.1690520099046
-0.00224852655643243,17.1702900208104
-0.00144328187695332,17.1715895376944
-0.000725901108902162,17.1729615960848
-9.64441322003795e-05,17.1744209672715
0.000445825135940042,17.1759881918669
0.000886255970632176,17.1776234009775
0.00122961213008746,17.1793083558857
0.00149179050280559,17.1810614338313
0.00168718522352786,17.182904854392
0.00182935741873016,17.1848685632735
0.00193147714425071,17.1869955380509
0.00200700567133334,17.1893530871893
0.00207108233972874,17.1920615781868
0.0021447969477793,17.1953952596997
0.00224232575672766,17.1991460521856
0.00237485671193967,17.203220928242
0.00252766773583212,17.2071714385461
0.00269183276232393,17.2109790969832
0.00286465306513058,17.214739514613
0.00304473632840029,17.2185133945108
0.00323192271040516,17.2223444085508
0.00342710871935243,17.2262681336426
0.00363204333000135,17.23031633814
0.00384915634564684,17.2345194890799
0.00408143733031087,17.238908428649
0.00433239685212487,17.2435157061951
0.00460617377667859,17.2483770212062
0.00490784997527442,17.2535325569804
0.0052437672359141,17.2590233648552
0.00558526874978541,17.2643243999836
0.00594396472985949,17.2695883714537
0.0063184189823482,17.2747487208975
0.0067133820262494,17.2798281579682
0.00713264051533018,17.2848294112389
0.00758091286788663,17.2897618797725
0.00806310220458955,17.2946309502815
0.00858454581512916,17.2994402874893
0.00915103651416994,17.3041912390874
0.00976895458479897,17.3088834444152
0.0104454020608739,17.3135154170866
0.0112023326775487,17.3181669264977
0.0120559160397523,17.3228471016272
0.0130264572025588,17.3275675991831
0.0141426165039812,17.3323565100578
0.0154499214085576,17.3372788845113
0.0170381448836986,17.3425017400946
0.0191827437852994,17.3486244140323
0.0209289818564328,17.353094681453
0.0227774636226236,17.3575649488737
0.0243305796523448,17.3612996056174
0.0256234466415486,17.3645699733023
0.0267063125477005,17.3676333855331
0.0275714000760809,17.3706091694176
0.0281674664789443,17.3734456673773
0.0284953567643258,17.3762629466851
0.0285289061636537,17.3792103774595
0.0281728312729603,17.3825840006784
0.0271463346991165,17.3869211795622
0.0262455281813189,17.3895951881964
0.0251866429312809,17.3922691968307
0.0241140145798078,17.3947141519825
0.0230400831484647,17.3970157276077
0.0219654836033989,17.3992375728737
0.0208930601089851,17.4014156669521
0.019826456033253,17.4035728549715
0.0187693449023747,17.4057252938812
0.017725194767799,17.4078853413453
0.0166972041468269,17.4100630401265
0.0156882928528685,17.4122669694323
0.0147011069369115,17.4145047845101
0.0137380314743854,17.4167835761144
0.0128012014653377,17.4191101358141
0.0118925103020461,17.4214911682986
0.0110136245616184,17.4239334523796
0.0101659866577352,17.4264440154259
0.00935083109454816,17.4290302647635
0.0085691876214402,17.4317001602078
0.00780407562639344,17.4345310757486
0.00705477310543748,17.4375576635026
0.00632507968234818,17.440803499347
0.00561894604199817,17.444296043642
0.00494050054013337,17.4480671041992
0.00429398650324531,17.4521537130891
0.00368365643487458,17.4565993741377
0.00311359994932476,17.4614561225858
0.0025875132177481,17.4667880619169
0.00210839280032468,17.4726781491171
0.00167843859899919,17.4792373883032
0.00130966422761954,17.486384983888
0.00100945738963144,17.4941173648865
0.000810391857189379,17.5013358073711
0.000642943631870774,17.5095515878055
0.000506549500298166,17.5187663548301
0.000403626358994487,17.5287663548301
0.000335122604796405,17.5387663548301
0.000291462071219398,17.5487663548301
0.000265686074782855,17.5587663548301
0.000252847096280214,17.5687663548301
0.000249584248749814,17.5787663548301
0.000253732813843334,17.5887663548301
0.000263997674428072,17.5987663548301
0.00027972162667398,17.6087663548301
0.000300747163598566,17.6187663548301
0.000327355143473516,17.6287663548301
0.000360267200182695,17.6387663548301
0.000400711112096837,17.6487663548301
0.000450564529876942,17.6587663548301
0.000510311548988013,17.6684265198137
0.000578824610882386,17.6773460534601
0.000657029100399833,17.6855679657956
0.000746173563833333,17.6931481164902
0.000847728296537028,17.700138550892
0.000963378894802578,17.7065872995633
0.00109504254365172,17.7125387532953
0.00124489500546561,17.7180339964226
0.00141540472381889,17.7231110894749
0.00160937248164516,17.7278053232286
0.00182997932176054,17.7321494556036
0.00208084393100501,17.7361739357884
0.00236609403584292,17.7399071154145
0.00269045452314791,17.74337545789
0.00305936205593092,17.7466037575895
0.00347911509306484,17.7496153761692
0.00395707726107248,17.7524325083303
0.00450196362556245,17.7550765059299
0.0051242593882616,17.7575683035558
0.00583304313993061,17.7599174774139
0.00661882430023327,17.7620868821458
0.00749324003073066,17.7641153197454
0.00847467847755572,17.7660436806742
0.00959400135675665,17.7679198594693
0.0109131562297119,17.7698172728907
0.012651832244921,17.7719648559551
0.014231766318944,17.7736867569777
0.015949118006806,17.7754086580002
0.017493853989135,17.7768927819993
0.0188379900870559,17.778186394884
0.0200367181031669,17.779390936814
0.0211017654401805,17.7805610126057
0.0220230561270174,17.7817369115413
0.0227746563829796,17.7829621968273
0.0233073768885178,17.7843037832801
0.0235096417579636,17.7859190247578
0.0231390712175344,17.7878325973435
0.0221953346187855,17.7897461699292
0.0211123100323375,17.7912899194279
0.0199145828678276,17.7927378848804
0.0185950652074118,17.7941954848375
0.0171617150883338,17.7957082656047
0.0156225414600853,17.7973125543415
0.0140229263947754,17.799051419039
0.0117151906512784,17.8018498438604
0.00970403957794121,17.8046729805915
0.00810038018733696,17.8072895430667
0.00677637827182879,17.8097920698749
0.0056173174357944,17.8123331595624
0.00459654793084917,17.8149428698748
0.00369557452276897,17.8176447508571
0.00292355385450014,17.820369646571
0.00230267120527568,17.8229355987982
0.00179454463289323,17.8253676703806
0.00136973761998147,17.8276996545785
0.00100644648306693,17.8299683855852
0.000687842834693466,17.8322175741243
0.000399516686645019,17.8345091371361
0.00012443495543765,17.8369697665749
-0.000185202859377292,17.8401261902548
-0.000349464338486852,17.8419952392782
-0.000501819937268835,17.8438642883015
-0.000631357220722304,17.8455638184246
-0.000746916620481755,17.8471704494253
-0.000857254065420611,17.8487872471349
-0.000969485096398975,17.8505168912183
-0.00109384319405724,17.8525350340594
-0.00126383553561103,17.8554661668009
-0.00145706086415996,17.8590348645286
-0.00161040395450708,17.8620425554198
-0.00175432319087318,17.8650060905254
-0.00191162401468139,17.8684103455462
-0.00209981863176416,17.8727600380893
-0.0023115737986029,17.8782785370246
-0.00245894322291942,17.8832892290472
-0.00252773526037795,17.8877966002253
-0.00250694227262549,17.8918388046895
-0.00239042941272191,17.8954704779956
-0.00217630779052189,17.8987489884822
-0.00186377567973546,17.901741527838
-0.0014503521042411,17.9045119729068
-0.000929617337892671,17.9071204160259
-0.000286570401143186,17.909634132529
0.000517073231729581,17.9121587569636
0.0015581583073186,17.9148405331393
0.0029449973029001,17.9178217446644
0.00468425703920359,17.9210170983509
0.00622262300750497,17.9235221095572
0.00793165997922349,17.9260271207635
0.00949110725285802,17.9280743628091
0.0110081355336476,17.9298560094697
0.0125939341269889,17.9315123975639
0.0142984392713274,17.9330830101925
0.0161586145146698,17.9345842563753
0.0182174411634885,17.9360309653405
0.0205002460328883,17.9374214670598
0.023046120309775,17.9387617889649
0.0258883728457309,17.9400525892129
0.0290624604860035,17.9412947962564
0.0326150403083843,17.9424923786963
0.0365948449221482,17.9436478314804
0.0410556417077534,17.9447633927267
0.0460662586642901,17.9458430486586
0.0517049073030939,17.9468902237032
0.0580641586811354,17.947908469946
0.0652551517621816,17.9489015735001
0.0734119754003816,17.9498735102334
0.0827015479373112,17.9508288644173
0.0933327973979102,17.9517727586707
0.105573139271602,17.9527111690201
0.119774823504442,17.9536514253539
0.136418804980224,17.9546030131568
0.156196088722728,17.9555791356338
0.179295722282757,17.9565650856907
0.206105346049102,17.9575598481433
0.237389271442453,17.9585762482891
0.274226713683506,17.9596339619035
0.318245055308544,17.9607663462597
0.352971456614958,17.9615964748399
0.388885307668,17.9624266034201
0.420834693972669,17.9631667837231
0.448802996998607,17.9638430229484
0.473169730885515,17.9644867574519
0.493864973420775,17.9651215438795
0.510408051913458,17.965769664464
0.521763781797533,17.9664589372397
0.525750701534677,17.9672362641072
0.519220535916896,17.9680477259282
0.500829567425127,17.968885766535
0.469066422181602,17.9697650282766
0.422083985853038,17.9706956593262
0.374598740524414,17.9714485955581
0.319556078497584,17.97220153179
0.270844648087434,17.9728082689959
0.230132716406698,17.9732936698546
0.194964234980458,17.9737084697638
0.163750087345387,17.9740810784496
0.135609510343818,17.9744273126891
0.109988724349964,17.9747575077793
0.0864791664804993,17.9750798050492
0.0647147252995234,17.9754022766014
0.0442526364777436,17.9757359198986
0.024206743518485,17.9761046364597
0.00877203734314263,17.9764300362322
0.000156847689721446,17.9766338172961
-0.00768167485533832,17.97683759836
-0.0141514451947752,17.9770225075081
-0.0201197081818866,17.9772100295196
-0.0261060425645945,17.9774189124647
-0.0318698440596429,17.9776456544288
-0.0372586613964945,17.9778881638672
-0.0421883415304029,17.9781457329629
-0.0466154915954584,17.9784185727817
-0.050520157301306,17.9787075562592
-0.0541376407367905,17.9790399240915
-0.0569069342513438,17.9793650566757
-0.0591603930416582,17.9797116870344
-0.0609151935996096,17.9800832107245
-0.0621857324406307,17.9804833621511
-0.0629855519264886,17.980916754658
-0.0633258407122609,17.9813891513504
-0.0632137274718623,17.9819078659756
-0.0626497979239242,17.9824826135074
-0.0616224844539153,17.9831275150873
-0.0601042936435084,17.9838612600497
-0.0580394990286851,17.9847124589771
-0.0553108405920284,17.9857315355286
-0.0516059514794029,17.9870382365478
-0.0475692848780684,17.9884289945398
-0.0436730921010033,17.9897747102691
-0.0399627775054715,17.991079660777
-0.0364603332714655,17.9923459957124
-0.0331768133737847,17.9935744922725
-0.0301167100259452,17.9947652330486
-0.0272799800105125,17.9959179677162
-0.0246631796460954,17.9970323031982
-0.0222602344154195,17.9981078010104
-0.0200630442888204,17.9991440220642
-0.0180620026054072,18.0001405399888
-0.0162464555615024,18.001096934353
-0.014605110285324,18.0020127700321
-0.0130471492351408,18.0029359676102
-0.0115495946514048,18.0038829055493
-0.0101167412557799,18.0048553214752
-0.00875249776880849,18.0058553933796
-0.00746056661918218,18.0068856822421
-0.00624439235431219,18.0079492286771
-0.00510710949889154,18.0090496795424
-0.00405148820200637,18.0101914591837
-0.00307987755317243,18.01138000665
-0.0021941459946567,18.0126221136614
-0.00139561752164008,18.0139264225156
-0.000685001040284882,18.015304189969
-6.23077283613928e-05,18.0167705195509
0.000473254034473501,18.0183464811338
0.0009055215890017,18.0199846243988
0.00124195265333532,18.0216738745005
0.00149826593943985,18.0234326647066
0.0016887754177063,18.0252836632628
0.00182698620945177,18.0272575370537
0.00192604636878179,18.0293985363959
0.00199945300390323,18.0317764976224
0.00206252161862045,18.0345178881075
0.00213708928994169,18.0379185003689
0.00223524989582242,18.0416780706895
0.00236979134557837,18.0457928529776
0.00252509087549797,18.0497963638632
0.00269011142032674,18.0536257478516
0.00286250910500804,18.057390040429
0.00304123318578685,18.0611560472745
0.00322637414432783,18.064970237331
0.00341899025138088,18.0688695383549
0.00362091499811102,18.0728863125182
0.00383459927122805,18.0770511414558
0.00406300425251835,18.0813946539905
0.00430956641601616,18.0859488882101
0.00457829074689924,18.0907486957755
0.0048740346006467,18.0958331439732
0.00520306331296053,18.1012467309728
0.00554417776017713,18.1065814842346
0.00590028740583894,18.1118489766138
0.00627254317357141,18.1170245390319
0.00666454008111352,18.1221149512675
0.00708027028806718,18.1271266576281
0.00752430855396294,18.1320680087615
0.00800155348157244,18.1369451361373
0.00851729249853956,18.1417620000375
0.00907726874604869,18.1465203361325
0.00968779014519993,18.1512200372583
0.0103558634535328,18.1558597520241
0.0111008817251131,18.1605060239351
0.0119406515973186,18.1651822925546
0.0128942963273644,18.1698962931749
0.0139891559161588,18.1746736801771
0.0152676560959198,18.1795724637969
0.0168105226211381,18.1847386938787
0.0188452703600931,18.1906599232347
0.0206636051392676,18.1953808429469
0.022606482520649,18.2001017626591
0.0241979282287944,18.2039214366547
0.0255125547848092,18.2072231746174
0.0266145348156834,18.2102987274533
0.0275050159447926,18.2132940521988
0.0281252789089668,18.216138604741
0.0284780772203644,18.218952213246
0.0285406539821765,18.2218795239497
0.0282285119334378,18.2251906435362
0.027241288978683,18.229553883498
0.0263493551591913,18.2322620943957
0.0252909668465338,18.2349703052934
0.0242180592876041,18.2374349304198
0.0231442354438667,18.2397469425978
0.0220696015219372,18.2419745637712
0.0209968205285175,18.2441556933289
0.0199295045375804,18.2463140726984
0.0188713390985362,18.2484663414696
0.017825816081497,18.2506251429187
0.0167961611022905,18.2528006964805
0.0157853206440704,18.255001693564
0.0147959666183528,18.2572358586514
0.013830509373106,18.259510320361
0.0128911069551963,18.2618318879292
0.0119796760988121,18.2642072618748
0.0110979049677999,18.2666432023893
0.0102472567500255,18.2691467024544
0.0094289860904978,18.2717251186189
0.00864414154313871,18.2743863445013
0.0078777409010565,18.2771995328874
0.00712677411199858,18.2802063930968
0.00639505124640445,18.2834300711126
0.00568650436414743,18.2868976482959
0.00500524717691625,18.2906404839664
0.00435551605861322,18.2946950671384
0.00374156962913907,18.2991042138777
0.00316752309832428,18.3039190272356
0.00263712483254568,18.3092022301611
0.00215344711520115,18.3150346502702
0.00171876614890236,18.3215241972236
0.00134379815869147,18.3286207667632
0.00103596757229516,18.3362919344922
0.000851960526842254,18.3426592529347
0.000668249211993929,18.3511643517559
0.000528358992947945,18.3601339689366
0.000419087312778849,18.3701339689366
0.000346114654773672,18.3801339689366
0.000299352238806656,18.3901339689366
0.000271480590095789,18.4001339689366
0.000257271936080228,18.4101339689366
0.000253154387455682,18.4201339689366
0.000256815084147071,18.4301339689366
0.000266861487490505,18.4401339689366
0.000282576072166149,18.4501339689366
0.000303767395386546,18.4601339689366
0.000330702278901125,18.4701339689366
0.000364105505085073,18.4801339689366
0.000405225631426614,18.4901339689367
0.000455982421243782,18.5001339689367
0.000516657061819641,18.509760979412
0.000586233792913168,18.5186475762684
0.000665657942200499,18.526838161724
0.000756197432194804,18.5343886888841
0.000859344738809197,18.5413512253783
0.000976811030971381,18.5477738070716
0.00111054302764026,18.5537008192846
0.00126275053200454,18.5591733333807
0.00143594125826096,18.5642293919115
0.00163296130735355,18.5689042656004
0.00185704442559258,18.5732306931217
0.00211187093763902,18.5772391079768
0.00240164148478985,18.5809578524363
0.00273116826667388,18.5844133908279
0.00310599418508401,18.5876305340775
0.00353254966119686,18.5906326831562
0.00401836619018001,18.5934421055533
0.00457237910124762,18.5960802765
0.0052053738758598,18.5985683328253
0.00592346196237213,18.6009063009082
0.00672007174004125,18.6030691770745
0.00760775486102814,18.6050964202433
0.00860646943597696,18.6070301129543
0.00975061476847012,18.608921488432
0.0111126162335368,18.6108545204459
0.012983956169821,18.6131319629243
0.0145263732414252,18.6147962040306
0.0161842782382632,18.6164604451369
0.0176629139863601,18.6178977474248
0.0189618934609369,18.6191741022379
0.0201216976501744,18.6203750807811
0.0211477432319335,18.6215502110721
0.0220265967776552,18.6227393877278
0.0227286491844079,18.6239890312181
0.0231972832549656,18.6253760397169
0.0232919345476426,18.6271049263671
0.0228189869404476,18.6289447936534
0.0218447085690969,18.6307846609398
0.0207499365877503,18.6323068684009
0.0195389421452668,18.6337570995479
0.0182085851620741,18.6352246943979
0.0167675147064718,18.636752076567
0.0157571963961751,18.6378125589709
0.0147638516803438,18.6388730413749
0.0138427496989117,18.6399024260022
0.0116001624526056,18.6426497394855
0.00961948506669457,18.6454537487543
0.0080334628674583,18.6480613195964
0.00671784375206592,18.6505661614632
0.00556535144260552,18.6531112932233
0.00454997578105539,18.6557262414856
0.00365346429350042,18.6584345322786
0.00289702230240372,18.6611205392597
0.00228613332020105,18.6636538544862
0.00178387940006945,18.6660608661821
0.00136205254859108,18.6683755266382
0.000999393834017447,18.6706367262589
0.000678963389246387,18.6728941554436
0.000385029591198137,18.6752271409925
9.47755539152028e-05,18.6778295282689
-0.000133321605823999,18.6801222910343
-0.00033975161598391,18.6824150537997
-0.000495882146999241,18.6843028316682
-0.00062458050335389,18.6859668866278
-0.000741789170949492,18.6875721702122
-0.000855822213623636,18.6892194608827
-0.000974409817364829,18.6910245158137
-0.00111140174524875,18.6932283263517
-0.00134815155445466,18.6973352573821
-0.00155341100341342,18.7011986500625
-0.0017164440395483,18.7044664293653
-0.00187891257938174,18.7079065318327
-0.00206795692550661,18.7121844315859
-0.00228608235911465,18.7177262779839
-0.00244090378747559,18.7227789562179
-0.0025177441940818,18.7273277480654
-0.00250534732604894,18.7314137581978
-0.00239721366970732,18.7350821452209
-0.00219111374960934,18.738394951348
-0.00188677474996366,18.7414124212129
-0.00148231099472737,18.744199427059
-0.000971254123211854,18.7468206426077
-0.000338832254481296,18.7493446335145
0.00044658071761369,18.7518596637843
0.00146733160590373,18.7545371561423
0.00282989489777406,18.7575150821214
0.00453978538626527,18.7607042735056
0.00650846320876446,18.76391128369
0.00785922313662952,18.7658842804031
0.00934660633117782,18.7678572771163
0.0108740412594866,18.7696742146364
0.0124405837995391,18.7713312925429
0.0141423932513497,18.7729200308315
0.0159844870053408,18.7744261988932
0.0180253416155791,18.775879529872
0.0202851597305611,18.7772747239309
0.0228061722386332,18.7786201660979
0.0256177904682693,18.7799146947605
0.0287599313031319,18.7811614732525
0.032276454368712,18.7823633496342
0.0362151649100763,18.783522711225
0.0406292599846659,18.7846418509736
0.0455869797606047,18.7857248412423
0.051165120735758,18.7867750316397
0.0574547923001674,18.7877959620598
0.0645652902284437,18.7887914005879
0.0726279385284037,18.7897652516473
0.0818071576630759,18.7907221448205
0.0923073909931323,18.79166711705
0.104390095642102,18.7926060599352
0.118398840475074,18.7935461732906
0.134800916558987,18.7944967144943
0.154265369627435,18.7954705334153
0.177060480572717,18.7964565678094
0.20350797738416,18.797450555544
0.234353119545275,18.7984649642685
0.270639394946365,18.7995186769872
0.31408533357598,18.8006472260417
0.349131577248856,18.8014906575573
0.385507518510464,18.802334089073
0.417846932647611,18.8030829257662
0.446135863036728,18.8037640146666
0.470808736088752,18.8044101258072
0.491833420376363,18.8050452573425
0.508768449867872,18.8056915359048
0.520643595512203,18.8063758669344
0.525436220234606,18.8071422098502
0.519966575938731,18.8079523381349
0.502762246748642,18.8087873471951
0.472355231095682,18.8096622653476
0.426924092729238,18.8105876162033
0.379096354206517,18.8113605437015
0.32319540966429,18.8121334711997
0.284178881976629,18.8126254123447
0.243335340769233,18.8131173534897
0.206692188493719,18.8135501702047
0.17424956554631,18.8139351932465
0.145120327242791,18.8142893489461
0.118678858939547,18.8146242303591
0.0944807197277722,18.8149484754576
0.0721560272615207,18.815269933084
0.0513089874197334,18.8155980487087
0.0312964802811334,18.8159498154311
0.00986506355502498,18.8163870891279
0.000584031001500499,18.8166050107277
-0.0078077658779434,18.8168229323276
-0.0142823543257342,18.8170084396176
-0.0202545910900475,18.8171966252033
-0.0262367696265954,18.8174060440416
-0.0319915606291189,18.8176332522509
-0.0373686921271718,18.8178761999506
-0.0422852997937076,18.8181342060593
-0.0466987592115644,18.8184075001258
-0.0505893203154941,18.8186969694428
-0.0541932108752253,18.8190301042512
-0.0569484296030722,18.8193558428929
-0.0591882295953105,18.8197031502915
-0.0609298203912236,18.8200754406374
-0.0621875904584004,18.8204764685536
-0.0629750355428316,18.8209108730926
-0.0633032582026897,18.8213844512131
-0.0631792544478744,18.821904562909
-0.0626033611738436,18.8224810267601
-0.0615636778136691,18.8231280436723
-0.0600322034912179,18.8238644823168
-0.0579522401882484,18.8247193009232
-0.0552041436637375,18.8257437808997
-0.0514659191689892,18.8270611166633
-0.0474332395405736,18.8284503783737
-0.0435428408451015,18.8297947742973
-0.0398392046610687,18.8310984827431
-0.0363438941332052,18.8323636024728
-0.0330677194293825,18.8335908853762
-0.030015009446942,18.8347804021163
-0.0271855998574577,18.8359318974221
-0.0245759529736325,18.8370449768443
-0.0221799207083761,18.8381192022094
-0.0199893468783587,18.8391541353111
-0.0179945841659819,18.8401493505368
-0.0161849520473563,18.84110442762
-0.0145491432962022,18.8420189306609
-0.012993062987672,18.8429428803553
-0.0114975534203268,18.8438906080214
-0.0100668730844366,18.8448638784468
-0.00870492506552746,18.8458648805949
-0.00741540432529153,18.8468961892537
-0.00620174629432483,18.8479608623693
-0.00506707465764717,18.8490625688472
-0.0040141469310019,18.8502057615329
-0.00304529769338397,18.8513959170291
-0.00216237888711591,18.8526398777092
-0.00136669584566942,18.8539463561772
-0.000658936356716871,18.8553267103253
-3.90874902466765e-05,18.8567961959476
0.000493670494612315,18.8583761263087
0.000922509450396771,18.8600156237127
0.00125607170329685,18.8617068427339
0.00151000145470215,18.8634682473412
0.00169858148957108,18.8653227124602
0.00183529835078333,18.8673012385639
0.00193329986223885,18.8694486674998
0.00200611508928369,18.8718360194941
0.00206916985935963,18.8745926576253
0.00214472761562166,18.8780249145145
0.00224386206304931,18.8817890750904
0.00238012925851803,18.8859227749773
0.00253426093617913,18.8898748235337
0.00269884490782542,18.8936824530104
0.00287143794801901,18.8974427383808
0.00305086904679881,18.9012164321508
0.00323715802139719,18.9050472227392
0.00343133089111658,18.9089707011673
0.00363521955178341,18.9130186414041
0.00385129842020697,18.9172215166811
0.00408257260128215,18.9216101756176
0.0043325485252556,18.9262171786662
0.00460534893048113,18.9310782392801
0.00490603328988939,18.9362335617467
0.00524112569115349,18.9417275850074
0.00558176622066038,18.9470304172522
0.00593963181447568,18.9522966003636
0.00631323581811799,18.9574588023352
0.0067073269423499,18.9625399662721
0.00712567679158019,18.9675428094147
0.00757298882137844,18.9724767594766
0.0080541513767057,18.9773472419221
0.00857448537550988,18.9821579550503
0.00913976578786236,18.986910275304
0.00975635345467959,18.9916038650806
0.0104313286574895,18.9962372492959
0.0111861988618749,19.0008879350258
0.0120374160275457,19.0055674979897
0.0130050819072718,19.0102869299545
0.0141176289755111,19.0150739022878
0.0154200468207704,19.0199922493346
0.0170005115184324,19.0252052952707
0.0191255735370138,19.0312916230897
0.0208830767938706,19.0358013894292
0.0227463876193063,19.0403111557688
0.0243061238169299,19.0440603640326
0.0256030096498494,19.0473363684106
0.0266894712497332,19.0504019585264
0.0275593253450202,19.0533813336735
0.0281599435100068,19.0562192849771
0.028492533102082,19.0590358071306
0.0285315877447862,19.0619793223415
0.0281839770889165,19.0653406558353
0.0271649309368071,19.069682552177
0.0262658099164551,19.0723629277704
0.0252070491995988,19.0750433033639
0.0241343713426916,19.077491984005
0.0230604523673064,19.0797955664725
0.0219858332637106,19.0820185424339
0.0209133253241736,19.0841972508097
0.0198465662607533,19.08635470685
0.0187892318722056,19.0885071603106
0.0177447946474147,19.09066702471
0.0167164581053271,19.092844378375
0.0157071469907066,19.0950478241411
0.0147195121025594,19.0972850332071
0.0137559431381712,19.0995631068971
0.0128185793459761,19.1018888440884
0.011909318355793,19.1042689536704
0.0110298308089338,19.1067102165936
0.0101815629307188,19.1092196610066
0.00936575307122313,19.1118046931863
0.0085834345792348,19.1144732711021
0.00781808767702695,19.1173009014728
0.00706847910108614,19.1203238406648
0.00633841159408381,19.1235655820754
0.00563183232687061,19.1270535185533
0.00495286694305398,19.1308193787735
0.00430575760585211,19.1349000998026
0.00369475823025023,19.1393390661278
0.00312396370735419,19.144188151517
0.00259708073432685,19.1495112193557
0.00211712089952225,19.1553908580601
0.00168629929323219,19.1619375479728
0.00131642150233299,19.1690756933223
0.00101538532955913,19.1767966997971
0.00081480969011388,19.1840421383667
0.000647393236389131,19.1922277402329
0.000510546693244981,19.2014355380846
0.000407257028212553,19.2114355380846
0.000338600068647089,19.2214355380846
0.000294952202368833,19.2314355380846
0.000269322203619281,19.2414355380846
0.000256743351989941,19.2514355380846
0.000253847121069866,19.2614355380846
0.000258471072762908,19.2714355380846
0.000269331499319003,19.2814355380846
0.000285792183047561,19.2914355380846
0.000307728080247106,19.3014355380846
0.000335467698528319,19.3114355380846
0.00036980179606325,19.3214355380846
0.000412059134443107,19.3314355380846
0.000464267531769585,19.3414355380846
0.000525978590868058,19.3509492144965
0.000596664027096627,19.3597277728567
0.000677322713257537,19.3678194424519
0.000769251275503902,19.3752795196959
0.000873967034439809,19.3821593329249
0.000993206349269444,19.3885062545995
0.00112894347674758,19.3943640745814
0.00128341907287725,19.3997733254739
0.00145917574747655,19.4047715596876
0.00165909908780736,19.4093936016117
0.00188646809949977,19.4136717835582
0.00214501514751959,19.4176361688164
0.00243900137720379,19.421314762718
0.00277331031228819,19.4247337250227
0.00315356992379804,19.4279175943672
0.00358631428807057,19.4308895319378
0.00407920385822172,19.433671600555
0.0046413390787655,19.4362851117306
0.00528372474465992,19.4387510901261
0.00600979938380915,19.4410613656987
0.00681534465772842,19.4432009050181
0.00771341946330166,19.4452090472396
0.00872479811654065,19.4471279165477
0.00988570870561601,19.4490097678566
0.0112740894081458,19.4509429679111
0.0132268453253308,19.4532728064967
0.0147159001403733,19.4548529581231
0.0163069762893325,19.4564331097496
0.0177775725107845,19.4578515156335
0.0190766410053952,19.4591197972328
0.0202371444125286,19.4603154608517
0.0212633702551746,19.4614869007175
0.0221413316397719,19.4626739011212
0.0228406967146095,19.4639233658588
0.0233032550376565,19.4653140988457
0.0233816456373545,19.4670610256684
0.0228930880216961,19.4688816515946
0.0219134646726572,19.4707022775208
0.0208143023478008,19.4722166625933
0.0195974525573391,19.4736640058636
0.0182605330371639,19.4751307116259
0.016812296821428,19.4766586761609
0.0158207706771014,19.477695330018
0.0148456504721933,19.4787319838752
0.0139286054598749,19.4797517417249
0.0116788265062815,19.4824928531429
0.00968183840291488,19.4853043539502
0.00808399881433897,19.4879177573074
0.00676250134306182,19.4904211915092
0.00560534913299771,19.4929637252359
0.00458611283666365,19.4955752365979
0.00368637892304329,19.498279271829
0.00291855288787535,19.5009942270595
0.00230004495950584,19.5035532133868
0.00179294383018902,19.5059819105433
0.00136820529686695,19.508314375623
0.00100406227668375,19.5105892496139
0.000683475022332272,19.5128541099825
0.000391206999871035,19.515181168511
0.000107087621796907,19.5177341174675
-0.000134132168895454,19.5201699208348
-0.000307854538070847,19.5221005801971
-0.000468387630529783,19.5240312395594
-0.000601476391632031,19.5257474874373
-0.000719746036041431,19.5273660530499
-0.000832439612805349,19.5289936557804
-0.000946829505097027,19.5307334838531
-0.00107324128991245,19.5327607963472
-0.00124492686098102,19.5356906080626
-0.00144191032709919,19.539298911023
-0.00159754687513242,19.5423335587607
-0.00174289407646912,19.5453142171338
-0.00190121321967512,19.5487326857176
-0.00208976585715454,19.5530914324045
-0.00230019925396638,19.5586002301465
-0.00244512692487448,19.563592509116
-0.00251106411601117,19.5680874672154
-0.00248704562826496,19.5721225122893
-0.00236699704523713,19.5757495161438
-0.00214902185195361,19.5790264034643
-0.00183256254173703,19.5820170099657
-0.00141497952144019,19.5847870489923
-0.000889278799720716,19.5873985797916
-0.000239397010619929,19.589920870255
0.000569790375633925,19.5924474794156
0.00162311657437621,19.5951466143546
0.00302181855888186,19.5981391105547
0.00477057079377617,19.6013372052578
0.00628194409041311,19.603787304854
0.00795992528771373,19.6062374044502
0.00951779500089859,19.6082750111305
0.0110399386245578,19.6100550867056
0.012634894313879,19.611713112096
0.0143473012418725,19.6132829298692
0.0162171145118158,19.6147839937342
0.0182853162896328,19.6162295337964
0.0205789053117011,19.6176191795054
0.0231358417957716,19.6189582388562
0.0259909442602672,19.620248142679
0.029178544403628,19.6214892505503
0.032746208760553,19.6226858566552
0.0367430190721262,19.6238404817896
0.0412235237249193,19.6249554703869
0.0462563369244102,19.6260346363685
0.0519205817646002,19.6270814969667
0.0583096208427554,19.628099621986
0.0655356146711742,19.6290928192608
0.073734287912594,19.6300651260686
0.0830740240331927,19.6310211179973
0.0937666783054567,19.6319660092749
0.106083765633968,19.6329058788467
0.12038396654775,19.6338482175697
0.137159085821377,19.6348027831123
0.157119730496574,19.6357832572911
0.180374511455163,19.6367712953851
0.20737524516842,19.6377690891484
0.238903302875345,19.6387899393755
0.27607243391658,19.6398544933573
0.320169270713448,19.6409880955229
0.354541325381196,19.6418114439762
0.38998485870563,19.6426347924294
0.421536436364259,19.6433715445487
0.449171278113222,19.6440470349382
0.473218769368039,19.6446916427968
0.49357705417182,19.6453285668442
0.509735313091502,19.6459801396596
0.52061254078972,19.6466746539965
0.523924423745516,19.647460495201
0.516589853671754,19.6482745387625
0.497333183329544,19.6491158633468
0.464624562485861,19.6499986850517
0.416620620034932,19.6509328260302
0.36969304873951,19.6516686528227
0.315643542298245,19.6524044796152
0.267744298343832,19.6530007368718
0.227551852199803,19.6534807581077
0.192736648028201,19.653892671493
0.161789549796425,19.6542636337551
0.133864799074948,19.6546089532905
0.108424667713651,19.6549387524548
0.0850680663809427,19.6552611036299
0.0634303551649215,19.6555841366681
0.0430604312305609,19.6559191675773
0.0230207799019279,19.6562916253042
0.00828819499105622,19.6566052038279
-0.000127117972437735,19.6568055556161
-0.00779559599476118,19.6570059074043
-0.0142387616296626,19.6571908103029
-0.0202037306672801,19.6573790182082
-0.0261813851238303,19.6575885378596
-0.0319329857355074,19.6578158827698
-0.0373078039064905,19.6580589881407
-0.0422227319655227,19.658317164802
-0.0466350023911343,19.6585906375438
-0.0505245057517876,19.6588802906026
-0.0541293334261161,19.6592138396363
-0.0568835549889551,19.6595397827615
-0.0591226048250983,19.659887292871
-0.0608636872549689,19.6602597850783
-0.0621211669137319,19.66066101124
-0.0629085227361805,19.6610956063623
-0.0632368502016118,19.6615693613653
-0.0631131523962735,19.6620896269754
-0.0625377972013048,19.6626662058741
-0.0614989509115158,19.6633132763181
-0.0599687508066481,19.6640496619766
-0.0578907973564116,19.6649042282464
-0.0551462144155357,19.6659280155112
-0.0514161063471915,19.6672432042141
-0.0473859001381215,19.6686322944901
-0.043497974677957,19.6699764338036
-0.0397968612198763,19.6712798225199
-0.0363041146442783,19.6725445775636
-0.0330305227210393,19.6737714623235
-0.0299803868436292,19.6749605551921
-0.027153514318303,19.6761116063978
-0.0245463408350108,19.6772242255649
-0.0221526952273533,19.6782979775885
-0.0199644025609462,19.6793324265445
-0.0179718014340588,19.6803271484233
-0.0161642018537559,19.6812817239252
-0.0145302914889534,19.6821957174839
-0.0129746898617022,19.6831199679734
-0.0114797182950904,19.6840680106083
-0.0100496211828196,19.6850416208515
-0.00868829918697049,19.6860429920591
-0.00739944401354537,19.6870747045116
-0.00618648705638597,19.688139823021
-0.00505254713555366,19.6892420252039
-0.00400037601553324,19.6903857751468
-0.00303230156173109,19.6915765642508
-0.00215016792960216,19.6928212548408
-0.00135527142055054,19.6941285872142
-0.000648289270764832,19.6955099591159
-2.91960111861961e-05,19.6969806863881
0.000502843483562564,19.6985621784028
0.00093073188010242,19.7002022177353
0.00126356750175204,19.7018942192534
0.00151697009499888,19.7036566602295
0.00170521543410247,19.7055124974909
0.00184178962520205,19.7074928638471
0.00193985013112521,19.7096428362024
0.00201295390107165,19.7120339066987
0.00207659837054459,19.7147965994344
0.00215328503920956,19.7182415302396
0.0022535999728436,19.7220076138624
0.00239142317015445,19.7261489100085
0.0025457320711164,19.7300762076725
0.00271087131549591,19.7338737942201
0.00288436820604726,19.7376330756987
0.00306500306401303,19.7414118934248
0.0032527686700458,19.7452525719579
0.0034486846904452,19.7491900452785
0.00365459511799775,19.7532558068332
0.00387300300707145,19.7574802960143
0.00410695729026216,19.7618944990993
0.00436002881008067,19.7665312812818
0.00463644015304381,19.7714268421106
0.00494141061414691,19.7766220130448
0.00527753091906893,19.7820945578229
0.0056204668395623,19.7873944587476
0.00598031347955167,19.7926480993334
0.00635639016859147,19.7978003601867
0.00675333625228239,19.8028716785886
0.00717505830573104,19.8078659363899
0.00762628175629362,19.8127920685808
0.00811194573336884,19.8176553083877
0.00863742146988564,19.8224590588714
0.00920854835760446,19.8272044650624
0.00983176575649139,19.8318910148592
0.0105142515221062,19.8365171540602
0.0112799118237071,19.8411725282326
0.0121436775305947,19.845855681592
0.0131267599447065,19.850581213468
0.0142588741756897,19.8553792281212
0.0155880726851008,19.8603205341994
0.0172118230084471,19.8655900060885
0.0194515339685787,19.8718942268515
0.0211492414678413,19.8761950483037
0.0229336298868882,19.8804958697559
0.0244552898146513,19.884163271014
0.0257281251477999,19.8874065267356
0.0267928308498192,19.8904596284246
0.0276338372341227,19.893417936977
0.0282067754942006,19.8962477149894
0.0285106348448309,19.8990696014737
0.0285157656601291,19.9020382751787
0.0281148708867117,19.9054792179601
0.0273299785462837,19.9088522385131
0.0262186617379733,19.9122252590661
0.0251231283436002,19.9149772976756
0.0240474064393436,19.9174178747193
0.0229731741749794,19.9197135218296
0.0218985837425735,19.9219318706054
0.0208263968068314,19.9241081519655
0.0197602626864324,19.9262646840635
0.0187038451001843,19.9284173273544
0.0176605960917084,19.9305782625225
0.0166336963944626,19.9327574226077
0.0156260482921226,19.9349633174959
0.0146402811038706,19.9372035595445
0.0136787633662776,19.9394852168888
0.0127436152098509,19.941815070747
0.0118367152141199,19.9441998287645
0.0109597150769265,19.9466462852408
0.0101140445153815,19.9491614888317
0.00930092441755947,19.9517528826632
0.00852137259584156,19.9544284701709
0.00775713003572819,19.9572709641003
0.00700894252256955,19.9603104402417
0.00628060316429486,19.9635707561716
0.00557607439544745,19.9670796233807
0.00489949404438968,19.9708691458317
0.0042551096617502,19.9749767165935
0.00364716931665779,19.9794462999587
0.00307975008879009,19.9843305171387
0.00255650241711203,19.9896945124293
0.00213728750789348,19.9948472562146
0.00178679124212143,20
