ecg,time
0.00776083191082381,15.0032358122877
0.00829512378658617,15.0080988629221
0.00886610964129242,15.0128859156535
0.00948023230761606,15.0176027346916
0.010144050969967,15.0222469586271
0.0108746615582179,15.0268746395011
0.0116919878800849,15.0315289249487
0.0126139039197021,15.0362150660959
0.0136658303626219,15.0409558578524
0.0148849906973306,15.0457973607969
0.0163367015173819,15.0508492025964
0.0181779947366702,15.0564338878237
0.020593635629275,15.0628364874755
0.0221492332288583,15.0666395458761
0.0237372989941583,15.0704426042768
0.0251208088691164,15.0738500456318
0.0262870559921757,15.0769782954145
0.0272475662933414,15.0799959943227
0.0279513820820597,15.0828750263663
0.028389035077341,15.0856848119334
0.0285475612662043,15.0885565077774
0.0283703308268826,15.0916965175674
0.0276134029301328,15.0957815194442
0.0267598707972269,15.0986784229946
0.0256948765853214,15.101575326545
0.0246175284845961,15.1041366383076
0.0235433527221323,15.1064964118946
0.0224685838676959,15.1087492483177
0.0213947301294758,15.1109428361832
0.0203251896094921,15.1131051276036
0.0192636873463173,15.1152548884864
0.0182138240806271,15.1174059300048
0.0171789573149463,15.119569106692
0.0161621652254431,15.1217534241062
0.0151662531718959,15.1239666818238
0.0141937581369265,15.1262159075919
0.0132469604820078,15.1285076490217
0.0123278979718763,15.1308481801856
0.0114383655757464,15.1332436945476
0.0105799317637018,15.1357004276334
0.00975394692972331,15.1382247794964
0.00896154298789058,15.1408234577153
0.00818932451802984,15.1435563026516
0.00743097615768918,15.1464732479949
0.00669025437962319,15.1495957792259
0.00597100137565008,15.1529491606531
0.00527725185757006,15.1565625900635
0.00461318927102871,15.1604699296216
0.00398305849159671,15.1647107413778
0.00339102722596097,15.1693318638266
0.00284097939367647,15.1743901139936
0.00233623966840072,15.1799572462144
0.00187935710446274,15.186127816199
0.00147365992386526,15.1929998021351
0.00113301195124838,15.2004034561007
0.000850630531216715,15.2084464777141
0.000620013318190986,15.21727425196
0.000435183159307166,15.2270788169671
0.000302067986785389,15.2370788169671
0.000212972620587764,15.2470788169671
0.000153438739553289,15.2570788169671
0.000112534171626788,15.2670788169671
8.41231918934357e-05,15.2770788169671
6.45312233032446e-05,15.2870788169671
5.12546311612e-05,15.2970788169671
4.24573662553974e-05,15.3070788169671
3.67923870093996e-05,15.3170788169671
3.33016970553046e-05,15.3270788169671
3.1323669432092e-05,15.3370788169671
3.04079005699008e-05,15.3470788169671
3.02478975254635e-05,15.3570788169671
3.06339020491268e-05,15.3670788169671
3.14218543021594e-05,15.3770788169671
3.25131408815774e-05,15.3870788169671
3.384101849084e-05,15.3970788169671
3.53612195963291e-05,15.4070788169671
3.70453479416496e-05,15.4170788169671
3.88762429842601e-05,15.4270788169671
4.08447619919353e-05,15.4370788169671
4.29475756827714e-05,15.4470788169671
4.51856783634557e-05,15.4570788169671
4.75633979228247e-05,15.4670788169671
5.00877567426423e-05,15.4770788169671
5.27680824118968e-05,15.4870788169671
5.56158003105237e-05,15.4970788169671
5.86443628351048e-05,15.5070788169671
6.18692858388805e-05,15.5170788169671
6.53082742341378e-05,15.5270788169671
6.89814272443489e-05,15.5370788169671
7.29115205296177e-05,15.5470788169671
7.7124368077493e-05,15.5570788169671
8.1649271934195e-05,15.5670788169671
8.65195730550875e-05,15.5770788169671
9.17733222606126e-05,15.5870788169671
9.74540970042739e-05,15.5970788169671
0.000103611997986123,15.6070788169671
0.0001103048703281,15.6170788169671
0.000117599808067747,15.6270788169671
0.000125575019512029,15.6370788169671
0.000134322156496298,15.6470788169671
0.000143949245674169,15.6570788169671
0.00015458440883577,15.6670788169671
0.000166380628221066,15.6770788169671
0.000179521911451883,15.6870788169671
0.000194231353875688,15.6970788169671
0.000210781807118094,15.7070788169671
0.000229510178864959,15.7170788169671
0.00025083687149957,15.7270788169671
0.000275292618497963,15.7370788169671
0.000303556172697385,15.7470788169671
0.000336508248027791,15.7570788169671
0.000375310374481007,15.7670788169671
0.000421522939543929,15.7770788169671
0.000477286683056446,15.7870788169671
0.000542420075232374,15.7966499267413
0.000616069513703104,15.8054868381773
0.000699183675631163,15.8136344135553
0.000792959938370668,15.821147065079
0.000898776291594297,15.8280756288528
0.00101819779112908,15.8344671717063
0.00115299783191732,15.8403653160849
0.0013051852157844,15.8458105279977
0.00147703846706115,15.8508402944472
0.00167113913631389,15.8554893273435
0.0018904191968521,15.8597898022478
0.00213821091979439,15.8637716137852
0.00241831360395688,15.8674625398021
0.00273506315662341,15.8708884030307
0.00309343113845097,15.8740732929098
0.00349915138530092,15.8770397937336
0.00395887488037034,15.8798091650803
0.00448039155859979,15.8824015960274
0.00507294231924466,15.8848365320197
0.00574766401833487,15.8871330414525
0.00650031668220076,15.8892639330392
0.0073309814939795,15.8912345653672
0.00825160242671656,15.8930793862889
0.0092802509169947,15.8948334315676
0.0104465160295139,15.8965369770554
0.011807332338946,15.8982491055982
0.0135736617959483,15.9001639798586
0.0155348667590012,15.9020214713037
0.017145429097577,15.9034150795227
0.0188342511850398,15.9048086877417
0.0203533980782536,15.9060496746844
0.0217126713772322,15.907193942539
0.0229310779057746,15.9082971985884
0.0240035074458613,15.9093992966736
0.0249078504261659,15.9105403302814
0.0256008817746789,15.9117778178507
0.0259904442713121,15.9132346602246
0.0259243471872983,15.9146400892003
0.0254992422540447,15.9159577660095
0.0247785334859522,15.9172705842386
0.0237620676288707,15.9186587401876
0.0225582558238486,15.9200443554833
0.0212069380392792,15.9214552324142
0.01972377607439,15.9229286225348
0.0181181277489696,15.9245010741736
0.0175166399177168,15.9250935607353
0.0169261170657743,15.925686047297
0.0151265988185707,15.927603218203
0.0132370676200004,15.9298425119091
0.0113104886369644,15.9324530002854
0.00963069286945635,15.9351126705074
0.00828270606313275,15.9376218949757
0.00714085750037257,15.9401282058204
0.00616022819861166,15.9426911379636
0.00532259751506687,15.9453355125295
0.00461593751255647,15.9480844335365
0.00403298165105762,15.9509620491081
0.00357133305199613,15.9539950038917
0.00323472333768324,15.9572139130825
0.0030360925306326,15.9606551399256
0.00299991702732683,15.9640702734227
0.00311041366360989,15.9671255026754
0.00333942756062106,15.9698756208344
0.00367124949886479,15.9723666609327
0.00409841328898555,15.9746415273909
0.00462134944176314,15.9767465763698
0.00524745003055703,15.9787256187328
0.00599428183355821,15.9806273698006
0.00689583355095238,15.9825107953875
0.00801585157165762,15.9844551483604
0.00948279171417524,15.9865867090542
0.0115327174055483,15.9890792066989
0.0133872175537464,15.9910110152081
0.0155081234117559,15.9929428237173
0.0176138637648083,15.9946196065268
0.0197601029648012,15.9961180407045
0.0220339633390302,15.9975077973825
0.0245070505619401,15.998825741645
0.0272246078257667,16.0000831656171
0.0302446343074467,16.001292123616
0.033609214296447,16.0024542165255
0.037376907873207,16.0035750033851
0.0415984789274095,16.0046554044757
0.0463421796623672,16.0056993643164
0.0516781900382054,16.0067090425607
0.057690493964703,16.007687362972
0.0644766234283179,16.0086372716014
0.0721499932136904,16.0095616666792
0.0808472479857923,16.0104638238854
0.0907312162480397,16.0113470700265
0.101999293902541,16.0122149718521
0.114893461822013,16.0130714064676
0.129713010520252,16.0139206062277
0.146833743063676,16.0147673367946
0.166736289788529,16.0156171594841
0.190054235046832,16.01647700633
0.217675371264592,16.0173567136169
0.249749195251323,16.0182411456847
0.286896626937083,16.0191333945165
0.330206266829516,16.0200479934182
0.381591842274238,16.0210171097334
0.418869840327431,16.0216727027236
0.457104828045419,16.0223282957139
0.491204646166611,16.0229202507536
0.52130990809306,16.0234722011179
0.547803440918863,16.0240111652325
0.570520388952869,16.0245601363967
0.588753734825489,16.0251471670945
0.600783085894063,16.0258240778806
0.602320458381253,16.0265515607702
0.591557902348843,16.0273126316628
0.566968790285726,16.0281304869919
0.531539865690776,16.0289228327619
0.482574443404906,16.0297638265505
0.417705894910605,16.0306703899648
0.365373152423293,16.0313068025487
0.308393231253233,16.0319432151325
0.259152182921238,16.0324666147438
0.217979693567967,16.0328977083084
0.182332820367983,16.0332745146191
0.15067982722687,16.0336187123356
0.122146560124747,16.033943126168
0.0961534002164098,16.0342569036358
0.0722352745703176,16.0345682846954
0.0499000860780512,16.0348874064953
0.0283156930769139,16.0352337391556
0.00882794742942922,16.0355942194101
-0.00102585422563153,16.0358013631206
-0.00994074957360848,16.036008506831
-0.0167017890034413,16.0361815787738
-0.0228831238516414,16.0363550643892
-0.0291483219189838,16.0365496867786
-0.0352283902137045,16.0367619015361
-0.0409488612310307,16.0369894946287
-0.0462115195274243,16.0372316275919
-0.050964323459697,16.0374883822537
-0.0551832812997936,16.0377605012844
-0.0588617113560961,16.0380492619844
-0.0620036613408845,16.038356432973
-0.0646196741328375,16.0386842876659
-0.0667226279496134,16.0390356651113
-0.0684132493634807,16.0394433638842
-0.0694641315555044,16.0398517132799
-0.0700419116854299,16.0402963950532
-0.0701573370593546,16.0407847281655
-0.0698138048534641,16.041325720626
-0.0690036793860627,16.0419325118661
-0.0677027822282577,16.0426229706398
-0.0658599246552203,16.0434238740104
-0.0633664936305906,16.0443816793163
-0.0599414798909192,16.0456024384749
-0.0557964095314571,16.0470256628037
-0.0517479212811132,16.0484039369844
-0.0478554555280186,16.0497430993409
-0.0441503169978086,16.0510453134576
-0.0406498926196246,16.0523112542574
-0.0373637468783238,16.0535408522018
-0.0342961939353149,16.0547336880455
-0.0314475859728957,16.0558892019374
-0.0288151118497409,16.0570068025043
-0.0263934020836463,16.0580859200271
-0.0241750510595657,16.0591260265223
-0.0221510939983975,16.0601266348907
-0.0203114474602153,16.0610872838587
-0.0186453109836157,16.0620075124739
-0.0170738158451717,16.0629276613048
-0.0155600332314688,16.0638714389866
-0.0141083548108032,16.0648404806445
-0.0127226708738414,16.0658369206033
-0.0114066663883823,16.0668632664751
-0.0101637656168496,16.0679224932228
-0.00899707637937913,16.0690181653904
-0.00790933102081851,16.0701546020517
-0.00690282347498792,16.0713371046539
-0.00597934106503481,16.0725722805099
-0.00514008840753227,16.0738685173724
-0.00438559842950012,16.0752367077449
-0.00371562090775845,16.0766914097488
-0.00312896903596727,16.0782528269567
-0.00264031902142594,16.0798857886933
-0.00224741586820683,16.0815676343638
-0.00193399101588988,16.0833166907283
-0.00168524960530177,16.085154878925
-0.0014870731542474,16.0871116727501
-0.00132548797154657,16.0892292273058
-0.00118578684252086,16.0915732382499
-0.00105065114733249,16.0942602506855
-0.000894235124751795,16.0975514857867
-0.00070737462605728,16.101296615417
-0.000486091055686033,16.1053455831482
-0.000218738194260217,16.109868307236
7.76766258225548e-05,16.1146757723546
0.00039527187382669,16.1197988314804
0.000727248022966394,16.1252658332229
0.00106959542722254,16.1311014201608
0.00142052987108113,16.1373105309805
0.00170166204598381,16.1424172850558
0.00194411458086081,16.1469039294599
0.00217063965916734,16.1511433573724
0.00239654234506841,16.1553956610458
0.00263987337257952,16.1599803593114
0.00290047326719664,16.1648651358518
0.00316044992315586,16.1696786557067
0.00342353114217519,16.1744630603727
0.00365326769094169,16.1785450998981
0.00387299552997211,16.1823577281846
0.00409227215426954,16.1860634742117
0.00431650733114761,16.1897429394224
0.00454981918474681,16.1934477992125
0.00479595259510014,16.1972168688543
0.00505867860358254,16.2010822303178
0.00534209346843709,16.2050730201351
0.0056508533112045,16.2092174327376
0.00599042235941906,16.2135440099027
0.00636739894043253,16.2180826624453
0.00679002993453144,16.2228657752556
0.00726488552191324,16.2278863853964
0.00776308067769832,16.2327809979456
0.00829746500284146,16.2376426202223
0.00886857111919352,16.2424284998485
0.00948280355193759,16.2471437321537
0.01014687637,16.2517869226505
0.0108780070664513,16.2564145813695
0.0116960509329682,16.2610690782573
0.0126189391675344,16.2657557716645
0.0136721463106718,16.2704974701732
0.0148930261061677,16.2753404777135
0.0163472585609665,16.2803952388608
0.0181933761474963,16.2859877412896
0.0206093033221211,16.2923847615625
0.0221634864474952,16.2961824305253
0.0237493732916093,16.2999800994881
0.0251307147161333,16.3033837453179
0.0262951181547458,16.3065102363907
0.0272537606128664,16.3095275284685
0.0279551508485422,16.3124053930802
0.0283903651639194,16.315215106102
0.0285461888079352,16.3180881398006
0.028365339883078,16.3212323131073
0.027599306828319,16.3253363430025
0.026744387453735,16.3282252987196
0.0256798902816821,16.3311142544366
0.0246028235299983,16.3336717487157
0.023528717732774,16.3360296968878
0.0224539983093828,16.338281549027
0.0213802273101147,16.3404745992936
0.0203108139193436,16.3426366371552
0.0192494835079137,16.3447863462949
0.0181998342112013,16.3469374908635
0.01716522004115,16.3491008967333
0.0161487155802046,16.3512855512557
0.0151531225282018,16.3534992427434
0.0141809744399283,16.3557489919953
0.0132345482581414,16.3580413432979
0.0123158784242445,16.3603825701415
0.0114267568228721,16.3627788673909
0.0105687487833547,16.365236474522
0.00974320176904494,16.3677617973656
0.00895124485736814,16.3703615515408
0.00817920782828092,16.3730966481157
0.00742108970771363,16.3760160930991
0.00668064557129118,16.3791414247341
0.00596172031110961,16.3824979524415
0.00526835081745573,16.3861149274448
0.00460472195778299,16.3900262752325
0.00397507862952074,16.394271635719
0.00338358638410258,16.3988979487929
0.00283412418033998,16.4039621722421
0.00233000774523492,16.4095362798702
0.00187377569721706,16.4157151532953
0.00146894875622465,16.4225932643998
0.00112908131660692,16.4300042559874
0.000847395017768819,16.4380562251775
0.000617395233071349,16.4468950365433
0.000433110973140271,16.4567134393549
0.000300612802240371,16.4667134393549
0.000212193468096047,16.4767134393549
0.00015299172243366,16.486713439355
0.000112250265495628,16.496713439355
8.39354296835406e-05,16.506713439355
6.44072100022781e-05,16.516713439355
5.11704442266244e-05,16.526713439355
4.23926671508918e-05,16.536713439355
3.67312197160356e-05,16.546713439355
3.32328316880639e-05,16.556713439355
3.1239757933841e-05,16.566713439355
3.03042384842034e-05,16.576713439355
3.01213957232399e-05,16.586713439355
3.04824205768633e-05,16.596713439355
3.12438150202485e-05,16.606713439355
3.23072988001498e-05,16.616713439355
3.36063121594146e-05,16.626713439355
3.50966629225346e-05,16.636713439355
3.6749948504731e-05,16.646713439355
3.85489398785594e-05,16.656713439355
4.04843780022076e-05,16.666713439355
4.25527790921744e-05,16.676713439355
4.47549504182959e-05,16.686713439355
4.70950028838683e-05,16.696713439355
4.95797122410264e-05,16.706713439355
5.22181283605681e-05,16.716713439355
5.5021364913618e-05,16.726713439355
5.80025243525455e-05,16.736713439355
6.11767287555744e-05,16.746713439355
6.45612383800179e-05,16.756713439355
6.8175648219938e-05,16.766713439355
7.20421595057892e-05,16.776713439355
7.61859286429141e-05,16.786713439355
8.06355011361443e-05,16.796713439355
8.54233430846745e-05,16.806713439355
9.05864883230566e-05,16.816713439355
9.61673257201138e-05,16.826713439355
0.000102214559093614,16.836713439355
0.000108784382365079,16.846713439355
0.000115941925910997,16.856713439355
0.000123763047869484,16.866713439355
0.000132336568286189,16.876713439355
0.000141767077106374,16.886713439355
0.000152178493076313,16.896713439355
0.00016371861548185,16.906713439355
0.00017656500323744,16.916713439355
0.000190932649885747,16.926713439355
0.000207084120130814,16.936713439355
0.00022534310805311,16.946713439355
0.000246112825306877,16.956713439355
0.000269901322971873,16.966713439355
0.000297356953039962,16.976713439355
0.000329318964510517,16.986713439355
0.000366891208975568,16.996713439355
0.000411552039470156,17.006713439355
0.000465322531935054,17.016713439355
0.000528810228137641,17.0264027635711
0.000600642364680962,17.0353537181206
0.000681714751539747,17.0436069263457
0.000773190804436518,17.051217179607
0.000876414322982056,17.0582358451464
0.000992912946267639,17.0647104870988
0.0011244179643323,17.0706851846419
0.00127289033492736,17.0762008283821
0.00144055372522568,17.0812953120462
0.00162992801078611,17.086003727053
0.00184387323779019,17.0903585945364
0.00208563905133446,17.0943901192225
0.00235892869458381,17.0981263706968
0.00266796512366146,17.1015934365265
0.00301758633543499,17.1048156320589
0.00341336362708142,17.1078157342122
0.00386174984143209,17.1106151599129
0.0043702858388367,17.1132342022727
0.00494788935423962,17.1156923455274
0.0056052665551104,17.1180086100821
0.00634333507130129,17.1201694377832
0.00715750791079234,17.1221634540842
0.00805869780083322,17.1240248802411
0.00906337517883443,17.1257882306874
0.0101978124606858,17.1274916826145
0.011510384833075,17.1291877260697
0.0131705728956374,17.1310364135754
0.0151263055004994,17.1329298833972
0.0167921538136941,17.1343881525027
0.0185569170014195,17.1358464216083
0.0201218394256629,17.1371153882328
0.0215150874505258,17.1382703816529
0.0227654816827934,17.1393753091314
0.0238720260949411,17.1404718026537
0.0248158500680742,17.141598730239
0.0255587960056229,17.1428081556725
0.0260231046411996,17.1442018820278
0.0260316126443593,17.1457581070111
0.0256196372670724,17.1471374744223
0.0249191298075103,17.1484451978244
0.0239682310740157,17.149766401601
0.0227867890854754,17.1511426864212
0.0214495241199238,17.1525459587094
0.019977447037277,17.1540083190032
0.0183809470164773,17.1555655467542
0.0173107369057482,17.1566162153365
0.0162826737627958,17.1576668839187
0.0145038973963133,17.1596238619423
0.012686200629311,17.1618563322614
0.0108496088906211,17.1644394570662
0.00925979035306209,17.1670522059594
0.00797347913437906,17.1695359024527
0.00686925293101198,17.172051943332
0.00592055867562383,17.1746313151754
0.00511089373014218,17.1772975369502
0.00442908177941503,17.1800737918203
0.00386851800992649,17.1829846782525
0.0034274357957635,17.1860576221063
0.00311032361152394,17.1893243979874
0.00293126714986305,17.1928230152924
0.0029138798342938,17.196235946919
0.00303777363317116,17.1992901107034
0.00327662047251049,17.2020393151249
0.0036158504083482,17.2045295590376
0.00404873866742596,17.206803680319
0.00457597825383936,17.2089070858282
0.00520541511494261,17.2108843508999
0.00595464239299764,17.212783671951
0.00685760831349731,17.2146637788326
0.0079774950561295,17.2166030205436
0.00944069701330157,17.2187252946026
0.0114879307685,17.2212111534706
0.0133486763086679,17.2231468110137
0.0154771658604782,17.2250824685567
0.0175876329417917,17.2267603266249
0.0197372251048694,17.2282588776078
0.0220138944695742,17.2296484811472
0.0244907836290062,17.2309668198937
0.0272115689439747,17.232224270377
0.0302331427559818,17.233432555404
0.0336005327085508,17.2345944816152
0.0373706886044631,17.2357149587849
0.0415951494645324,17.2367951347255
0.0463418702643372,17.2378388515278
0.0516806087165606,17.2388481904378
0.0576963965931853,17.2398262665364
0.0644861498291417,17.2407759037033
0.0721637932724245,17.241700061932
0.0808658525094994,17.2426019862533
0.0907550588328626,17.2434849865125
0.102029187612334,17.2443526542493
0.114930164346652,17.2452088503861
0.129757255588541,17.2460577978482
0.146886404090954,17.2469042628328
0.166798120327334,17.2477537938572
0.190125766911862,17.2486133093941
0.217756858484268,17.2494926326015
0.249845474565735,17.2503767633212
0.287009536647114,17.2512686843247
0.330338106133492,17.2521829299669
0.381746433421643,17.2531516836758
0.419026870603137,17.2538068085947
0.457262325539093,17.2544619335136
0.491363649530433,17.2550535181045
0.521471586598731,17.2556051812024
0.547968097366671,17.2561439186657
0.570687623453615,17.2566927219903
0.588922100099548,17.2572796697918
0.600947900900986,17.2579567037525
0.602469648554985,17.2586840384728
0.59168725149898,17.2594450386945
0.567072007319588,17.2602629160254
0.53164071740223,17.2610548138206
0.482671483535629,17.2618955554672
0.417791396500525,17.2628020430784
0.365436418783862,17.2634385803458
0.308432255516367,17.2640751176132
0.259174637361078,17.2645985741707
0.217992020649997,17.2650296782398
0.182338178768319,17.2654064772944
0.150679880956327,17.2657506609746
0.122142334432315,17.2660750578097
0.0961455923176856,17.2663888168841
0.0722243729367858,17.266700179021
0.0498864016974697,17.267019282259
0.0282992374046143,17.2673655995837
0.00881231982493766,17.2677260024843
-0.00104256959749624,17.2679331325498
-0.00995839394782728,17.2681402626153
-0.0167196078298493,17.268313310096
-0.0229010999863358,17.2684867709544
-0.0291665314505965,17.2686813677728
-0.0352468658016944,17.2688935561876
-0.0409676021990466,17.269121122099
-0.0462305021303639,17.2693632268972
-0.0509835076813592,17.2696199521916
-0.0552026180844735,17.2698920405429
-0.0588811432205718,17.2701807689859
-0.0620231252812458,17.2704879059005
-0.0646391026757425,17.2708157244353
-0.06674202179568,17.2711670633365
-0.0684325087925783,17.2715746902544
-0.0694832720130243,17.2719829871229
-0.0700608446041766,17.2724276116266
-0.0701759665761645,17.2729158814979
-0.0698320262519825,17.2734568035106
-0.0690213766789084,17.274063513921
-0.0677198206581292,17.2747538795628
-0.0658761422526379,17.2755546725954
-0.0633816869135533,17.2765123395289
-0.0599553867460474,17.277732894773
-0.0558078832189758,17.2791561863121
-0.0517570135977445,17.2805345251709
-0.0478622479905991,17.2818737554058
-0.0441549141405651,17.2831760407264
-0.0406524125982799,17.2844420559187
-0.0373643161194037,17.2856717311812
-0.0342949433284818,17.2868646469519
-0.0314446478650928,17.2880202430516
-0.0288106176094134,17.2891379277945
-0.0263874801376742,17.2902171311828
-0.0241678253514426,17.2912573250035
-0.0221426828205336,17.2922580219895
-0.020301962605522,17.2932187607734
-0.0186348571799011,17.294139080394
-0.0170626979603362,17.2950591770074
-0.0155482750429659,17.2960028999721
-0.0140959836241581,17.2969718825326
-0.0127097151751457,17.2979682582669
-0.0113931559437767,17.2989945338502
-0.0101497315879467,17.3000536830733
-0.00898255148288126,17.3011492689934
-0.00789434974467707,17.3022856087688
-0.00688742236840951,17.3034680013306
-0.00596355913002841,17.3047030506113
-0.0051239676353487,17.3059991396918
-0.00436918455429823,17.307367154393
-0.00369896450668665,17.3088216428448
-0.00311212722023862,17.3103827927963
-0.00262329655268095,17.3120156653684
-0.00223030718491977,17.3136973801339
-0.00191688456345621,17.3154462625915
-0.00166823324212838,17.3172842204348
-0.00147023756782207,17.3192407060258
-0.00130893173284946,17.3213578369576
-0.00116962514211066,17.3237012353246
-0.00103503477365486,17.3263872725195
-0.000879410120225808,17.3296765843447
-0.000693430748662406,17.3334215065346
-0.000473186302078371,17.3374693303985
-0.000205462798845358,17.342016117281
9.15270938809808e-05,17.3468505776042
0.000409801503783582,17.3520040897507
0.000742484174719459,17.3575051930352
0.00108553949731599,17.3633783639465
0.0014343279049814,17.3695753686555
0.00171655057253698,17.3747233035316
0.00195919796927734,17.3792310791171
0.00218522222705961,17.3834764916369
0.00240996419315347,17.3877210760478
0.00265093663502952,17.3922751675501
0.00291138295184902,17.3971712081114
0.00317058299216218,17.4019826997285
0.00343641576854585,17.4068284472434
0.00366683208285351,17.4109294760619
0.00388668160907656,17.4147494086228
0.00410586831580851,17.4184576608325
0.0043298999409829,17.4221368579478
0.00456293086921696,17.4258394806356
0.00480872282830764,17.4296047536367
0.00507105415780122,17.4334649685325
0.00535402125496852,17.4374493279946
0.00566227756736092,17.4415860326555
0.00600128142715079,17.445903577875
0.00637761990809631,17.4504317826319
0.00679951618290145,17.4552028779917
0.00727491202315556,17.4602243179833
0.00777345593142446,17.4651163573106
0.00830850783839317,17.4699772842247
0.00888039357516313,17.4747623981212
0.00949553963005065,17.4794769983836
0.0101606131616866,17.4841193085597
0.0108931580112433,17.4887476949728
0.0117127997936923,17.4934025715873
0.0126376122744039,17.4980898351914
0.0136932076871351,17.5028325460546
0.0149172404592482,17.5076776937514
0.016376158214727,17.5127375024832
0.0182315556343872,17.5183450999567
0.0206475268011882,17.5247304347624
0.0221985662615729,17.5285171564605
0.023779734369215,17.5323038781586
0.0251564059093206,17.5356998822791
0.0263167772060438,17.5388228640401
0.0272713064589776,17.5418394292716
0.0279673868637961,17.544714877577
0.0283972533662228,17.5475244746067
0.0285471485544946,17.5504003876501
0.0283583687079186,17.5535535113396
0.027572212990476,17.557699288069
0.0267141175795307,17.5605714006983
0.0256504274233215,17.5634435133276
0.0245737655379062,17.5659928313332
0.0234996450998709,17.5683468294885
0.0224248822301876,17.5705965340636
0.0213511493057084,17.5727883988357
0.0202818775093314,17.574949863883
0.0192207922435517,17.5770994349623
0.0181714857029692,17.5792507738973
0.0171373044872549,17.5814146431608
0.0161213155304037,17.5835999893154
0.0151263130810459,17.5858145740034
0.0141548236491946,17.5880654005568
0.0132091173053639,17.5903590027863
0.0122912219763653,17.5927016485368
0.0114029232259842,17.5950995311803
0.0105457802520441,17.5975588921836
0.00972113467251016,17.600086142166
0.00893010984108689,17.6026880046662
0.00815838276728733,17.6054279119594
0.00740068108047641,17.6083526999589
0.00666075627671181,17.6114840245653
0.00594245920026443,17.6148472946694
0.005249831516579,17.6184718804896
0.00458706116118821,17.6223918504519
0.00395839295162316,17.6266470233614
0.00336798750358909,17.6312845765967
0.00281971264757977,17.6363618034168
0.00231686442813655,17.6419512033591
0.00186195883361447,17.6481484454384
0.00145897834473734,17.6550395999819
0.00112076638742837,17.6624662226542
0.00084055217750055,17.6705372838412
0.000611856835616459,17.6793996868589
0.000428721724636973,17.689247722737
0.000297519027755535,17.699247722737
0.000210135497391551,17.709247722737
0.00015156371858389,17.719247722737
0.00011123919869068,17.729247722737
8.32243900970459e-05,17.739247722737
6.39209665038981e-05,17.749247722737
5.0853180863883e-05,17.759247722737
4.22016729034716e-05,17.769247722737
3.66349439255189e-05,17.779247722737
3.32089882518716e-05,17.789247722737
3.12730563365323e-05,17.799247722737
3.03842929132227e-05,17.809247722737
3.02411505675861e-05,17.819247722737
3.06370961138041e-05,17.829247722737
3.14302306025704e-05,17.839247722737
3.25234312874055e-05,17.849247722737
3.38509961608443e-05,17.859247722737
3.5369381806506e-05,17.869247722737
3.70506887829004e-05,17.879247722737
3.88780921075962e-05,17.889247722737
4.08426720788193e-05,17.899247722737
4.2941244775767e-05,17.909247722737
4.51748963774645e-05,17.919247722737
4.75480096428231e-05,17.929247722737
5.00676360205591e-05,17.939247722737
5.27431139870191e-05,17.949247722737
5.55858668143176e-05,17.959247722737
5.86093352852435e-05,17.969247722737
6.18290164247578e-05,17.979247722737
6.52625905379876e-05,17.989247722737
6.89301272795177e-05,17.999247722737
7.28543681405929e-05,18.009247722737
7.70610883548473e-05,18.019247722737
8.15795463659571e-05,18.029247722737
8.64430341744807e-05,18.039247722737
9.1689547565615e-05,18.049247722737
9.73626019213742e-05,18.059247722737
0.000103512227631142,18.069247722737
0.000110196189781461,18.079247722737
0.000117481490828995,18.089247722737
0.000125446233726156,18.099247722737
0.000134181948448139,18.109247722737
0.000143796519920507,18.119247722737
0.000154417904178773,18.129247722737
0.000166198888508747,18.139247722737
0.00017932324990403,18.1492477227371
0.00019401380925321,18.1592477227371
0.000210543089546807,18.1692477227371
0.000229247602445645,18.1792477227371
0.000250547269921907,18.1892477227371
0.000274972238641115,18.1992477227371
0.00030320053953195,18.2092477227371
0.000336111991892344,18.2192477227371
0.000374867008842278,18.2292477227371
0.000421024573577973,18.2392477227371
0.000476723649021567,18.2492477227371
0.000541767235962239,18.2588165920017
0.00061531478802859,18.2676514942265
0.000698314911522891,18.2757973444672
0.000791964074775993,18.2833085167087
0.000897639107710832,18.2902358108391
0.0010169037450179,18.2966262624735
0.001151529890533,18.3025234665251
0.0013035246548998,18.3079678639502
0.00147516460801337,18.312996919494
0.00166902906423383,18.3176453257323
0.00188804738490769,18.3219452412024
0.00213554874787775,18.3259265444895
0.00241532868762844,18.3296169984004
0.00273171863259624,18.3330424120192
0.00308968464277667,18.336226861757
0.00349495363236826,18.3391929183186
0.00395416785166559,18.3419618273494
0.00447510590933901,18.3445537628128
0.00506699346999753,18.3469881518805
0.00574094633341991,18.3492840401235
0.00649292826589578,18.3514147740836
0.00732281662998151,18.3533850275228
0.00824249149663933,18.3552291935853
0.0092699164673597,18.3569822208458
0.0104344494069662,18.3586841803001
0.0117924019811772,18.3603935926374
0.0135628104712286,18.3623131216898
0.0155335201043567,18.3641783141906
0.0171464325169538,18.3655722267233
0.0188381707990052,18.3669661392559
0.0203597794196519,18.3682069560755
0.0217211620681282,18.3693507123631
0.022941562642677,18.3704532589647
0.0240159810491555,18.3715544693586
0.0249223890417806,18.3726943809005
0.0256176866311082,18.3739303314602
0.0260101026869346,18.3753845496152
0.0259408557379145,18.3768207232486
0.0255050643977098,18.3781488753509
0.0247803623846572,18.3794560689292
0.0237768849227484,18.3808209660858
0.0225737355832303,18.3822036185337
0.0212211870292606,18.3836139097228
0.019736374799186,18.385087122471
0.018128777397426,18.3866596498531
0.0175255514761213,18.3872531840945
0.0169333952002293,18.3878467183358
0.0151443315248599,18.3897502074344
0.0132764694670373,18.3919580464648
0.0113856491180466,18.3945061126633
0.00969208518306746,18.3971668732613
0.00833004186268031,18.399681980275
0.00717943986387992,18.4021863636407
0.00619100034958168,18.40474601233
0.0053460143637119,18.4073860501537
0.00463212507616685,18.4101295731832
0.0040417223255786,18.4130006472261
0.00357197656347634,18.4160257708531
0.00322598471467997,18.4192353414595
0.00301564135076393,18.422665413142
0.0029654617569684,18.4261286856116
0.00306467910414736,18.4292237632658
0.00328379046994382,18.4320082531735
0.00360625939798542,18.4345282269666
0.00402393678956085,18.4368265470289
0.00453654299205674,18.4389495873929
0.00515059974325169,18.4409409815242
0.0058822632903653,18.4428486271419
0.00676293458860486,18.4447295887422
0.00785138562461425,18.4466595115219
0.00926561039572607,18.4487577099642
0.0112703440828238,18.4512437749343
0.0131454627176123,18.4532301271623
0.01529699221444,18.4552164793904
0.0174106730294689,18.4569196070471
0.0195514748354979,18.4584316369242
0.0218106998488774,18.4598289366517
0.0242654852416811,18.4611533114328
0.0269602389796733,18.4624160504484
0.029950268821551,18.4636286252189
0.0332825982376118,18.4647949035102
0.0370118762299886,18.4659191915023
0.0411906012146256,18.4670031103908
0.0458854164503519,18.4680503295094
0.0511647823483988,18.4690628440674
0.0571130169600121,18.4700438578614
0.063825359099686,18.4709961410092
0.0714141518262253,18.4719226700226
0.080013638347639,18.4728266674422
0.0897837051588224,18.4737114216267
0.100918693453843,18.4745805140752
0.113655945763458,18.4754377757376
0.128288778691584,18.4762873926406
0.145185298288414,18.4771340841166
0.164815030892786,18.4779833168763
0.187794694137263,18.478841853316
0.214982111506467,18.4797191531696
0.246637055391789,18.4806032787973
0.28328602674412,18.4814942883105
0.325976829719965,18.4824058646279
0.376502061606025,18.4833675745834
0.414210876812426,18.484034438859
0.453062251801614,18.4847013031346
0.487671615338411,18.4852999929694
0.518189314067499,18.4858548436148
0.545081303364394,18.4863940665087
0.568239156335925,18.4869407080608
0.587025310593483,18.4875216926491
0.599888336288755,18.4881843195069
0.602770109255204,18.4889094072
0.593474123344934,18.4896654200375
0.570569725777488,18.4904756361284
0.536547687101314,18.4912665461584
0.489427897065958,18.492099229298
0.42639404597201,18.4930003824192
0.37292888215143,18.4936609988055
0.314289737074174,18.4943216151919
0.263848782078051,18.4948596046368
0.221949013005347,18.4952984174862
0.185814318240871,18.4956796322812
0.153794853906447,18.496026512093
0.124968056863325,18.4963525093964
0.0987338691277787,18.496667004962
0.0746214660392463,18.4969782232928
0.0521500615620062,18.4972959119173
0.0305550959632074,18.4976377844189
0.00701640208617561,18.4980729410199
-0.0022169212237599,18.498269934566
-0.0106057424836183,18.498466928112
-0.0172606642482952,18.4986386628371
-0.0234646297748855,18.4988142862392
-0.0297230331759318,18.4990106558547
-0.0357760213957514,18.499224339685
-0.0414578010964923,18.4994532760119
-0.0466754244722748,18.4996967265734
-0.0513800184554685,18.4999548416624
-0.0555495396951724,18.5002284165546
-0.0591785167177327,18.5005187743855
-0.062271740087421,18.5008277286156
-0.0648401863971137,18.5011576011524
-0.0668960875795655,18.5015112874144
-0.0685313550962973,18.5019200743896
-0.0695400329031643,18.5023313853379
-0.0700766966228945,18.5027795882248
-0.0701515490655605,18.5032721383664
-0.0697673162462317,18.5038182652526
-0.0689150435157341,18.5044315844467
-0.0675687798542635,18.5051304677273
-0.0656739589473738,18.5059428360968
-0.063113863521479,18.5069179270677
-0.0595764143438168,18.508172533219
-0.0554361750115547,18.5095910874172
-0.0513987397276962,18.5109657751362
-0.0475209772121586,18.5123016329932
-0.0438325533513885,18.5136006474559
-0.0403500018871938,18.5148634048354
-0.0370823503705172,18.5160897925663
-0.034033522380127,18.5172793725491
-0.0312035621367989,18.5184315788212
-0.0285894083738941,18.5195458203753
-0.026185489443817,18.5206215307199
-0.0239842407234804,18.5216581857385
-0.0219765785587683,18.5226553013747
-0.0201523375201714,18.5236124175375
-0.0185006685947487,18.5245290717912
-0.0169337315839854,18.5254512361884
-0.0154249647624389,18.5263971289654
-0.0139786610184457,18.5273684582099
-0.0125986956325368,18.5283673872824
-0.0112887333946356,18.5293964603201
-0.0100521736773552,18.5304586980834
-0.00889209443587213,18.5315577233026
-0.00781119288866773,18.5326979301489
-0.0068117222176106,18.5338847188414
-0.00589542284942259,18.535124829614
-0.00506344553529367,18.5364268341923
-0.00431626096394415,18.5378018887808
-0.0036535457541175,18.5392649466898
-0.00307402405300584,18.5408368393118
-0.00259449500512826,18.5424733097287
-0.00220919641351502,18.5441602970754
-0.00190206774984393,18.5459161873259
-0.0016583897280324,18.5477634343347
-0.00146408252511461,18.5497323648288
-0.0013051539701107,18.5518666330854
-0.00116677317875864,18.5542348945061
-0.00103123409450914,18.5569607630372
-0.000871248801754386,18.5603298735444
-0.000682842624877338,18.5640843924069
-0.000457564347982612,18.5681797350511
-0.000187138685848815,18.5727365922594
0.000111752641997385,18.5775821122646
0.000431164796616282,18.5827471479253
0.000764480246144565,18.5882598839234
0.00110795717252187,18.594144404435
0.00145538452155241,18.6003190465186
0.0017318355142644,18.6053585093021
0.00197188724962927,18.6098127342241
0.00219748870986726,18.6140434644443
0.00242376696736001,18.618309046518
0.00266962345443449,18.6229454150313
0.0029293443918048,18.6278138024052
0.00318970949843676,18.6326317577944
0.00344808669781364,18.6373246785865
0.00367642083724424,18.6413766949991
0.00389580970699843,18.6451774059277
0.00411526166492886,18.6488789160745
0.00434003048014254,18.6525586422407
0.00457418697139623,18.6562669746358
0.00482146792667419,18.6600420566832
0.00508566209450674,18.6639156342738
0.00537090512963576,18.6679167306637
0.00568191107472258,18.6720735240784
0.00602422493675353,18.6764146228636
0.00640455879392007,18.6809700749939
0.00683132775981823,18.6857724952754
0.00730810466554561,18.6907822535114
0.00780933302945651,18.6956746557164
0.00834675779871527,18.7005298778314
0.00892143158545229,18.7053097904202
0.00953975625690004,18.7100186931101
0.0102086148816878,18.7146558476352
0.0109468615573723,18.7192864475864
0.0117732477548821,18.7239430539254
0.0127064272617618,18.7286334697939
0.0137725805609122,18.7333816076893
0.0150106430808916,18.7382372566147
0.0164904586410251,18.7433204571403
0.0183877355447213,18.7489972059948
0.020804393286152,18.7553334530291
0.0223419455408898,18.7590733254113
0.0239029088658596,18.7628131977934
0.025259938558308,18.7661772719197
0.026403222930631,18.7692857052384
0.0273402066525288,18.7722995994529
0.0280136594670589,18.775165171796
0.0284206360866474,18.777974847041
0.0285449665661317,18.7808640598693
0.0283213966513826,18.7840581919223
0.0274388972343104,18.7884104650329
0.0265666717738283,18.7912104079601
0.0255059319607429,18.7940103508873
0.0244309721241049,18.7965234878133
0.0233569255409124,18.7988596090035
0.0222821752885659,18.8010995354672
0.0212088519748554,18.8032860380066
0.0201404783539862,18.8054449848335
0.0190807767848228,18.8075940712582
0.0180333103949455,18.8097464898885
0.0170013899025005,18.8119127124783
0.015988045504796,18.8141014987299
0.0149960354146593,18.8163204895295
0.0140278519286753,18.8185766108664
0.013085731785368,18.8208763523442
0.0121716709576016,18.8232259618773
0.0112874244148396,18.825631632521
0.0104345213399353,18.8280996242226
0.00961427471002948,18.830636381335
0.00882778015178274,18.8332486775508
0.00805767973341475,18.8360118610719
0.00730211521525009,18.8389625024954
0.00656482128524873,18.8421228240193
0.00584967680901548,18.8455187140467
0.00516074567486959,18.8491801152563
0.00450222947636146,18.8531417831017
0.00387837110841273,18.8574443964104
0.00329330537356745,18.8621362770155
0.00275084513861471,18.8672763299563
0.00225418979023298,18.8729395966122
0.00180574731859337,18.8792255230706
0.00141158967069254,18.8861805250576
0.00108128870036751,18.8936836793156
0.000808110967569731,18.9018482507663
0.000585652741810987,18.910826286722
0.000408014462610328,18.9208197425288
0.000283144799974613,18.9308197425288
0.000202507558285368,18.9406001863738
0.000146420072280331,18.9506001863738
0.000107622640671633,18.9606001863738
8.06785702403129e-05,18.9706001863738
6.21674540897417e-05,18.9806001863738
4.96768055497076e-05,18.9906001863738
4.14301189261043e-05,19.0006001863738
3.61388246939142e-05,19.0106001863738
3.28976399685469e-05,19.0206001863738
3.10854726236614e-05,19.0306001863738
3.027975493873e-05,19.0406001863738
3.01921345778974e-05,19.0506001863738
3.06246958637829e-05,19.0606001863738
3.14413577462452e-05,19.0706001863738
3.25490471537426e-05,19.0806001863738
3.38849138236801e-05,19.0906001863738
3.54074134476712e-05,19.1006001863738
3.70900330319401e-05,19.1106001863738
3.89169001159552e-05,19.1206001863738
4.08797458068873e-05,19.1306001863738
4.29758297021359e-05,19.1406001863738
4.52065396451874e-05,19.1506001863738
4.7576462966186e-05,19.1606001863738
5.00927892733651e-05,19.1706001863738
5.27649500155628e-05,19.1806001863738
5.56044310639061e-05,19.1906001863738
5.86247158291888e-05,19.2006001863738
6.18413313406843e-05,19.2106001863738
6.52719805290029e-05,19.2206001863738
6.8936752121727e-05,19.2306001863738
7.2858406034409e-05,19.2406001863738
7.7062737621767e-05,19.2506001863738
8.15790292080086e-05,19.2606001863738
8.64406024343054e-05,19.2706001863738
9.16854906182564e-05,19.2806001863738
9.73572570171133e-05,19.2906001863738
0.00010350599321342,19.3006001863738
0.000110189542547741,19.3106001863739
0.000117475007612634,19.3206001863739
0.000125440619689971,19.3306001863739
0.000134178073645672,19.3406001863739
0.000143795467072059,19.3506001863739
0.000154421031634935,19.3606001863739
0.000166207914000044,19.3706001863739
0.000179340363058038,19.3806001863739
0.000194041824404797,19.3906001863739
0.000210585655722969,19.4006001863739
0.000229309495638018,19.4106001863739
0.000250634805646487,19.4206001863739
0.000275093863368239,19.4306001863739
0.000303367693182354,19.4406001863739
0.000336340389840422,19.4506001863739
0.000375178588568458,19.4606001863739
0.000421450522467247,19.4706001863739
0.000477309243923233,19.4806001863739
0.000542405380918,19.4901471503447
0.000616004540848845,19.4989612629025
0.000699062845156773,19.5070881631353
0.000792779558720184,19.5145820855577
0.000898533778591853,19.5214936731245
0.0010178915993352,19.5278698203553
0.00115262755553458,19.5337539950713
0.00130475175278758,19.5391865212471
0.00147654414615166,19.5442047554882
0.00167058777938979,19.5488432924628
0.00188981634305474,19.5531342028386
0.00213756384421533,19.5571072846015
0.0024176310236693,19.5607902249428
0.00273435540644346,19.5642087642173
0.00309270981875565,19.5673869171223
0.00349842894459263,19.5703471961917
0.00395816399630675,19.57311079326
0.00447970413271986,19.5756978336301
0.00507228765789138,19.5781276981678
0.00574704586326702,19.5804193887035
0.00649965791753602,19.5825455621297
0.00733021853823946,19.5845116874339
0.00825061696746267,19.5863520710381
0.00927881655283699,19.588101553109
0.0104441653765673,19.5898000754841
0.0118029285191203,19.5915059476462
0.0135746653287978,19.5934218426454
0.015563161962441,19.5952980002375
0.0171769870514266,19.5966879995588
0.0188693084049159,19.59807799888
0.0203925451090596,19.5993164374483
0.0217556223789759,19.6004583654778
0.022977595446833,19.6015593759336
0.0240533818215404,19.6026592692171
0.0249608582045686,19.6037980885796
0.0256567472609395,19.6050332929828
0.02604875581148,19.6064877024615
0.0259669999859101,19.6079750045363
0.0255064557616999,19.6093228138993
0.0247660862192244,19.6106270380236
0.0237681395562908,19.611967378241
0.0225594338123827,19.6133468206355
0.021199937248302,19.6147577986599
0.0197079816562989,19.6162334842561
0.0180929532644611,19.6178102501868
0.0174625666297505,19.6184298782533
0.0168459725344992,19.6190495063198
0.0150709943550745,19.6209441052502
0.0132323653138336,19.6231229289723
0.0113869395203673,19.6256103436547
0.00969405706344705,19.628265093618
0.00832879388067176,19.6307804946295
0.00717556874364541,19.6332842555004
0.00618451795430797,19.6358430431235
0.00533676188449028,19.6384820155841
0.00461976338706255,19.641224263166
0.00402568769964973,19.6440938324057
0.00355139261555476,19.6471171902483
0.00319949274379244,19.650324688265
0.00298107460118776,19.653752316433
0.00292031745059159,19.65726229452
0.00301082241196192,19.6603962698004
0.0032220430441044,19.6632144214727
0.00353675903521997,19.6657623941866
0.00394633247362709,19.6680835566128
0.00444986903878969,19.6702241171322
0.00505317431074096,19.672227697212
0.00577116964404106,19.6741414456449
0.00663275797224177,19.6760202794006
0.00769274893996757,19.6779375199567
0.00905949894081082,19.6800053766584
0.0109794103833695,19.6824350427407
0.0133487067927729,19.6849503929823
0.0156155374628712,19.6870044754959
0.0177367485987948,19.688676873803
0.0198940210202358,19.6901676084739
0.0221809487432404,19.6915508395428
0.0246693274112478,19.6928630125012
0.0274117283583005,19.6941183591523
0.0304511628839247,19.6953219016977
0.0338456649541442,19.6964816129419
0.0376409688920638,19.6975983201778
0.0418991859307883,19.6986762664687
0.0466829841823182,19.6997176006358
0.0520645272021499,19.7007248386494
0.0581293416452603,19.7017010143527
0.0649743692174209,19.7026488217862
0.0727163384130495,19.7035714489433
0.0814926323379621,19.7044720440642
0.0914681979745259,19.7053539496049
0.102843582978156,19.7062207839094
0.115863949718787,19.7070764157426
0.130833258604056,19.7079251116449
0.148133557232902,19.7087716820903
0.168253902756116,19.7096217448598
0.191840932656739,19.7104823556497
0.219806349863749,19.7113636519768
0.252215223888749,19.7122481081014
0.289761403885535,19.7131411000911
0.333567265796379,19.7140578623931
0.385650259058409,19.7150327710234
0.422603863597985,19.7156796735852
0.460372307944063,19.716326576147
0.494084550274015,19.7169133114409
0.523870096770076,19.7174629663452
0.55005017832429,19.718001729403
0.57241541189325,19.718552631649
0.59019974476176,19.7191447746289
0.601528318232682,19.719834251363
0.601954105816555,19.7205637787125
0.589969959209162,19.7213291227284
0.564347529098297,19.7221437235841
0.527854456952331,19.7229378081997
0.477516443675842,19.723784850357
0.411391680160197,19.7246940999146
0.359853369631935,19.725313796239
0.304023612323222,19.7259334925635
0.255630577067167,19.7264465839012
0.214982005228533,19.7268721114878
0.179691913826122,19.7272456912055
0.148309160409383,19.727587913154
0.119993178784267,19.7279111644842
0.0941784849688765,19.7282244344394
0.0704032889767498,19.7285359941193
0.0481648503210989,19.7288563232524
0.0265697454699554,19.7292064667053
0.00839361425823693,19.7295454455618
-0.00129915948119973,19.7297498605468
-0.0100784928756114,19.7299542755317
-0.016818060835587,19.730127035579
-0.0230038501455371,19.7303009000568
-0.029268099819693,19.7304958288211
-0.0353434441664994,19.7307082972494
-0.041057012417451,19.7309361196146
-0.0463115561004573,19.7311784759216
-0.0510556147880451,19.7314354605443
-0.055265554011328,19.7317078257329
-0.0589349145648563,19.7319968571588
-0.0620678790344005,19.7323043315001
-0.0646750682088097,19.7326325308514
-0.0667693108493667,19.7329843043304
-0.0684508574501881,19.7333925496375
-0.0694933502473583,19.7338014447212
-0.0700628725252889,19.7342467721512
-0.0701700770724684,19.7347358814988
-0.0698182243268802,19.7352778226605
-0.0689994155014393,19.7358858245842
-0.0676891158888799,19.7365778506813
-0.0658354711621862,19.7373808921979
-0.0633283076786608,19.7383419218572
-0.059880860566005,19.7395689351431
-0.0557347901123846,19.7409912897746
-0.0516865538287322,19.7423689155904
-0.0477951277520393,19.74370748719
-0.0440915094894096,19.7450091335416
-0.0405929283218328,19.746274512105
-0.0373088496786364,19.7475035447188
-0.034243514555067,19.7486958082119
-0.0313972158458051,19.7498507412956
-0.0287670924689323,19.7509677524404
-0.0263477328625757,19.7520462723591
-0.0241316964711619,19.7530857736653
-0.0221099906229046,19.7540857697466
-0.0202725104517132,19.7550457995129
-0.0186084401560389,19.7559654017442
-0.017037307356148,19.7568859034369
-0.0155239957154948,19.7578300513365
-0.0140728802650124,19.7587994933623
-0.0126878493204282,19.7597963688958
-0.0113725849415977,19.7608231919104
-0.0101305076488823,19.761882945343
-0.00896472067096024,19.7629792038643
-0.00787795090165867,19.7641162996112
-0.0068724859505894,19.7652995512001
-0.00595010592434721,19.7665355890292
-0.00511200728471522,19.7678328327675
-0.00435871376750766,19.7692022206036
-0.00368996470749067,19.7706583789998
-0.00310456112021679,19.7722216198377
-0.00261755917820857,19.7738551877423
-0.00222608073106082,19.7755379246897
-0.00191389391529256,19.7772881662001
-0.00166621836699153,19.7791279253032
-0.00146894567535948,19.7810868224629
-0.00130810522391292,19.7832072697082
-0.00116897975134266,19.7855554672848
-0.00103420607494969,19.7882491544842
-0.00087774784419177,19.7915535956087
-0.00069129306874412,19.7953001765688
-0.000470064062921406,19.7993569950393
-0.000201815753240396,19.8039052182765
9.55406155561537e-05,19.80874121337
0.000414029845905609,19.813896232445
0.000746826242356713,19.8193987236665
0.00108995173362949,19.8252730738039
0.00143855575431916,19.8314662833001
0.00171930838064668,19.8365858805707
0.00196129355326605,19.8410795191452
0.00218720638026638,19.8453207914833
0.00241232085634617,19.8495701560871
0.00265446687586842,19.8541437840395
0.00291469958061118,19.8590322521076
0.00317415752399071,19.8638448400316
0.00343800628307335,19.8686503093395
0.00366787382834335,19.8727389021744
0.00388758444124968,19.876554008132
0.00410680827124749,19.8802605431852
0.00433098786322467,19.8839398140675
0.00456425570186845,19.8876437786788
0.00481036624728872,19.891411394817
0.00507309878741915,19.8952748159726
0.00535655754054855,19.8992632000936
0.00566540847701529,19.9034047412416
0.00600512808736519,19.9077279614476
0.00638232987548814,19.9122627344084
0.00680527815960221,19.9170413837903
0.0072808936709517,19.9220603577283
0.00777994419978159,19.9269527388021
0.00831540830749136,19.9318125718693
0.00888778030958009,19.9365966938015
0.009503479387728,19.9413101790596
0.0101692227540059,19.9459515121525
0.0109027897552934,19.9505802793582
0.0117236492815979,19.9552354680946
0.0126499796803904,19.95992331476
0.0137074943162183,19.9646670237993
0.014934075447406,19.9695140783542
0.0163967711669822,19.9745780823528
0.0182596264140192,19.980197868545
0.0206757553342667,19.9865742324933
0.0222243882134398,19.990352430197
0.0238019292803417,19.9941306279008
0.0249958168326767,19.9970653139504
0.0261066128115232,20
