ecg,time
0.00300492871444599,15.000758104397
0.00319899425439664,15.0049489472718
0.00338043950967315,15.0088167371401
0.00355896562997394,15.0125561154894
0.00373964701744712,15.0162576544835
0.0039260831228186,15.0199772537081
0.00412135428430902,15.0237561267224
0.0043284055247164,15.027628097641
0.00455028633997764,15.0316235555336
0.00479033695052106,15.0357719332279
0.00505234785646501,15.0401031315246
0.00534076208222001,15.0446487192031
0.00566099443594618,15.0494432174589
0.00601997501849291,15.054525490507
0.00641110819532567,15.0597324950558
0.00682015910360755,15.0648284965901
0.00725447603162674,15.0698701992278
0.00771582459301123,15.074831898122
0.00820949867361948,15.0797222256777
0.00874110054828053,15.0845443949809
0.00931716076905189,15.0893027096827
0.00994481339400225,15.0939989270972
0.0106329879189094,15.0986400342721
0.0114069453998286,15.1033180953989
0.0122811597314884,15.1080233745704
0.0132782893315828,15.1127735674544
0.0144300692021803,15.1176025018175
0.0157892101742388,15.1225916467562
0.0174683023099985,15.1279620591482
0.0198822545754333,15.1346401366085
0.0214944674766748,15.1386783423201
0.0231687556949405,15.1427165480316
0.0246257158627308,15.1462669487255
0.0258523582561689,15.149459677564
0.0268743572248356,15.1524939388345
0.0276615134768698,15.1554169495989
0.0281834837330495,15.1582326401013
0.0284354385470667,15.1610633673086
0.028380262508946,15.1640761384465
0.0278815450097196,15.167669866265
0.0270774616686845,15.1708671466154
0.0259912260365139,15.1740644269658
0.0249082299847105,15.1767517658104
0.0238390604095967,15.1791643188494
0.0227710894100546,15.1814425062582
0.0217035462995016,15.1836476710529
0.0206393141644539,15.1858129039056
0.0195819954596623,15.1879594724032
0.0185351725042247,15.1901025981428
0.0175022098445526,15.1922540131711
0.0164862008480003,15.1944232991553
0.0154899635339142,15.1966186608971
0.0145160453411697,15.1988474256051
0.0135667361282091,15.2011163749966
0.0126440796322984,15.2034319895338
0.0117498806437155,15.2058006478373
0.0108857174184646,15.2082287801891
0.0100529513578101,15.2107230095289
0.00925273229655384,15.2132902989023
0.00847887063688396,15.2159637158495
0.00771742408032111,15.2188153001311
0.00697216197997937,15.2218654487132
0.00624685271802851,15.2251385556112
0.00554547991904283,15.2286628244648
0.004872208604664,15.2324709822829
0.0042313177686255,15.2366012340041
0.00362708933208641,15.2410986358358
0.00306362916417674,15.2460173880382
0.00254461778497255,15.2514249464194
0.00207303986402162,15.2574092755104
0.00165109922985297,15.2640891484505
0.00129404355903984,15.2713112795674
0.000998042807732089,15.2791332573727
0.00076717230958963,15.2876867958734
0.000622685506324608,15.2954351175399
0.000497413170809052,15.3048347586953
0.000409004311160309,15.3146029329178
0.000350635468445161,15.3246029329178
0.000316458325364525,15.3346029329178
0.00030047433569202,15.3446029329178
0.00029849993529026,15.3546029329178
0.000307850763347386,15.3646029329178
0.000327098973903833,15.3746029329178
0.000355879367886968,15.3846029329178
0.000394795351130103,15.3946029329178
0.000445470016232496,15.4046029329178
0.000506551884654553,15.4140149960554
0.000577527800193493,15.4226769839793
0.000659210826245365,15.4306444600161
0.00075280206224915,15.4379761540658
0.00085978376743687,15.4447259895677
0.000981895977441244,15.4509433569929
0.00112114343969816,15.456673606505
0.00127981741346316,15.461958458242
0.00146052785709755,15.4668363437462
0.0016662425781377,15.4713427149613
0.00190033827072657,15.4755103290817
0.00216666146359422,15.4793695095106
0.00246960618139347,15.4829483857646
0.00281421168714032,15.4862731336825
0.00320628964277899,15.4893682251468
0.00365259438239358,15.4922566902699
0.0041610550422632,15.4949604139649
0.00474110771599404,15.4975005015568
0.00540419040387071,15.4998977609626
0.00614592213427497,15.5021225342415
0.00696848038596679,15.5041857493636
0.0078855500564711,15.5061255661904
0.00891863850733579,15.5079825218374
0.010105449865472,15.5098075904686
0.0115278964112596,15.51168860472
0.0135661238823094,15.5139976590696
0.0150914991443939,15.5155354411726
0.016718221789636,15.5170732232756
0.0182150094123619,15.5184502079695
0.0195406107998196,15.5196868584856
0.0207266756940491,15.5208565798305
0.0217763920716855,15.5220059057525
0.0226747707018767,15.5231741819221
0.0233898998322299,15.5244091189961
0.0238598698502343,15.525793498547
0.0239205436322347,15.5275670727583
0.023406013300577,15.5293389349617
0.0224126780167825,15.5311107971651
0.0212998749054766,15.5325988053451
0.020063424294636,15.5340324709778
0.0187019656551381,15.535492631439
0.0172242316885709,15.5370205026057
0.0156368478120287,15.5386538835262
0.0143898484735808,15.5399903348581
0.0120709639802673,15.5427332403807
0.0100189157753473,15.5455380754471
0.00836438954599537,15.5481675938909
0.00702425343886784,15.550635639063
0.00592783324309422,15.5529638069419
0.00502010886393143,15.5551743251988
0.00425830330956003,15.5572911330659
0.00360859687821299,15.5593423150461
0.00304303812893267,15.5613653170619
0.00253574677823349,15.563420682799
0.00205400360740815,15.565642906768
0.00162152927223668,15.5679269375443
0.00133272917624573,15.5696449696324
0.00107148231723013,15.5713630017205
0.000859289615030326,15.5728951330554
0.000675388874733118,15.5743394685708
0.00050471578816707,15.5757920671648
0.000336548080204644,15.5773452003987
0.0001573709613461,15.5791544946463
-7.26806482751344e-05,15.5817558613416
-0.000327630868191672,15.5850918181979
-0.000518231100093536,15.5879789756126
-0.000682472735168212,15.5908039260434
-0.000850178942828131,15.5940837149827
-0.0010437842950571,15.5984883230098
-0.00125168479623031,15.6042001034112
-0.00140345676691614,15.6094665917116
-0.00150255316756632,15.614233375252
-0.00154850807200315,15.6185028563799
-0.00153891028207676,15.6223201997605
-0.00146998544238795,15.6257432450113
-0.00133726885553449,15.6288271424142
-0.00113503611029076,15.6316370897286
-0.000855156723191524,15.6342396513416
-0.00048308775140797,15.6367171259796
1.16342537269772e-05,15.6391868288904
0.00070362378970551,15.6418630869243
0.00163847893235182,15.6447785833287
0.00257761185922219,15.6473181229523
0.00345063491614469,15.6495075407318
0.00449558214605043,15.6520018377364
0.00541076415118377,15.6540802947324
0.00638835275659285,15.6561587517285
0.00736411686472691,15.6580526864637
0.00838631075605913,15.6598274959283
0.00949065114738443,15.6615155869955
0.0107267011578841,15.6631590220745
0.0121220487712354,15.6647584124043
0.0137004244765962,15.6663098338943
0.0154842717625504,15.6678094851182
0.0175003132625382,15.6692579060468
0.0197656203849317,15.6706491913032
0.0223085854173183,15.6719856840844
0.0251614564312548,15.6732702311383
0.028358806794772,15.6745050710507
0.0319406471313376,15.6756929447601
0.0359528468022895,15.6768367246033
0.0404529225817228,15.6779404749893
0.0455062739894961,15.6790076849589
0.0511899750967323,15.6800418842241
0.0575952624262155,15.681046637382
0.0648317539911624,15.6820256968526
0.0730319626577551,15.6829829997584
0.0823579327356498,15.6839227648407
0.0930109659791266,15.6848496619885
0.105245586755226,15.6857690220962
0.119391249310638,15.6866871916183
0.135886396101198,15.6876120509217
0.15533747023178,15.68855397882
0.178355619094331,15.6895170450646
0.205003048975232,15.6904836597274
0.235971345401018,15.691463853481
0.272192385691031,15.6924723067786
0.315096970533379,15.6935351024507
0.35249123572778,15.6943849566573
0.391776178426554,15.6952348108639
0.426403545720607,15.6959747762053
0.456516986583457,15.6966371178021
0.482878894664988,15.6972605099044
0.505611528474755,15.6978708944794
0.524372180217767,15.6984909707632
0.538291406255004,15.6991479815715
0.545477955947774,15.6998874420264
0.542477161932152,15.7006768172744
0.527644924172125,15.701492893915
0.499496042310192,15.702353028642
0.456049462132069,15.703269992441
0.395628417783444,15.7042442594878
0.349091095073768,15.7048787238772
0.297815694929562,15.7055131882666
0.25248381781962,15.7060421173587
0.213876308933663,15.7064826559069
0.180097884267021,15.7068695273491
0.149919505756522,15.7072233615915
0.122609553045612,15.7075566985789
0.0976719396801503,15.7078785274856
0.07470712860901,15.7081967858888
0.0533036655379792,15.7085207412058
0.0328248073357348,15.7088664802694
0.0112073159212541,15.7092887384843
0.000957232643856501,15.7095192029747
-0.00642041112394098,15.709701825791
-0.0131677182171371,15.7098844486073
-0.0191192695226563,15.7100609933823
-0.0251983571765423,15.7102602164233
-0.0311251402575059,15.7104781300357
-0.0367147198685939,15.7107121076948
-0.0418633337573506,15.7109610831465
-0.046515839372848,15.711225013792
-0.0506462673876422,15.7115045721137
-0.054246471618502,15.7118009928773
-0.0573969437111542,15.7121262045903
-0.0598913948266724,15.712459828604
-0.061875634171172,15.7128167389516
-0.0633656089358425,15.713200521748
-0.0643756938660768,15.7136154145387
-0.0649184683030043,15.7140666925828
-0.0650030787022406,15.7145610169229
-0.0646332217999523,15.7151069681199
-0.0638025731533792,15.715716970984
-0.0624900987611241,15.7164076819006
-0.0606518887671478,15.7172033650837
-0.0581978690378393,15.7181443566939
-0.0549137296571327,15.7193145068822
-0.0507863762512236,15.7207323236963
-0.0467702813870208,15.7221013846716
-0.0429235900244932,15.7234289681586
-0.0392761286433196,15.7247179270694
-0.0358434221924756,15.7259693580758
-0.0326330122852996,15.7271834713649
-0.0296471811155163,15.72836004649
-0.0268843445526801,15.7294986726293
-0.0243399211538175,15.7305988737077
-0.0220069808621975,15.7316601696296
-0.0198767898005367,15.7326821000893
-0.0179392933399295,15.7336642250658
-0.0161835498734303,15.734606109745
-0.0145860033652661,15.7355143954679
-0.0130454731402345,15.736445726923
-0.011567007345799,15.737401299951
-0.0101546147360529,15.7383830855178
-0.00881213475482406,15.7393933848573
-0.00754318176776974,15.740434914155
-0.00635109425598413,15.7415109097447
-0.00523888168547177,15.742625268515
-0.00420916915583933,15.743782739345
-0.00326413954661166,15.7449891907925
-0.00240547235088211,15.7462519967421
-0.00163427745882953,15.7475806121896
-0.000951020478645156,15.748987471207
-0.000355432866389995,15.7504894658205
0.000151796950307238,15.75210399762
0.000551509243927364,15.7537578676675
0.000861192929848922,15.7554695233882
0.0010958591114276,15.7572580772534
0.00126948768142224,15.7591486195795
0.00139538314721915,15.7611757917376
0.00148668682446944,15.7633910148838
0.00155724423998532,15.7658788744282
0.00162366063603389,15.7688037459365
0.00171169797571374,15.7725465744537
0.001821187181115,15.7763816320349
0.00196851554962151,15.7806220352911
0.0021375241675401,15.7848653209793
0.0023311012194157,15.7893626744218
0.00255546298456522,15.7943812880534
0.00277803206585636,15.7992773411968
0.00300841055955873,15.8043068177725
0.003201955099793,15.8084832298878
0.00338324677422768,15.8123447484844
0.00356180663213889,15.8160817551724
0.00374263793765185,15.8197831197109
0.00392931451908804,15.8235040532849
0.00412490839472648,15.8272854486168
0.00433236434961125,15.8311609669995
0.00455473754400433,15.8351609353816
0.0047953780851555,15.8393147791624
0.00505809110295678,15.8436524350333
0.00534734096830988,15.8482055449579
0.00566857599947134,15.8530087507783
0.00602877981512573,15.8581010739033
0.00642017655099889,15.8633035283903
0.00682985375794349,15.8683991660131
0.00726473618671127,15.873438687594
0.007726786534637,15.8783986390338
0.00822128298870389,15.8832872282691
0.00875386319707336,15.8881078335517
0.00933106994803262,15.8928646737775
0.00996005273485247,15.8975594543123
0.0106501271585712,15.9022014669092
0.0114262853265818,15.9068800888722
0.0123031735559658,15.9115862473525
0.0133035996819268,15.9163378327205
0.0144596232628986,15.9211693840131
0.0158247294229205,15.926164158188
0.0175141232881012,15.931549329265
0.0199287484569531,15.9382105522265
0.0215348066292312,15.9422271164497
0.0232007117023756,15.9462436806728
0.0246520738793318,15.9497831512265
0.0258744884285441,15.9529710029914
0.0268924170212709,15.956003623552
0.0276742227555099,15.9589233268701
0.0281909535421284,15.9617380549579
0.0284373296387714,15.9645704989723
0.0283752757171183,15.967589423308
0.0278641954646037,15.971204409378
0.0270575990813468,15.9743825920433
0.0259734701160918,15.9775607747085
0.0248913232885831,15.9802407819215
0.0238222662263854,15.9826503960136
0.022754294764893,15.9849270866769
0.0216867786403156,15.9871314216616
0.0206226269274697,15.9892962237358
0.0195654451983223,15.9914426350436
0.0185188131953774,15.9935858081757
0.0174860915219055,15.9957374334119
0.0164703691903146,15.9979070661943
0.0154744599202058,16.0001028944919
0.0145009070914571,16.0023322347062
0.0135519965197284,16.0046018625048
0.0126297682794391,16.0069182551233
0.0117360235425929,16.0092877908941
0.0108723369030272,16.0117169026816
0.0100400666461034,16.014212217048
0.00924035925588663,16.0167807038671
0.0084666627687971,16.0194567627417
0.00770543966990284,16.0223112812177
0.00696045768347529,16.0253647192241
0.00623548880753939,16.0286415247058
0.00553451966511157,16.0321699660821
0.00486171752332556,16.0359828476654
0.00422136231546077,16.0401184685231
0.00361773466170746,16.0446220052445
0.0030549355961725,16.0495478254517
0.00253663622414032,16.0549636387202
0.00206580855225185,16.0609577991805
0.00164464455108648,16.0676496430797
0.00128858910910162,16.0748805342944
0.000993482542372479,16.082713032426
0.00076361775545948,16.0912794884702
0.000621645682713293,16.0989261506767
0.000495840014800896,16.1083859391324
0.000407869736486981,16.1181395663075
0.000349672807426112,16.1281395663075
0.000315589058735537,16.1381395663075
0.000299636811056737,16.1481395663075
0.00029764254218215,16.1581395663075
0.000306927008307218,16.1681395663075
0.000326062760545587,16.1781395663075
0.000354679857233555,16.1881395663075
0.000393370800862359,16.1981395663075
0.000443739505708291,16.2081395663075
0.000504557237238088,16.2175693331457
0.000575237366599549,16.2262483801511
0.00065658289818148,16.2342316278908
0.000749788225239851,16.2415778709386
0.000856328941524798,16.2483411163613
0.000977937793569813,16.2545708309898
0.00111661129007009,16.2603124345233
0.00127463128055637,16.2656077110197
0.00145459695082558,16.2704951508206
0.00165946372617388,16.275010259668
0.00189259397458706,16.2791858435786
0.00215781749028393,16.2830522700042
0.00245950863010882,16.2866377075341
0.00280268311834691,16.2899683654684
0.00319312405825727,16.2930687426781
0.00363755040363486,16.2959618886005
0.00414384630321901,16.2986696975227
0.00472138887373834,16.3012132704452
0.00538153565975609,16.3036133909357
0.00612075060512475,16.3058427107917
0.00694040170699642,16.3079092588734
0.00785394559991521,16.3098510883466
0.00888248942506508,16.3117084905335
0.0100628072668278,16.3135316640476
0.0114738754287797,16.3154057408851
0.0134714464424702,16.3176797131545
0.0149987321124567,16.3192255220348
0.0166314666935835,16.3207713309151
0.0181425350516299,16.3221598936822
0.01947876911981,16.3234019011886
0.020674295980122,16.3245734507999
0.0217338060431579,16.3257221499611
0.0226432765234193,16.3268873148491
0.0233720071401938,16.3281156100452
0.023860801332145,16.3294861201978
0.0239581873070982,16.3312179868164
0.0234751253137998,16.3330112254912
0.0224933936729945,16.334804464166
0.0213870567934339,16.3362989568439
0.0201573104794599,16.3377322061783
0.0188019364541742,16.3391892047235
0.0173295903836932,16.3407119450968
0.0157471664025555,16.3423380118979
0.0141918539471806,16.3440087805535
0.0118435146622242,16.3468221218472
0.00983346934288574,16.3496118659871
0.00821380644536719,16.3522254947947
0.00690095940121916,16.3546795600668
0.00582584250505683,16.3569957355495
0.00493475949324914,16.3591963373838
0.00418593993718019,16.3613055507522
0.00354628119873261,16.3633520198423
0.00298825116350367,16.3653744907553
0.00248592832238486,16.3674369939065
0.00200494669790599,16.3696876441883
0.00160110402590784,16.3718448440173
0.00131557652259214,16.3735556860966
0.00105716694037886,16.375266528176
0.0008473081788685,16.3767913109006
0.000664735737520575,16.378233751621
0.000494793135623305,16.3796886827398
0.000326819687530878,16.3812495177775
0.000146929265611623,16.3830782859999
-8.84834871407994e-05,16.3857648457305
-0.000336008146220143,16.389034631589
-0.000521819999740516,16.3918674452664
-0.000684451106673748,16.3946781845727
-0.000851568290810898,16.3979614614921
-0.00104501238393514,16.4023847802861
-0.00125154677887158,16.408091898945
-0.00140209289403843,16.4133527820556
-0.00150001414775196,16.4181132204851
-0.0015448272574507,16.4223762494956
-0.00153412015657219,16.4261882230512
-0.001464102445298,16.4296066921466
-0.00133032701179716,16.4326862772817
-0.00112703316477715,16.435492874536
-0.000845996400668823,16.4380933763051
-0.000472699743766385,16.4405691560673
2.36060712275374e-05,16.4430385613716
0.00071780724612558,16.4457159559426
0.00165592470705523,16.4486351959992
0.00259316348534217,16.4511660774636
0.00346700389254504,16.4533556220238
0.0045164372693669,16.4558582377521
0.00542801273374508,16.4579262123484
0.00640184274384968,16.4599941869448
0.00738110496145482,16.4618920874194
0.00840350117661052,16.4636638828074
0.00950925697518957,16.465350648726
0.0107478348749342,16.466993745128
0.0121456022221856,16.4685920793358
0.0137273327491401,16.4701429427961
0.0155143943785698,16.4716414768088
0.0175340561021837,16.4730887844496
0.0198040574880313,16.4744793582634
0.0223517110606969,16.4758148426532
0.0252098321636975,16.4770984228164
0.0284131066645977,16.4783323559869
0.0320018399310564,16.4795194465337
0.0360217213969809,16.4806624641134
0.0405305218404176,16.4817655108052
0.045593819891894,16.482832076613
0.0512889026967599,16.4838656912449
0.0577073117677692,16.4848699262514
0.0649589247317325,16.4858485241695
0.0731767056014353,16.4868054300082
0.0825232482814244,16.4877448674037
0.0932005830995568,16.4886715134784
0.10546423980048,16.4895907108591
0.119645048600655,16.4905088206843
0.136183511659896,16.4914337495607
0.155689278345819,16.4923759192818
0.178762618688431,16.4933388708909
0.20547503741845,16.4943054917286
0.23652088862782,16.4952858556043
0.272836814429181,16.4962947353279
0.315865254699459,16.4973584848922
0.353168821241507,16.4982050200355
0.392332264790484,16.4990515551788
0.426890538552439,16.4997898702746
0.456955571063943,16.500451345447
0.483274403618988,16.50107428909
0.505962259414374,16.5016845390229
0.524670582760541,16.5023048049915
0.5385210121848,16.5029624616455
0.545600454787974,16.5037034815887
0.542447223160502,16.5044930094904
0.527444639600911,16.5053095204985
0.499099461747973,16.5061703280481
0.455424228803801,16.5070881400847
0.394868996055221,16.508061563207
0.348400247553891,16.5086937978188
0.297242690670082,16.5093260324307
0.252007587463361,16.5098535034721
0.213463554338903,16.510293210921
0.17972982320453,16.5106795801251
0.149585959132111,16.5110330951685
0.122304151343015,16.5113662336366
0.0973899634524446,16.5116879601669
0.0744442684637219,16.5120062129182
0.0530545244479543,16.5123302965032
0.0325782851585896,16.5126764560199
0.0109058099710769,16.5131006633556
0.000820606210349183,16.513327882137
-0.00824933294898433,16.5135551009184
-0.0148310912968339,16.5137375405316
-0.0208633596193974,16.5139213122291
-0.0269249445986777,16.5141262658353
-0.0327701792908545,16.5143489462635
-0.03824193813242,16.5145872532314
-0.0432530343819838,16.5148404578452
-0.0477582070888231,16.5151087451621
-0.0517374937668223,16.5153929590671
-0.0551854234137698,16.5156944811289
-0.0582941529245403,16.5160403541237
-0.0606185586608518,16.5163816338937
-0.0624362238729591,16.5167470851923
-0.0637644938264494,16.5171407212816
-0.064617333033379,16.5175670985424
-0.0650063703029273,16.5180319093483
-0.0649391853371677,16.5185423841512
-0.0644169858442417,16.5191079919798
-0.0634287234004602,16.5197427949776
-0.061947218760951,16.5204652796628
-0.0599169440733385,16.5213037368927
-0.0572207928830953,16.5223079551733
-0.0535477678205653,16.5235956646248
-0.0494501549673503,16.5249952904263
-0.0454852396095228,16.5263501885194
-0.0417017944725817,16.5276648333658
-0.0381238520593555,16.5289413546322
-0.0347638586190255,16.5301804865644
-0.031627412092186,16.5313822605095
-0.0287154013991189,16.5325463738678
-0.0260251727239987,16.5336723843945
-0.0235513051017616,16.5347598101752
-0.0212862170537512,16.535808176382
-0.0192206883939554,16.5368170302366
-0.0173443264317201,16.5377859357279
-0.0156459841460972,16.5387144544548
-0.0140669735422885,16.5396303055197
-0.0125467344430519,16.540569551813
-0.0110899176828458,16.541533666737
-0.00970048103195943,16.5425247238616
-0.0083821940514446,16.5435451533379
-0.00713858447350809,16.5445978322925
-0.0059728865879628,16.5456862004495
-0.00488798737930991,16.5468144154922
-0.00388637038348886,16.5479875665953
-0.00297005684578171,16.5492119758377
-0.00214054311028073,16.5504956373346
-0.00139873205474412,16.5518488818491
-0.000744854296671187,16.5532854308868
-0.000178370646891392,16.5548241703965
0.000291471066012903,16.5564499520425
0.000659845512336652,16.5581210112913
0.000943268205978125,16.5598556365041
0.00115637750368417,16.5616746379576
0.00131288502540509,16.5636057292338
0.00142597523673218,16.5656880069438
0.00150889634381478,16.5679812407122
0.00157606488376053,16.5705882784123
0.00164607966271162,16.5737262187501
0.00173844080337039,16.577460335374
0.00185888806173921,16.5814190817705
0.00201261824288432,16.5856400481711
0.00218787636031659,16.5899196277712
0.00239076023061791,16.5945656680901
0.00261369378286712,16.5995202685371
0.00283704601922435,16.6044221655312
0.00305410432752928,16.6091479394317
0.00324346383857417,16.6132242044439
0.00342356412786554,16.6170467495415
0.00360228993965458,16.6207697021099
0.00378417459701235,16.6244713150577
0.0039726271055706,16.6282025980924
0.00417066503488671,16.6320023829521
0.00438123643307318,16.6359032530732
0.00460745023045605,16.6399352064737
0.00485274418713447,16.6441276662318
0.00512105191626414,16.6485108517071
0.00541702492230623,16.6531169494014
0.00574640072647654,16.657981480995
0.00611661478989781,16.6631445799838
0.00651099097300552,16.6683090093029
0.00692658795594495,16.6733978598633
0.00736720493549805,16.6784178911274
0.00783623945294177,16.6833616350256
0.00833887919662989,16.6882342153409
0.00888104299480687,16.6930400521271
0.00946939803248241,16.6977826672626
0.010111251392466,16.7024633505419
0.0108197825562621,16.7071138907375
0.0116173364784416,16.7117978536345
0.0125202838504304,16.7165126212102
0.0135529965092059,16.7212783281515
0.0147509651720276,16.7261371119165
0.016176140122223,16.7311918360325
0.0179742974325739,16.7367412169482
0.0203939187878006,16.7432414496378
0.0219505471490003,16.7470801017642
0.023546126494895,16.7509187538906
0.0249401918902964,16.7543523441224
0.0261165704837635,16.7574916357516
0.0270891095249542,16.7605096826875
0.027811551013937,16.7633960591627
0.0282695544623125,16.7662033815372
0.0284525195486296,16.7690594097034
0.0283101677396951,16.7721569502588
0.0276393357583545,16.7760675285134
0.026802994415004,16.7790426675279
0.0257375291879072,16.7820178065423
0.0246633893400547,16.7846129544985
0.0235953092047732,16.786985991157
0.022527307940922,16.7892435514544
0.0214602233853588,16.7914372622389
0.0203972488925338,16.7935966401207
0.0193420176317839,16.7957412338687
0.0182980710596661,16.7978853062671
0.0172687144594563,16.800040006994
0.0162569778837191,16.8022145490404
0.015265616665134,16.804416900944
0.014297119202762,16.8066542383198
0.0133537173835076,16.8089332569413
0.0124374002665303,16.8112603967615
0.0115499205383559,16.8136420335698
0.0106928045729915,16.8160846336201
0.00986736647844602,16.8185948801274
0.00907470879277152,16.8211798334933
0.00830335996297769,16.8238923152266
0.00754528935004825,16.8267872999785
0.0068042428997442,16.8298861230253
0.00608404164535358,16.8332139864301
0.0053887137990732,16.8368000603124
0.00472245710162968,16.8406782303129
0.00408956332364966,16.8448881202072
0.0034942927800578,16.8494766209306
0.00294067832241829,16.8545004999333
0.00243226000875898,16.8600311490987
0.0019718418287511,16.8661625564698
0.00156310872170624,16.8729912247754
0.00122059652624848,16.8803416149338
0.000937646478690489,16.8883184884574
0.000759667340783883,16.8953484223662
0.00060567826816204,16.9038123561543
0.000482289001129977,16.9134917519686
0.000396984146411903,16.9234917519686
0.00034284964186333,16.9334917519686
0.000311808489963803,16.9434917519686
0.000298156645893201,16.9534917519686
0.000297954038202938,16.9634917519686
0.0003087231161321,16.9734917519686
0.00032920483815929,16.9834917519686
0.000359173013614052,16.9934917519686
0.000399357424677833,17.0034917519686
0.000451516929468781,17.0134917519686
0.000513696076465472,17.0228152992904
0.000585801807937299,17.0313929751508
0.000668713869388893,17.0392833527653
0.000763671027565894,17.0465446300528
0.000872186049371936,17.0532301386027
0.000996027834059631,17.0593887423719
0.00113723099623611,17.0650653220956
0.00129811921488999,17.0703011749299
0.00148133837429467,17.0751343500732
0.00168989679951673,17.0795999539078
0.00192721736589574,17.0837304317488
0.00219720007036845,17.0875558251194
0.00250430114036666,17.0911040101603
0.00285363378567668,17.0944009379664
0.00325109874463194,17.0974708848524
0.00370355980037086,17.1003367158432
0.00421908422837998,17.1030201859999
0.00480728768413461,17.1055423144333
0.00547985086871491,17.1079238813461
0.00622965017211155,17.1101280169275
0.00706138855571703,17.1121745440386
0.00798937647061562,17.1141017218479
0.00903620088938581,17.1159505226669
0.010242084773945,17.1177737270681
0.0117002898836206,17.1196700253629
0.0138604786467431,17.1220727864297
0.0153772484789224,17.1235778332382
0.0169841450883748,17.1250828800467
0.0184510739442776,17.1264289276623
0.019755117814409,17.1276500559134
0.0209217106204804,17.1288129097402
0.021950555067695,17.1299616180996
0.0228242188440757,17.1311357841009
0.0235074642814381,17.1323861301797
0.0239304386474436,17.1338063468939
0.0238865608076626,17.1357054648234
0.0233071319612529,17.1373854227444
0.0223129742547199,17.1390653806654
0.0211902791024418,17.1405330346668
0.0199389114386805,17.1419657465045
0.0185627185696119,17.1434312092096
0.0170709444236555,17.1449687530912
0.0160195063901596,17.1460478843279
0.0149898574429327,17.1471270155647
0.013989979043264,17.1482273078101
0.0116677258910853,17.1510415845292
0.00969134606197342,17.1538178044548
0.00809843107836583,17.1564189913032
0.00680644690000204,17.1588621574284
0.00574758993882402,17.1611689825911
0.00486919113124191,17.1633618495622
0.00413025522430572,17.1654651363486
0.00349822844229816,17.1675079301159
0.0029458941933064,17.169530016802
0.00244727006191139,17.1715982921844
0.00196653532140025,17.1738726087242
0.00157807552437753,17.1759680339635
0.00123486802334734,17.1780634592027
0.000986022442739799,17.1797602523221
0.000786623842585227,17.1812495595432
0.000609419334932219,17.1826864118563
0.000441464854285102,17.1841620317572
0.000271998722805497,17.1857805234324
8.36058144515318e-05,17.1877580905483
-0.000218505445574593,17.1914102525068
-0.000475145309395863,17.1951125584632
-0.000671541098963331,17.1984340626284
-0.000852457987529306,17.2019726468546
-0.00105835504967445,17.2067116509401
-0.00126179141455149,17.2124071309765
-0.00140922145103454,17.2176404621516
-0.00150414058757927,17.2223715994354
-0.00154594634432447,17.2266088177909
-0.0015320778882844,17.2303976864843
-0.0014586881801113,17.23379607423
-0.00132128492888621,17.2368589090249
-0.0011140121961554,17.2396522334375
-0.000828427786223796,17.2422434039422
-0.000449514883504631,17.2447147683924
5.49787534208718e-05,17.24718832228
0.000759354575196077,17.2498710795269
0.00171340779552439,17.2528107031561
0.00264089499465366,17.2553003969211
0.00351743014160681,17.2574896397539
0.00459404326224653,17.2600479988268
0.00549357904557255,17.2620776653744
0.00645478700489171,17.264107331922
0.00743086018722337,17.2659876298612
0.00845414942541247,17.2677502071341
0.00956949841836062,17.2694406062548
0.0108105604771265,17.2710758334729
0.0122157605247935,17.2726718364955
0.0138047679962703,17.2742192108008
0.0156004257782765,17.2757146790446
0.0176301292752353,17.2771592647389
0.0199137695557098,17.2785486097058
0.0224740643351734,17.2798814931835
0.0253462027334699,17.2811625655239
0.0285652116295591,17.2823941523568
0.0321719684546981,17.2835791599744
0.0362122789047023,17.28472027395
0.0407442332753372,17.2858215700958
0.0458338785945317,17.2868865399026
0.051559076218574,17.287918715416
0.0580122288932422,17.2889216944977
0.0653038719375467,17.2898991874075
0.0735682084459657,17.2908551645663
0.0829693374023086,17.2917938656097
0.0937112974904695,17.2927199907319
0.10605243332723,17.2936389206983
0.120327407111178,17.2945570611226
0.13698259216226,17.2954824024773
0.156636897567142,17.2964255030605
0.179857910682396,17.2973883481719
0.20674472146294,17.298355225019
0.237999651258532,17.2993363442466
0.274573266550624,17.3003467647263
0.317942378736499,17.3014136612678
0.354993536483859,17.3022515257157
0.393818309686553,17.3030893901636
0.428169828191004,17.3038233367345
0.458086320135689,17.3044826190547
0.484271846858113,17.3051045434724
0.506821140750594,17.3057146563802
0.525368550200083,17.3063357000995
0.539009714942674,17.3069954257787
0.5457679669375,17.3077411094501
0.542168138654348,17.3085312693323
0.526669292651877,17.3093491813924
0.497755831528882,17.3102120156298
0.453424030146598,17.3111322802843
0.392474914374606,17.3121035122625
0.346235606828448,17.3127290297017
0.295454955149852,17.313354547141
0.250527480281856,17.31387763692
0.212186294603715,17.3143148611418
0.178596201043651,17.3146997428679
0.148563614749554,17.3150523249663
0.121372706157892,17.3153848963191
0.096534309726297,17.3157063475771
0.0736507109377331,17.3160246196059
0.0523061383409271,17.3163491327364
0.0318405127970049,17.3166966269154
0.00999425232521159,17.3171270753506
0.000372587725115301,17.3173453235923
-0.00831415982372075,17.3175635718339
-0.014871180026623,17.3177454360772
-0.020904442267519,17.3179293339261
-0.0269656160605195,17.3181344002632
-0.0328091242883521,17.3183571735406
-0.0382783976103645,17.3185955641575
-0.0432865907550336,17.3188488504151
-0.047788647031163,17.3191172222649
-0.0517647286590832,17.3194015273123
-0.0552094189544343,17.3197031503501
-0.0583147385062215,17.3200491545422
-0.0606359992751956,17.320390565832
-0.0624506002569003,17.3207561691697
-0.0637758845596116,17.3211499828524
-0.0646258080920142,17.3215765696357
-0.065011980576888,17.3220416303709
-0.0649419499437379,17.3225524072106
-0.0644168635567504,17.3231183946158
-0.0634255859175573,17.3237536757176
-0.0619408032136781,17.3244767832321
-0.059906727154284,17.3253160978587
-0.0572056134889511,17.3263216296194
-0.0535239333720828,17.32761199108
-0.0494268352985587,17.3290112900382
-0.0454628572234499,17.3303659219104
-0.041680563904408,17.3316803256288
-0.0381038843534258,17.3329566168577
-0.0347452091875448,17.3341955226644
-0.0316101010942754,17.3353970707648
-0.0286994238356982,17.3365609568094
-0.0260105044406972,17.3376867378015
-0.023537907065733,17.3387739315867
-0.0212740388174228,17.3398220633282
-0.019209671101841,17.3408306802987
-0.0173344054989803,17.3417993464855
-0.0156370916288704,17.3427276233551
-0.014058421038828,17.3436436102589
-0.0125385530882812,17.3445829989037
-0.0110821316385122,17.345547267661
-0.00969311350404386,17.3465384919897
-0.00837526695714176,17.3475591044178
-0.00713211814441737,17.3486119850469
-0.00596689946076671,17.3497005773701
-0.00488249567344488,17.3508290439183
-0.00388138776537467,17.3520024802132
-0.00296559407583561,17.3532272168269
-0.00213660766486608,17.3545112595475
-0.00139532770640878,17.3558649557208
-0.00074198061943559,17.3573020514196
-0.00017602237910495,17.3588414710288
0.000293156307048443,17.360467468929
0.000660973670031907,17.3621388526661
0.00094392898022975,17.3638739105452
0.00115665402142945,17.3656934854786
0.00131285578190703,17.3676253422403
0.0014257168275685,17.3697086655576
0.00150848780018778,17.3720033935065
0.00157559704637387,17.3746127547319
0.00164568655082019,17.377755019367
0.00173812574528407,17.3814893012761
0.00185876573165148,17.385450587491
0.00201262269390015,17.3896722324276
0.00218787255285119,17.3939503381202
0.00239052115125891,17.3985909204967
0.0026134923912962,17.4035471397208
0.00283677275947466,17.4084484968173
0.00305419274227517,17.4131833508231
0.00324365403520703,17.4172626662967
0.0034237766168352,17.4210864113628
0.00360249139777593,17.4248097696287
0.00378434488772516,17.4285113186412
0.00397275048212624,17.4322422001112
0.00417072720867339,17.4360413126587
0.00438122305252665,17.439941272517
0.00460734578487848,17.4439720873759
0.00485253139803579,17.4481631789716
0.00512071094706213,17.4525447556265
0.00541653201061517,17.4571489834397
0.00574572549987833,17.4620113518262
0.00611571577997279,17.4671719542688
0.00651010121651001,17.472337206953
0.00692563445696431,17.4774259691845
0.00736620937619156,17.4824462942209
0.0078351819755324,17.4873902433978
0.00833774427990334,17.4922630234391
0.00887980950215436,17.4970690222
0.00946804424810848,17.5018117782597
0.0101097546241388,17.5064925915359
0.0108180804744144,17.5111430268221
0.0116153943117166,17.5158269138234
0.0125180487897639,17.5205415695714
0.0135503980667861,17.5253071014201
0.0147478929790681,17.5301655572211
0.0161723815395495,17.5352195623926
0.0179692469927327,17.5407669135058
0.0203888197144238,17.5472688701196
0.0219458551303442,17.5511090843548
0.0235420699911538,17.5549492985899
0.0249367973982888,17.5583840445822
0.0261137355348005,17.5615238777278
0.0270868366107806,17.5645420651033
0.0278100088080726,17.5674288142881
0.0282687415580757,17.5702361899566
0.0284525043045221,17.5730918734897
0.0283111889497161,17.576188317256
0.0276426401292203,17.5800944111085
0.0268066898236788,17.5830719629297
0.0257410459697102,17.586049514751
0.0246668226601715,17.5886457494162
0.023598732952204,17.5910192819665
0.022530731482739,17.5932771062944
0.0214636391115104,17.5954709629409
0.0204006457971262,17.5976304129988
0.0193453844872398,17.5997750271821
0.0183013972534977,17.6019190806623
0.0172719902204519,17.6040737306504
0.0162601943197345,17.6062481949005
0.0152687657559589,17.6084504449564
0.014300193751905,17.6106876583009
0.0133567109952533,17.6129665316989
0.0124403073177862,17.6152935054202
0.0115527361285284,17.617674955065
0.0106955245143244,17.6201173461496
0.00986998725878797,17.6226273606954
0.00907722754477098,17.6252120574246
0.00830584331757836,17.6279239922581
0.00754772547487679,17.6308183691786
0.00680662027765972,17.6339165103982
0.00608634807276283,17.6372436066084
0.0053909365014423,17.6408288143713
0.0047245829118703,17.644706003097
0.00409157898967068,17.6489147766213
0.00349618547926648,17.6535019999535
0.00294243638870082,17.6585244042764
0.00243387391869826,17.664053325411
0.00197330472438869,17.6701826662877
0.00156436116111486,17.6770098681461
0.00122166135194511,17.6843585030928
0.000938545671802043,17.692333238394
0.000759199516546621,17.6994144127204
0.000605958621674154,17.7078421989889
0.000482206098986009,17.7175514496192
0.00039699914251831,17.7275514496192
0.000342941588637426,17.7375514496192
0.00031196575641881,17.7475514496192
0.0002983751052667,17.7575514496192
0.000298235232148723,17.7675514496192
0.000309073373902336,17.7775514496192
0.000329635419347278,17.7875514496192
0.000359701160021046,17.7975514496192
0.000400008405280054,17.8075514496193
0.000452327520308813,17.8175514496193
0.000514638472514186,17.8268661426574
0.00058688896569608,17.835435306754
0.000669964506171635,17.8433178322515
0.000765107487567795,17.8505718806666
0.000873834106740607,17.8572507384027
0.000997916894349483,17.8634032284118
0.00113939448836932,17.8690741942521
0.00130059511440386,17.8743048990343
0.00148416982138993,17.8791333607965
0.00169313285945001,17.883594657515
0.00193091393587982,17.8877212087709
0.00220142102802332,17.8915430328691
0.00250911973845093,17.8950879853405
0.00285913449904383,17.8983819995508
0.00325737968689567,17.9014493373256
0.0037107359953683,17.9043128529933
0.00422729225292498,17.9069942957948
0.00481669246009296,17.9095146856729
0.00549065613096438,17.9118948133672
0.00624165582433271,17.9140967547851
0.00707478376695366,17.9161416586217
0.00800446204886579,17.9180678351671
0.00905347827792318,17.9199163822458
0.0102625347175948,17.9217404806305
0.0117275689430632,17.9236415790021
0.0139122148071131,17.9260654301851
0.0154255544295089,17.9275640546745
0.0170266883726399,17.929062679164
0.0184871925442197,17.9304036631459
0.0197863718258861,17.9316225022644
0.0209484673146673,17.9327846317473
0.0219725406515462,17.9339337922235
0.0228406882379629,17.9351096865095
0.0235170006105622,17.9363637000601
0.0239299352323549,17.9377919312661
0.0238626409510818,17.9397204304262
0.0232713590295607,17.9413815469673
0.0222783157555762,17.9430426635084
0.0211537872810964,17.9445068395733
0.0198996837934206,17.9459398059011
0.0185209297739892,17.9474067117413
0.0170268592286539,17.9489465430519
0.0160094483186644,17.9499911494412
0.0150124434801118,17.9510357558304
0.0140272809861618,17.9521181949669
0.0117077720899913,17.954922516953
0.00972393022034591,17.9577015521451
0.00812488134218473,17.9603056012531
0.00682809724418943,17.9627512698778
0.00576549335350324,17.9650602215908
0.00488416914570665,17.9672548164591
0.00414295479766931,17.9693593762875
0.00350917436322984,17.9714028651454
0.00295554622745995,17.9734247825434
0.00245611995281713,17.9754912422743
0.00197549092932789,17.9777588504643
0.0015832742745386,17.9798692749832
0.00123705776579325,17.981979699502
0.000987402746161769,17.9836802372934
0.000787716419575834,17.9851703245562
0.000610353918702198,17.9866071581694
0.000442313895522501,17.9880821573248
0.000272840044996159,17.9896991099551
8.46113312454973e-05,17.9916726817632
-0.00021497000882811,17.9952864213584
-0.000468837630344615,17.9989329827409
-0.000662122696217692,18.0021789263854
-0.000839936677307498,18.005621167891
-0.00103969095111093,18.0101480984358
-0.00124836579149601,18.0158764715406
-0.00140056168120038,18.0211526437693
-0.00150010349210829,18.0259273403772
-0.00154661039485355,18.0302031997401
-0.00153770718924867,18.0340279608771
-0.00146959382444607,18.0374572072528
-0.0013378485288811,18.040545512171
-0.00113676452131783,18.0433587910111
-0.000858145752546312,18.0459644900024
-0.000487820663449601,18.048442446612
4.21253261103672e-06,18.0509093797474
0.000692684739911817,18.0535819285371
0.00162201024932356,18.0564885427124
0.0025654546134551,18.0590434719397
0.00343757486939494,18.061231682331
0.00448169929244117,18.0637241831887
0.00538531404512864,18.0657762508506
0.00634854963148024,18.0678283185124
0.00731976421826661,18.0697205614648
0.00833838100046937,18.0714985683505
0.00944107703842116,18.0731945229402
0.0106663355056053,18.0748347344701
0.0120531225593548,18.0764361950338
0.0136196066178993,18.0779878777367
0.0153920013573335,18.0794897032225
0.017395860121793,18.0809407531208
0.0196475287420734,18.0823345025682
0.0221756182137428,18.0836734852358
0.0250121280907663,18.084960459283
0.0281913472844387,18.0861976059571
0.0317529100748845,18.0873876187687
0.0357424048263891,18.0885333849927
0.0402168512077988,18.0896389488978
0.0452411123454266,18.090707795332
0.0508916121984436,18.0917434505148
0.0572587773916095,18.0927494727725
0.0644512263957439,18.093729608439
0.0726001615684405,18.0946877800717
0.0818659173971069,18.0956281861519
0.0924474963241649,18.096555466497
0.104596238777109,18.0974749072091
0.11863703817121,18.0983927875989
0.135001480121566,18.0993168820117
0.154285014742153,18.1002573912283
0.177138950553554,18.1012203129444
0.20359188505688,18.1021863241576
0.234325956269925,18.1031652781356
0.270256670960815,18.1041715036506
0.312775333359827,18.1052301210526
0.350511298665529,18.1060906227
0.39024711228936,18.1069511243474
0.425133505738498,18.1076959286253
0.455429360994839,18.1083604728972
0.481953712553365,18.1089847311218
0.50485354842614,18.1095950106728
0.523805474598222,18.1102139977602
0.537968046417116,18.1108685618536
0.54551553330904,18.1116029350511
0.543013016937683,18.1123914306402
0.528729013455534,18.1132058307394
0.501201991605027,18.1140636653672
0.458466934576729,18.1149779461367
0.39852804612475,18.1159538479166
0.351696681087454,18.1165963559387
0.299948841837691,18.1172388639609
0.254236015151516,18.1177729681051
0.215378617358454,18.1182163912046
0.181423936249068,18.1186049608584
0.151109330123116,18.1189598424433
0.12368819966845,18.1192938032938
0.0986577571042189,18.1196159230078
0.075616341522303,18.1199341418395
0.0541554829543552,18.1202576075901
0.0336562953667377,18.1206018950746
0.0121992241361739,18.1210178800681
0.001339707244869,18.1212603297333
-0.00608903697413892,18.1214433995579
-0.0128828113239753,18.1216264693825
-0.018816902015629,18.1218016508514
-0.0248971282076975,18.1219997895251
-0.0308375116075884,18.1222168079177
-0.0364477721724995,18.1224499792224
-0.0416209246909338,18.1226981729601
-0.0462999100242059,18.1229613037299
-0.050457597643384,18.1232400123558
-0.0540851277938617,18.1235355070117
-0.0572193710942794,18.1238544717137
-0.0597485945840428,18.1241865172208
-0.0617671453114346,18.1245417036784
-0.0632904041378553,18.1249235060788
-0.0643328083932568,18.1253361001245
-0.0649071103657445,18.1257846812526
-0.0650227486565019,18.1262758024904
-0.0646838671524574,18.1268178920766
-0.0638850312776622,18.1274230407574
-0.0626063361143156,18.1281075919393
-0.0608059055010274,18.1288951051843
-0.0583981285856784,18.1298243547187
-0.0551828027383436,18.1309742394184
-0.0510502033904313,18.1323958727493
-0.0470247091944511,18.133767690995
-0.0431660262721203,18.1350977757936
-0.0395052357864615,18.1363891306943
-0.0360585081834722,18.1376429277499
-0.03283378267153,18.138859414344
-0.029833622603408,18.1400383871371
-0.0270566587748716,18.1411794418827
-0.0244984787576062,18.1422821037412
-0.0221522845051676,18.143345891473
-0.0200094417883141,18.1443703430436
-0.0180599665145143,18.1453550172771
-0.0162929614621128,18.1462994795891
-0.0146918236209237,18.1472063004998
-0.0131473547341634,18.148136101952
-0.0116646822380816,18.1490900257555
-0.0102478242128621,18.1500700235889
-0.00890063313143609,18.1510783724758
-0.00762673964390983,18.1521177584481
-0.00642950192929094,18.1531913798378
-0.0053119527085272,18.1543030849641
-0.00427674404244667,18.1554575595752
-0.00332608965899617,18.1566605884866
-0.00246170404394374,18.1579194317113
-0.00168473663563974,18.1592433846027
-0.000995697857467236,18.1606446486703
-0.000394370559566344,18.1621397600264
0.000120306415233868,18.1637521003254
0.000526323983145235,18.1654028323845
0.00084130944862034,18.167110273595
0.00108035125344639,18.168893237141
0.00125748616752892,18.1707763509833
0.00138604846282863,18.1727934837149
0.00147916959173021,18.174994642058
0.00155060936526852,18.1774614344052
0.00161667674781677,18.1803502604706
0.00170360530276002,18.1840764703457
0.00181113758248967,18.1878918329315
0.00195735063734079,18.192141824694
0.00212508505433113,18.1963783419813
0.00231648998154021,18.2008400533391
0.00254153496616408,18.2058824010378
0.00276404124625093,18.2107807102067
0.00299334163375994,18.2157902153965
0.00318846627008792,18.2200057716955
0.00337029959479905,18.2238842435077
0.00354886717332375,18.2276277019344
0.00372937048683122,18.2313296408015
0.00391545509620694,18.2350471280764
0.00411021644218816,18.238821918926
0.00431659972248555,18.2426881120922
0.00453764349155293,18.2466762021888
0.00477666866735334,18.2508156353174
0.00503743717397924,18.2551362535766
0.00532435073344912,18.2596695055821
0.00564276080894361,18.2644497140181
0.0059994984376435,18.2695154825066
0.00638999297999011,18.2747312466116
0.00679772996338431,18.2798286335091
0.00723079266544632,18.2848748807776
0.00769060125485549,18.2898403360128
0.00818247425353001,18.2947344035293
0.00871194588359233,18.299560008082
0.00928551826504182,18.3043216134681
0.00991028958648554,18.3090210729948
0.010594334626496,18.3136602250411
0.0113635102811985,18.318337117016
0.0122319095554843,18.3230405319698
0.0132218676105052,18.3277877573708
0.0143644214723121,18.3326110978196
0.0157106356148431,18.3375882269076
0.0173676400210712,18.3429274305295
0.019724199154083,18.3494973853993
0.0213585214379466,18.3536130643176
0.0230626060838936,18.3577287432358
0.024538387383961,18.3613166105979
0.0257789085257683,18.3645258509859
0.0268141531048014,18.3675658371696
0.0276187556398692,18.3704999800033
0.0281577520207822,18.3733191368998
0.0284277524416039,18.3761447063066
0.028394638497686,18.3791383636573
0.0279344670253319,18.3826674336412
0.0271384546656057,18.3859279585174
0.0260448869525279,18.3891884833936
0.0249589906492782,18.3918993836698
0.0238894360350698,18.3943211280001
0.0228214678423544,18.3966039494425
0.021753850102727,18.3988116797785
0.0206893813421058,18.4009782492872
0.0196316536164404,18.4031253144621
0.0185842567367812,18.4052683102266
0.0175505671838043,18.4074190972936
0.0165336915081433,18.4095873381101
0.0155364607279726,18.4117812893818
0.0145614346919947,18.4140083113722
0.013610915408269,18.4162752047266
0.0126869577807846,18.4185884597621
0.0117913775932616,18.420954456025
0.0109257642244987,18.4233796159341
0.0100914883219386,18.4258705519731
0.00928971000615842,18.4284342060126
0.00851534267190856,18.431099610617
0.00775321218933038,18.4339422960208
0.00700709259705004,18.436982468303
0.00628074094507256,18.4402443577841
0.0055781315431743,18.4437559701516
0.00490342197459471,18.4475497973694
0.0042608877207002,18.4516637571668
0.00365481371422613,18.456142538592
0.00308931932066248,18.4610398312659
0.00256811205905152,18.4664223178796
0.00209421329686584,18.4723767719397
0.00166986065474282,18.4790202344074
0.00130967804604819,18.4862158896516
0.00101085847134834,18.4940060885898
0.00077673024845017,18.502520633195
0.000623064741772519,18.5106535542965
0.000499978804378851,18.5198422322333
0.000410108197765923,18.5296655460078
0.000351108970006549,18.5396655460078
0.000316438513712634,18.5496655460078
0.000300050586563385,18.5596655460078
0.000297724449143559,18.5696655460078
0.000306743128152842,18.5796655460078
0.000325648581800857,18.5896655460078
0.000354045341492651,18.5996655460078
0.000392502528009245,18.6096655460078
0.000442599054110446,18.6196655460078
0.000503217699741319,18.6291124019213
0.000573694417469624,18.6378076983357
0.000654819766308918,18.6458057799116
0.000747781200916493,18.6531655501773
0.00085404882583242,18.6599411357259
0.00097535028070571,18.6661821093991
0.00111367683574116,18.6719339851288
0.00127130468474328,18.6772386316138
0.00145082675885346,18.6821346155744
0.00165519145896123,18.6866575116976
0.00188775315291411,18.6908401881722
0.0021523324005843,18.694713068629
0.00245329284287286,18.698304372265
0.00279563749384086,18.7016403534912
0.00318513421050186,18.704745550785
0.00362848327535239,18.7076430476084
0.00413354538751792,18.710354766032
0.00470966736819041,18.7129018273469
0.00536816609277606,18.7153050257061
0.00610598077304437,18.7175383023143
0.00692405009349729,18.7196081067888
0.00783573113921017,18.7215524901789
0.0088619647362163,18.7234116970734
0.0100391467643363,18.725235678679
0.0114450915613136,18.7271086108978
0.0134258508994868,18.7293706759951
0.0149520250023276,18.7309198127161
0.0165850836675977,18.7324689494371
0.0181008761400343,18.7338631126039
0.0194404501213729,18.735108079151
0.0206388730247701,18.7362810660078
0.0217014533434615,18.7374301643203
0.0226145653242736,18.7385947070266
0.0233480024334285,18.7398209658283
0.0238436513535917,18.741186606342
0.0239548428264311,18.7429031004216
0.0234841863622892,18.7447065377985
0.0225066481779986,18.7465099751754
0.021402847962741,18.7480078130672
0.0201760187054851,18.7494414134136
0.0188235045751953,18.7508976115929
0.0173539102639354,18.7524187357774
0.0157742323320594,18.7540422897324
0.0141253362019829,18.7558158251755
0.0116891701965199,18.7587547435711
0.0097066946776374,18.7615356611385
0.00811122204459617,18.7641376026646
0.00681721425745582,18.7665813376023
0.00575670278909969,18.7688886653496
0.00487694333598987,18.771081968054
0.00413687924832003,18.7731856192314
0.00350390651443612,18.7752286987667
0.00295077074931609,18.777250963997
0.00245146524154502,18.7793192189299
0.00197018003841559,18.7815929264643
0.00158081556927757,18.7836903110259
0.00123684249591115,18.7857876955876
0.000987600138432623,18.7874850948571
0.000787924474043471,18.7889746401526
0.00061048432762196,18.7904116272176
0.000442312330098548,18.7918873158487
0.000272632810927854,18.7935057931687
8.4018386694302e-05,18.7954831114267
-0.000218208326706609,18.7991313875044
-0.000474908651420216,18.8028281349893
-0.000671258410933005,18.8061418620165
-0.000852121558085839,18.8096703310094
-0.00105769215741887,18.8143862223759
-0.00126206528869061,18.8200845664586
-0.00141036348651118,18.8253218658187
-0.00150613949663388,18.8300583105628
-0.00154875558474589,18.834299338819
-0.00153568762960124,18.8380921658733
-0.00146308169565838,18.8414939843683
-0.00132645035940699,18.8445596696818
-0.0011199507911557,18.8473552993595
-0.000835168262900053,18.849948219073
-0.000457175409850431,18.8524205289173
4.60571025864097e-05,18.8548937445968
0.000748789093242219,18.8575755418683
0.00170036847221414,18.8605121135607
0.00262909058853046,18.8630075679522
0.00350489989868752,18.8651963494009
0.00457750468026702,18.8677469713096
0.00547758625989247,18.8697798982767
0.00643906266795852,18.8718128252438
0.00741433388366286,18.8736946865134
0.00843673068505251,18.8754591297216
0.00955028374685334,18.8771504166102
0.0107891131868075,18.8787864708202
0.0121917287491554,18.880383399438
0.0137775876103255,18.8819315659417
0.0155699249893189,18.8834280640281
0.0175959034966688,18.8848736855659
0.0198750013085927,18.8862638257717
0.0224305672632169,18.8875976677879
0.0252974208053557,18.8888796589831
0.0285104844208888,18.8901121091835
0.0321105281743363,18.8912979194307
0.0361432001579861,18.8924397631477
0.0406664800204695,18.8935417300567
0.0457462398786422,18.8946073118328
0.0514601264663758,18.895640040171
0.0579002549188281,18.8966435086475
0.0651768621205309,18.8976214312401
0.0734237088582082,18.8985777726162
0.0828043348657762,18.8995167669631
0.0935220331748974,18.9004431063858
0.105834117401543,18.9013621589484
0.120073816975147,18.9022803132399
0.13668535361171,18.9032055306561
0.156284245020278,18.9041483211945
0.17944991923567,18.9051112332121
0.206271437322258,18.9060780468226
0.237448199032156,18.9070589240783
0.273925660504811,18.9080688205708
0.317167951033881,18.9091346103956
0.354303193578904,18.9099755319484
0.393242906071778,18.9108164535012
0.427670052103691,18.91155206047
0.457641527942305,18.9122122031482
0.483876497387539,18.9128345432078
0.506477315588116,18.9134447343202
0.525084818244052,18.9140655044594
0.538804627763751,18.9147244572742
0.545684751444234,18.9154683569339
0.542254867496089,18.9162582938548
0.526945375057206,18.9170756840785
0.498249317658658,18.9179377507599
0.45416938792103,18.9188570763929
0.393366789345737,18.9198292105837
0.347043767666617,18.9204572369766
0.296124438828303,18.9210852633695
0.251083389613552,18.9216099952902
0.212667237943673,18.9220481543517
0.179024024585836,18.9224335986725
0.148950267860815,18.9227865353065
0.121725723769448,18.9231193234682
0.0968592952440752,18.9234408812839
0.0739527789597471,18.9237591481362
0.0525916833445757,18.9240834996421
0.0321227792106272,18.9244304845349
0.010345419727023,18.9248585045504
0.000553470425939371,18.9250800383778
-0.00827451763056625,18.9253015722053
-0.0148422622947523,18.9254836691628
-0.0208747060470346,18.9256674800131
-0.0269361435512551,18.9258724728708
-0.0327807804828228,18.9260951858373
-0.0382516794836336,18.9263335221785
-0.0432617721009265,18.9265867554862
-0.0477658682374414,18.9268550725121
-0.0517440486860562,18.9271393184301
-0.0551908603070152,18.9274408759261
-0.0582984174603071,18.9277867954149
-0.0606217390993858,18.9281281213239
-0.0624383495861507,18.9284936258924
-0.0637655935833305,18.9288873241349
-0.0646174327479684,18.9293137746424
-0.065005489444747,18.9297786727262
-0.0649373325990163,18.9302892528908
-0.0644141493331918,18.9308549929809
-0.0634248615532723,18.9314899623949
-0.0619422441421338,18.9322126636285
-0.0599106802893891,18.9330514185899
-0.0572128451999208,18.934056092273
-0.0535368734761689,18.9353447189579
-0.0494394931733354,18.9367442306988
-0.0454749555206145,18.9380990357455
-0.0416919611887727,18.9394135961658
-0.0381145066867306,18.940690036785
-0.0347550188705787,18.9419290893712
-0.0316190833606071,18.9431307840216
-0.0287075802660892,18.9442948175375
-0.0260178490535619,18.9454207474195
-0.0235444635396005,18.9465080916755
-0.0212798382444405,18.9475563754785
-0.0192147500388018,18.9485651460713
-0.0173388042337779,18.9495339674441
-0.0156408526443746,18.950462401151
-0.0140619899526919,18.9513782999957
-0.0125419101359934,18.9523175963571
-0.0110852615927694,18.9532817653848
-0.00969600178954305,18.954272881313
-0.00837789987301626,18.9552933751286
-0.00713448306484721,18.9563461250041
-0.00596898504620897,18.9574345719885
-0.00488429209315634,18.9585628754693
-0.00388288693255013,18.9597361268522
-0.00296678989938367,18.9609606512013
-0.00213749632560533,18.9622444467343
-0.00139590797264306,18.9635978500422
-0.000742254230518066,18.9650345912635
-0.00017599455428365,18.9665735698519
0.000293573490977878,18.9681994274999
0.000661711419781756,18.9698706008032
0.000944928673788661,18.9716053780928
0.00115786092901026,18.9734245811129
0.00131421770799261,18.9753559414302
0.00142718217175668,18.9774385866071
0.00151000243431889,18.9797323454228
0.00157709757317099,18.9823401994089
0.00164707815969149,18.9854796581179
0.00173939871716725,18.9892138315961
0.00185984593073231,18.9931734696947
0.00201356038322494,18.9973948619838
0.00218873012900448,19.0016734000654
0.00239138135148584,19.0063156023336
0.00261428714309011,19.0112713358334
0.0028375464719756,19.0161728532433
0.00305482399390491,19.0209050026612
0.0032442284916859,19.0249834155083
0.00342432174441802,19.0288068101161
0.00360301952966519,19.0325300551793
0.00378486392864008,19.0362316317508
0.0039732668547628,19.0399626425038
0.00417124688853962,19.0437619665163
0.00438175212080221,19.0476622106792
0.00460789083631861,19.0516933803344
0.00485309980802479,19.055884898283
0.00512131121089272,19.0602669769695
0.00541717429523243,19.0648717896356
0.00574642264434485,19.0697348367019
0.00611648493542098,19.0748962253378
0.00651086737141187,19.0800611414425
0.00692642664016997,19.085149883556
0.00736702430272976,19.0901700630502
0.0078360304151604,19.0951138993284
0.00833863557271895,19.0999865688447
0.00888075514916361,19.1047924694175
0.00946905633732655,19.1095351333072
0.0101108460924081,19.1142158567554
0.0108192898971517,19.1188663508284
0.0116167425729073,19.1235502773671
0.0125195683201376,19.128264995463
0.0135521323183665,19.1330306295286
0.0147499100184815,19.1378892826236
0.0161748122334278,19.1429437263366
0.0179724631117703,19.1484923218257
0.0203920571206722,19.1549932173827
0.0219488381024441,19.1588324719227
0.0235446654200262,19.1626717264627
0.0249389889059224,19.166105762237
0.0261155845905523,19.1692452628812
0.0270883407023473,19.1722633644802
0.0278110632930172,19.1751498844352
0.0282693468726662,19.1779572275281
0.0284526180394532,19.1808131235212
0.0283106637965039,19.1839102428542
0.0276407086369347,19.1878190965759
0.0268045166360959,19.1907951621294
0.0257389820343822,19.1937712276829
0.0246648093335544,19.1963667934049
0.0235967247398643,19.1987400210371
0.0225287226455465,19.2009976832947
0.0214616343647168,19.2031914507038
0.0203986519451664,19.2053508569825
0.0193434084705166,19.2074954593527
0.0182994456337903,19.2096395253827
0.0172700690429385,19.2117942076729
0.0162583090895215,19.213968721079
0.0152669214439073,19.2161710353328
0.0142983948238819,19.2184083268164
0.0133549614274003,19.2206872917426
0.0124386106147111,19.2230143702567
0.0115510953536724,19.2253959381649
0.0106939422982084,19.2278384615442
0.00986846582236487,19.2303486232841
0.00907576872002548,19.2329334833057
0.00830440731324158,19.2356457571207
0.0075463197828056,19.2385405110034
0.00680525224391228,19.2416390752805
0.00608502550653234,19.2449666478172
0.00538966761316554,19.2485523937691
0.00472337621567783,19.2524301928994
0.00409044313056559,19.2566396618595
0.00349512893970325,19.2612276824459
0.00294146707572798,19.266251009463
0.00243299860671481,19.2717810153777
0.00197252881411367,19.2779116591827
0.00156372492046034,19.2847397707325
0.00122115240734817,19.2920894931625
0.00093815275620548,19.3000655519262
0.000760003402643307,19.3071007100676
0.000606091758884515,19.3155598503473
0.000482661043645897,19.3252420588312
0.00039737588619516,19.3352420588312
0.000343274962968192,19.3452420588312
0.000312281488869687,19.3552420588312
0.000298692736125781,19.3652420588312
0.000298571038425363,19.3752420588312
0.000309442699923703,19.3852420588312
0.000330054559824595,19.3952420588312
0.000360189208127779,19.4052420588312
0.00040058953111277,19.4152420588312
0.000453034235474561,19.4252420588312
0.000515449449384863,19.43454948574
0.000587815771449643,19.4431116713254
0.000671022917995113,19.4509877650124
0.000766315923867179,19.4582358971626
0.000875213567322901,19.4649093159614
0.000999491177248734,19.4710568097282
0.00114119053652128,19.4767231906738
0.00130264345559237,19.4819496932542
0.00148650507578271,19.4867743093223
0.00169579435728549,19.4912320930152
0.00193394644839739,19.4953554423398
0.00220487569083386,19.4991743561485
0.00251305516913484,19.5027166726965
0.00286361827607468,19.5060083104555
0.00326249028386124,19.5090735190158
0.00371656539704464,19.5119351435539
0.00423394966848604,19.5146149280958
0.00482430975566737,19.5171338927122
0.00549939620314638,19.5195128360358
0.00625135839349351,19.5217129948447
0.00708559984292466,19.5237565726857
0.00801663181831039,19.5256819198476
0.00906740256926978,19.5275302339681
0.0102789993935714,19.5293550163019
0.0117495210158427,19.53125993667
0.013952230408802,19.5336990104678
0.0154628735650233,19.5351926601393
0.0170595237981884,19.5366863098108
0.0185151645409564,19.5380234682837
0.0198106410774549,19.5392405760634
0.0209692961515402,19.5404021629417
0.021989707408545,19.5415516840349
0.0228536084226998,19.5427289275288
0.0235245639068229,19.5439858059083
0.0239296875869279,19.5454203430453
0.0238436129473581,19.5473727307064
0.0232425904067013,19.5490205707769
0.0222491896109858,19.5506684108474
0.0211226617078655,19.552130029049
0.0198660457020625,19.5535632696516
0.0184849622987878,19.5550314592346
0.016988788800202,19.5565733294931
0.0159979609671086,19.5575909564739
0.015026617957657,19.5586085834546
0.0140478115367374,19.5596831057441
0.0117298826061318,19.5624819299993
0.009742474548012,19.5652617266825
0.00814038498797142,19.5678666570777
0.00684113330478614,19.5703131361464
0.00577652676057661,19.5726228276372
0.00489356813067558,19.5748180957529
0.00415100887168302,19.5769232633203
0.00351610980972505,19.5789672921333
0.00296154003882551,19.5809896658621
0.00246131111997045,19.5830564466661
0.00198000322386805,19.5853239938876
0.00158691608313867,19.5874361839336
0.00123997107693166,19.5895483739797
0.000989920154986763,19.5912495957473
0.000789954590575055,19.5927400645406
0.00061235729862806,19.5941772017296
0.000444104695133691,19.5956524657646
0.000274427552025707,19.5972696452174
8.59899244613142e-05,19.5992433682467
-0.000213752079998349,19.6028552683866
-0.000467722293829316,19.6064992659691
-0.000661027818943175,19.6097416682881
-0.000838840582648726,19.6131793542374
-0.00103844888826424,19.617696054854
-0.00124752429140574,19.6234257365693
-0.00140005687039684,19.6287037463124
-0.00149990071667147,19.6334803706457
-0.00154669447350033,19.6377580408325
-0.00153807512473453,19.6415844990124
-0.00147024727769463,19.6450152736122
-0.00133879146753214,19.6481049300587
-0.00113800657106071,19.6509193581397
-0.000859706368657459,19.6535260008153
-0.000489747200146816,19.6560046324482
1.7948567239698e-06,19.6584718036906
0.000689622050248045,19.6611443876903
0.00161797343898589,19.6640502587185
0.00256205949227157,19.6666083301639
0.00343410638223347,19.6687971688912
0.00447739420435233,19.6712885077274
0.00538091663715166,19.673341113681
0.00634399637819866,19.6753937196347
0.00731504630842124,19.677286571568
0.00833337519477241,19.6790650471147
0.00943564832692741,19.680761353875
0.0106603112791498,19.6824017987627
0.0120464601040644,19.6840035727386
0.0136120790530253,19.685555446213
0.0153836298516664,19.6870575914561
0.0173865289032336,19.6885089510542
0.0196369332857935,19.6899028892398
0.0221637848828269,19.6912421548317
0.0249989133254229,19.692529401656
0.0281765777772505,19.6937668055901
0.0317363167208629,19.6949570371966
0.0357237968349804,19.6961030215525
0.0401959623091127,19.6972087891039
0.0452176309484267,19.698277824359
0.0508651737801548,19.6993136536584
0.0572289406319081,19.7003198335295
0.0644174892197962,19.7013001134416
0.072561912669857,19.7022584142725
0.0818224153152968,19.7031989338215
0.0923978302659203,19.70412631087
0.104539268850273,19.7050458296855
0.118571321429927,19.7059637676559
0.134925133806117,19.7068878952879
0.154195501381004,19.7078284072803
0.177035666237696,19.7087914018832
0.203472499170257,19.709757464545
0.234187567235094,19.7107364423947
0.270095433969328,19.7117426493705
0.312585152589717,19.7128011576282
0.350338985105588,19.7136624748416
0.390099252563136,19.7145237920549
0.424998335778165,19.715269024396
0.455302570128469,19.7159338192837
0.481834195514955,19.7165582325587
0.50474163052243,19.7171685948456
0.523702691394801,19.7177875901183
0.537877820645896,19.7184420579226
0.545445986192087,19.7191761257177
0.542974958203656,19.719964629219
0.528726788059852,19.7207789671148
0.50124185275967,19.7216366749327
0.458556969852314,19.7225507740004
0.398644245429513,19.7235269286152
0.35180513302184,19.7241698474491
0.300040327364198,19.724812766283
0.254313058727765,19.7253471431293
0.215446346628639,19.7257907256251
0.181485239206122,19.7261793948381
0.151165727567501,19.7265343424699
0.123740623723219,19.7268683471516
0.0987069031889451,19.7271904929422
0.0756628747618124,19.727508720005
0.0542003020878201,19.7278321694465
0.0337013574866405,19.7281763879936
0.0122543721429075,19.7285920451644
0.00135804170870938,19.7288352496065
-0.00607289501350059,19.7290183528589
-0.0128686489330002,19.7292014561113
-0.018801701459949,19.7293765849834
-0.0248817235118192,19.7295746848393
-0.0308224685016221,19.7297916738724
-0.0364334181509961,19.7300248205215
-0.0416074455103169,19.730272991317
-0.0462874075195958,19.7305360989093
-0.050446122751802,19.7308147827168
-0.0540746999038212,19.7311102497606
-0.0572101815332169,19.731429203037
-0.0597403977903395,19.7317612141429
-0.0617599216012663,19.7321163599511
-0.0632841339358428,19.732498114208
-0.0643274731045583,19.7329106507144
-0.0649026957936238,19.7333591623975
-0.0650192489726738,19.7338501988544
-0.0646812901540028,19.7343921834416
-0.0638834124041467,19.7349971964612
-0.0626057476431347,19.7356815710082
-0.0608064868540917,19.7364688437808
-0.0584001666996628,19.7373977384392
-0.05518704314143,19.7385469955288
-0.0510544241600651,19.7399687336295
-0.047028794847031,19.741340619469
-0.0431699045705642,19.7426707611964
-0.0395088706487957,19.7439621676842
-0.036061881139932,19.7452160137578
-0.0328368853278219,19.7464325482669
-0.0298364531801381,19.7476115686421
-0.0270592202540157,19.7487526710317
-0.0245007777087693,19.7498553807878
-0.0221543302232909,19.7509192167576
-0.0200112455909065,19.7519437169449
-0.0180615411381205,19.7529284402002
-0.0162943205360494,19.7538729519761
-0.0146931136185079,19.7547797453633
-0.01314856897461,19.7557095180348
-0.0116658155677984,19.7566634107749
-0.0102488716581542,19.7576433749021
-0.00890158996626242,19.7586516869856
-0.00762760144908196,19.759691032491
-0.00643026465478614,19.7607646090351
-0.00531261273850007,19.7618762640226
-0.00427729826285726,19.7630306820131
-0.00332653552817757,19.7642336462453
-0.00246203966721384,19.7654924145899
-0.00168496084634065,19.7668162793988
-0.000995810309238527,19.7682174378151
-0.000394371839548911,19.76971241928
0.00012041463095762,19.7713245945734
0.000526563263400405,19.7729752679006
0.000841658700998393,19.7746826252238
0.00108079204438232,19.7764654774742
0.00125800129653451,19.778348443373
0.0013866214719179,19.7803653762349
0.00147978404113068,19.7825662549102
0.0015512474669301,19.7850326294601
0.00161731558166257,19.7879207449778
0.0017041971336052,19.7916452697624
0.00181169679561526,19.7954603053962
0.0019578423118535,19.7997090837171
0.00212558968881444,19.8039462409254
0.00231715844138878,19.808411599566
0.00254211141756482,19.8134513173725
0.00276463266308086,19.8183493108633
0.00299406216550873,19.8233608524995
0.00318902733619667,19.827572157579
0.00337080806465009,19.8314488002342
0.00354937473934563,19.8351915596101
0.00372990772752163,19.8388934257306
0.00391604515902931,19.8426112662192
0.00411088003760929,19.8463867435041
0.00431735733917011,19.8502539093087
0.00453851693303893,19.8542432400181
0.00477768208750857,19.858384179201
0.00503861820347151,19.8627065786085
0.00532573209248329,19.8672419068852
0.00564438331622976,19.872024520016
0.00600141607215085,19.8770930656406
0.00639194715506041,19.88230772509
0.00679981294623708,19.8874051201128
0.00723298263017648,19.8924508733385
0.00769292927178044,19.8974159442255
0.0081849667166301,19.9023096259001
0.00871463817475658,19.907134891989
0.00928844815098048,19.9118961852733
0.00991349787557133,19.9165953461211
0.0105979419129056,19.9212346949554
0.0113675808286062,19.9259117103334
0.0122365433392103,19.9306153142725
0.0132271949776327,19.9353628317085
0.0143706386222948,19.9401867108783
0.0157180936887673,19.9451649827339
0.0173771989975239,19.9505071234952
0.0197404706479841,19.9570906214746
0.0213724377173048,19.9611980233227
0.0230733538416563,19.9653054251708
0.0245471908700794,19.9688893755373
0.0257863018866522,19.9720969029705
0.0268202097739639,19.9751362835855
0.0276230502158626,19.9780692776324
0.0281603313007953,19.980888061902
0.0284285195881478,19.9837141226433
0.0283932027044056,19.9867096473687
0.0279292538769366,19.9902449465852
0.0271324349283808,19.9934990156848
0.0260409782927812,19.9967495078424
0.0254057592934713,19.9983747539212
0.0247229829588215,20
