ecg,time
0.000645094657874624,15.00298872989
0.000732293709993345,15.0105641686695
0.000830984639076904,15.0175542547075
0.000942701863463128,15.0240056426382
0.0010691845554576,15.029961604282
0.00121240252837093,15.0354622977487
0.00137458825353274,15.0405449778646
0.0015582710337515,15.0452442034196
0.0017663198754902,15.0495920522098
0.00200199181866781,15.0536183350372
0.0022689931122727,15.0573507756162
0.00257154831952492,15.060815182609
0.00291449249697367,15.0640356428242
0.00330338670523889,15.0670347237738
0.00374466702679368,15.0698336697876
0.00424584860896867,15.0724526355083
0.00481580890234847,15.074910973651
0.00546519665247206,15.0772275897097
0.00619612330505056,15.0793919114958
0.00700312855666645,15.0813888308294
0.00789697537026955,15.083252513249
0.00889394092182458,15.0850174617045
0.0100199426376982,15.0867217229842
0.0113225587625475,15.0884173528682
0.012966787537256,15.0902611049031
0.0154776258226336,15.0926670065803
0.0170656714126475,15.0940340279987
0.0187277483290582,15.0954010494172
0.0202408628699803,15.0966345154355
0.0215961711693498,15.0977742615876
0.022810427362978,15.0988741414436
0.0238778755261118,15.0999737368277
0.0247757651536582,15.1011132338786
0.0254597781438152,15.1023507515547
0.0258347664738137,15.1038118497234
0.0255156382784733,15.1060381659647
0.0247761327859441,15.1075215186498
0.0237161513965284,15.1090048713349
0.022508587818758,15.1103990628517
0.0211567136227458,15.1118041014251
0.0196699281162437,15.1132667659081
0.0180567413191738,15.1148242922879
0.016953865353875,15.1158961761175
0.0158958397469923,15.1169680599471
0.0134920827203452,15.1196337477271
0.012025143426403,15.1214624525572
0.010698761171258,15.1232911573874
0.00964213934269102,15.1248985800328
0.00875935409865991,15.1263690927509
0.00796374288875808,15.1278162218685
0.00720445156654037,15.1293287259143
0.00643246092821286,15.1310289285485
0.00555036265114493,15.1332277603855
0.00464740775196506,15.1358600773917
0.00389766832094198,15.1384605458496
0.00329052846055239,15.140965203602
0.0027402450442889,15.1436873049246
0.00222352611455615,15.1468418854607
0.00179131107232805,15.1502136891431
0.00144128568950812,15.1538384942516
0.00117384669806173,15.1577683382165
0.000996172597911282,15.1620702987731
0.000929007600478774,15.1665575618771
0.000972976156492966,15.1705433004924
0.00110660439934735,15.1741285963268
0.00131901442586398,15.1773545761685
0.0016050047915833,15.1802676166228
0.00196409828034398,15.1829193280362
0.00239944780175132,15.1853577034886
0.00291879140796166,15.1876320132276
0.00353672058446656,15.1897958529611
0.00428045244025571,15.1919147293767
0.00519972431983656,15.1940738116546
0.00639846732218487,15.1964148854857
0.00806215351364284,15.1991242592635
0.0100887903373802,15.201897612753
0.0116190807174199,15.2037159725062
0.0133463997141707,15.2055343322595
0.0151281760440226,15.2071826291629
0.0169933469014413,15.2086934937955
0.0190221116650451,15.2101257296894
0.0212455891945277,15.2114867368363
0.023715545518472,15.212792428915
0.0264727570383198,15.2140473317731
0.029563175489729,15.2152559482521
0.0330307677316644,15.2164199649908
0.036930857627998,15.2175432698842
0.0413182717292357,15.2186275601338
0.0462612385000832,15.2196761505594
0.0518370600665513,15.2206920315559
0.0581346776589792,15.2216780947611
0.0652606291246515,15.2226376369362
0.0733426108017203,15.2235741765012
0.0825341054878218,15.2244913713379
0.0930220320346428,15.2253931379737
0.105039381037792,15.2262839345278
0.118878861347415,15.2271687605253
0.134915715019657,15.2280534470809
0.153642675724831,15.2289450750936
0.175729599919027,15.229852775699
0.201782733476616,15.2307776985614
0.231934288973283,15.2317058788663
0.266948976292373,15.2326467690607
0.307890601928399,15.2336158005588
0.356570135897928,15.2346453159691
0.393173577437859,15.2353652927486
0.430885006283466,15.2360852695282
0.464411262749414,15.236730092542
0.493857430379938,15.2373249652131
0.519664335002596,15.2378994493827
0.541727783508664,15.2384769166228
0.559442663565319,15.2390828322626
0.571402926466963,15.2397571907032
0.574201413734217,15.2405102305755
0.565237804054324,15.2412874706686
0.543197269816776,15.2421100211399
0.506390017735994,15.2429891505691
0.455888227583313,15.2438845004479
0.391226285714152,15.2448061250974
0.343339148783091,15.2454015871037
0.291596818821306,15.24599704911
0.246164992855876,15.2464973134707
0.207446502071297,15.2469184856098
0.173543884388415,15.2472914536511
0.143248386536845,15.2476347939686
0.115829674783125,15.2479601195844
0.0907800539729579,15.2482761057914
0.0676726323066736,15.2485909263428
0.046027927176227,15.2489151610496
0.0249648195500042,15.2492705088363
0.00762019881831056,15.2496067703851
-0.00173462662130675,15.2498114495341
-0.0102174046743507,15.2500161286831
-0.0168652826493635,15.250192685196
-0.0229775199862381,15.25037085464
-0.0291465146777876,15.2505701756696
-0.0351137298421024,15.2507871290862
-0.0407131377015317,15.2510195588757
-0.0458519207311146,15.2512666813183
-0.05048136057544,15.2515286286808
-0.0545794396992522,15.2518061923867
-0.0581405647239482,15.2521006995495
-0.0611692730085634,15.2524139719461
-0.0637197779468458,15.2527566188018
-0.0656655707496052,15.2531122571863
-0.0671132072202394,15.2534950716234
-0.068078096901486,15.2539095891751
-0.0685726814703879,15.2543613108145
-0.0686055074366628,15.254857220342
-0.0681790123482658,15.2554063819128
-0.0672841698636326,15.2560221562303
-0.0658956494450623,15.2567224114192
-0.0639610199728631,15.2575340196584
-0.0613702362344849,15.2585035187709
-0.05784053716991,15.2597367790791
-0.0536556155701837,15.2611520506185
-0.0495849346963951,15.2625220472217
-0.0456843169823276,15.2638522544309
-0.0419823410155942,15.2651449207674
-0.0384943898144643,15.266400796663
-0.0352283056843,15.2676198811251
-0.0321868367151186,15.2688018173938
-0.0293689022350729,15.2699461019379
-0.0267703991641865,15.2710521930189
-0.0243848190531701,15.2721195630324
-0.0222037785136305,15.2731477175349
-0.0202174980969935,15.2741361932114
-0.0184152378870139,15.2750845415572
-0.0167856894903898,15.2759923020078
-0.0152177987046486,15.2769196153917
-0.0137105981816539,15.2778709079047
-0.0122681481838684,15.2788480712767
-0.0108942941486028,15.2798533446058
-0.00959265950204836,15.2808893669879
-0.00836659311501893,15.2819592781457
-0.0072191143226686,15.2830668520065
-0.00615285502379172,15.2842166781483
-0.00516999828411604,15.2854144143953
-0.00427221214714988,15.2866671487957
-0.00346057610569362,15.2879839366075
-0.00273549535520238,15.2893766311473
-0.00209659326781688,15.2908612384818
-0.00154256226507123,15.2924602799819
-0.00109488603316196,15.2941061864879
-0.000739369124607258,15.2958067861615
-0.000460465235970496,15.2975807176137
-0.000243734375055516,15.2994518726228
-7.53718407448768e-05,15.3014529101609
5.83495910406004e-05,15.3036316447817
0.000172032528762697,15.3060651398419
0.000283363535209084,15.3088979433908
0.000421253667799078,15.3124951837
0.000580170252322399,15.3162860913242
0.000779787752755199,15.3205180667149
0.00103533580066886,15.3254571086302
0.00128111001940604,15.3299891334877
0.00151757268984678,15.3343004681785
0.00175424334023927,15.3386433017311
0.00200761159114429,15.3433585609224
0.00226947344295206,15.3482994289215
0.0025266235265577,15.3531891198874
0.00277869029526991,15.3579823488276
0.00299783815566018,15.3621164263212
0.00320584153148695,15.3659948490315
0.00341172756142669,15.3697737177704
0.00362059337490146,15.3735326362015
0.0038362221826341,15.3773234897699
0.00406195519709182,15.3811858633654
0.00430106340487781,15.3851529977089
0.00455700235494372,15.3892553430118
0.00483361250284121,15.39352273671
0.00513531166634194,15.3979857406544
0.00546736519261943,15.4026768632039
0.00583632570722888,15.4076318945752
0.00624491068799472,15.4128183307872
0.00666819243031501,15.4178692772465
0.00711709459669364,15.4228854126422
0.00759156145738018,15.4278215707486
0.00809691540102874,15.4326875418384
0.00863840653629349,15.4374837840594
0.00922252312804315,15.4422149591986
0.00985640127434555,15.4468835610351
0.0105490542699837,15.4514977773753
0.0113257322128651,15.4561495507414
0.0122006796656772,15.4608293841469
0.0131962171145157,15.4655547717793
0.014343276792828,15.4703578278977
0.0156924341486666,15.4753146211623
0.0173486803866034,15.4806270765567
0.0196828904691299,15.4871172989017
0.0213411474529497,15.491281778476
0.0230726348895788,15.4954462580504
0.0245643289266231,15.4990543416692
0.0258161221519641,15.5022732706482
0.0268607941607447,15.5053185048626
0.0276750127773529,15.5082603913313
0.02822185513441,15.5110850916064
0.0284982706633338,15.5139143856617
0.0284704871089533,15.5169098593949
0.0280155435178557,15.5204360058414
0.0272188429236217,15.5237085658135
0.0261207176912469,15.5269811257856
0.0250294511420383,15.5297002501547
0.0239540022712954,15.5321290947704
0.0228795980295488,15.5344189191478
0.0218050825529562,15.5366338753025
0.0207333389170182,15.5388080638777
0.0196680387494301,15.5409632589112
0.0186128482702849,15.5431149864743
0.017571217867392,15.545275184881
0.0165463264407059,15.547453585764
0.0155410761522633,15.5496585092463
0.0145580961826562,15.5518973757972
0.0135997569760377,15.5541770408309
0.0126681788830118,15.5565040475835
0.0117652412555953,15.5588848219543
0.0108925949167361,15.5613258231909
0.0100516663872295,15.5638336964296
0.00924366938781332,15.566415397442
0.00846759556465,15.5690855400589
0.00770390617380494,15.5719330417176
0.00695644681842057,15.5749777305812
0.00622905048708958,15.5782436133522
0.00552569737426722,15.5817583760466
0.00485051258584207,15.5855540690183
0.00420772117628402,15.5896680033637
0.00360153392554307,15.5941440445639
0.00303596921683497,15.599034743786
0.00251459894957541,15.60440521858
0.00204028097814378,15.6103398592905
0.0016150648577517,15.616951667397
0.00125124458524265,15.6241476124937
0.000948139297307225,15.6319393489626
0.000699153552786411,15.6404564454431
0.000505406590689514,15.6498704116451
0.000385385408221395,15.6584096124211
0.000285159498039077,15.6684096124211
0.000215318622722468,15.6784096124211
0.000166762670277177,15.6884096124211
0.000133471675519704,15.6984096124211
0.000111070090321615,15.7084096124211
9.63299157769628e-05,15.7184096124211
8.69365776093542e-05,15.7284096124211
8.12845320806937e-05,15.7384096124211
7.82821281946278e-05,15.7484096124211
7.71910065797005e-05,15.7584096124211
7.75107255604257e-05,15.7684096124211
7.89022876061144e-05,15.7784096124211
8.11385928947862e-05,15.7884096124211
8.40717227082011e-05,15.7984096124211
8.76106650244102e-05,15.8084096124211
9.17059118428624e-05,15.8184096124211
9.63388981047377e-05,15.8284096124211
0.000101514982739344,15.8384096124211
0.000107259051127784,15.8484096124211
0.000113613077835003,15.8584096124211
0.000120635201733872,15.8684096124211
0.000128400044010862,15.8784096124211
0.000137000146284965,15.8884096124211
0.000146548530955605,15.8984096124211
0.000157182503892972,15.9084096124211
0.000169068948058215,15.9184096124211
0.000182411515506227,15.9284096124211
0.000197460340162782,15.9384096124211
0.000214525202181947,15.9484096124211
0.000233993535405393,15.9584096124211
0.000256355379275071,15.9684096124211
0.000282238500136604,15.9784096124211
0.000312458732659835,15.9884096124211
0.000348093640999248,15.9984096124211
0.000390592843051404,16.0084096124211
0.000441947658170086,16.0184096124211
0.000502249072667205,16.0280147950321
0.000570635070471958,16.0368896568214
0.000648033026489232,16.0450770881633
0.000735618752703497,16.052630708193
0.000834747991164291,16.0596007093742
0.00094696208706372,16.0660336198378
0.00107400798344254,16.0719725953397
0.00121786429698146,16.0774576865791
0.001380773541425,16.0825260480186
0.00156527634023058,16.0872121457542
0.00177425475979348,16.0915479726707
0.00201098076210739,16.0955632619434
0.00227917785740306,16.0992856654992
0.0025830907857072,16.1027409267981
0.00292757833962696,16.1059530747726
0.00331823014241887,16.1089446259837
0.00376151696427358,16.1117367813499
0.00426499717686205,16.1143496614507
0.00483760366780169,16.1168025961883
0.00549005845666599,16.1191144831121
0.00622355537914393,16.1212722213173
0.00703344349935401,16.1232637841483
0.00793064922065876,16.1251233395262
0.00893169259004967,16.1268854205421
0.0100629826221691,16.1285883338824
0.0113733201243626,16.1302850118848
0.0130353597915756,16.1321387958009
0.0155853347012967,16.1345689250937
0.0171664992648557,16.1359246414221
0.0188174953786297,16.1372803577506
0.020320489482816,16.1385063987209
0.0216677119851892,16.1396426837623
0.0228740971757416,16.1407415581392
0.0239328393839542,16.1418422472161
0.0248202239370975,16.1429853951798
0.0254902697027547,16.1442309672774
0.025842605925435,16.1457121697878
0.0254645013573916,16.1479801266912
0.0246990161253625,16.149452033045
0.0236255231241359,16.1509239393989
0.0224058887435922,16.152316759776
0.0210427082898118,16.1537250145502
0.0195454357154553,16.1551939358744
0.0179222386807675,16.156760828695
0.0173252884119714,16.1573395825257
0.0167378462414178,16.1579183363564
0.0147767534220763,16.1599724991271
0.0128122465963785,16.1622663593374
0.0114861964201691,16.1639904341937
0.0102821850231686,16.16571450905
0.00930461361241689,16.1672531198853
0.00846096543937862,16.1687043982832
0.00768387589871392,16.1701647197041
0.0069265721314978,16.1717272622142
0.00613210136253789,16.1735506091272
0.0051577303175964,16.1761240599799
0.00430280387474575,16.1788062156137
0.00362964504681182,16.1813203630481
0.00305416314210065,16.1838777887488
0.00251508785265033,16.1867799378104
0.00203394711214238,16.190020017961
0.0016360582103096,16.1934911262152
0.00131993327862397,16.1972353398429
0.00108828881691571,16.2013102676423
0.00095266101658411,16.2057910334151
0.000934968700134987,16.2100538879067
0.00101753668265563,16.2138710429847
0.00118443635751622,16.2173030988759
0.00142762017265188,16.2203970588317
0.00174363824333616,16.2231975606784
0.00213349853799467,16.2257556251461
0.00260212833240163,16.2281202371571
0.00315977501277198,16.2303423287912
0.00382512993449289,16.2324786341849
0.00463350830417902,16.2346027542255
0.00565010385011851,16.2368141504545
0.00702072149413043,16.2392969953369
0.00883180048889198,16.2420435178835
0.010395666125362,16.2440889522179
0.0121732358562654,16.2461343865524
0.0139520490641077,16.2479285196982
0.0157519962247987,16.2495202267521
0.0176701520402288,16.2510033434901
0.0197592763885251,16.2524084910875
0.0220597829568931,16.2537482828195
0.0246248120249324,16.2550369363338
0.0274884203283627,16.2562746091785
0.0307026841812504,16.2574678562006
0.0343113324852389,16.2586175185106
0.0383701589323288,16.2597269818818
0.04294061499232,16.2607990678358
0.0480899119856766,16.2618360413165
0.0539008704755045,16.2628413040484
0.0604687817605351,16.2638179911931
0.0679060969827849,16.264769331877
0.076347813469292,16.2656988004794
0.0859587839424028,16.2666102479046
0.096940575480036,16.2675077801861
0.109544016331706,16.2683959647806
0.124086507507958,16.2692800249123
0.140979103715392,16.2701661959205
0.160766736248112,16.2710621503427
0.184202633642561,16.2719780697701
0.211580906867756,16.2729032550478
0.243295736371844,16.2738345188307
0.28019180267214,16.2747828023261
0.323505264852123,16.2757673244277
0.363983759628684,16.276603444416
0.406979117405202,16.2774395644044
0.443970126630294,16.2781444246489
0.475907335711003,16.2787669671846
0.503967896465694,16.2793512475706
0.528406551924093,16.2799241880288
0.548938733663853,16.2805089534882
0.564723948504143,16.2811343969129
0.573803226185146,16.2818533397544
0.572212669297931,16.2826130940723
0.558438219725008,16.2834053056176
0.53089461978793,16.2842502306896
0.489319619698084,16.2851273625435
0.433046613692346,16.2860400721758
0.38041582010708,16.2867550137165
0.321248270453855,16.2874699552572
0.270135657805476,16.2880444949575
0.227845268954916,16.2885060339082
0.191501192740485,16.2889024121974
0.159353341285044,16.2892601411
0.130440753737064,16.2895940820607
0.104156227022817,16.289914160811
0.0800433011565695,16.2902285477817
0.0576718469294251,16.2905460212017
0.0364568947574621,16.2908802646373
0.0148826070234629,16.291269506289
0.00677942195556036,16.291433881775
-0.000741661542217093,16.291598257261
-0.00916376686139968,16.2917990390903
-0.0159483155729348,16.2919768422031
-0.0220174054544103,16.2921512037129
-0.0281957536794337,16.2923474634234
-0.0342075541481249,16.2925618613903
-0.0398716245078824,16.2927919667154
-0.0450860220333539,16.2930368174386
-0.0497965579094943,16.2932964247094
-0.0539778752858995,16.2935714882858
-0.0576223171758579,16.2938632564494
-0.0607331549185406,16.2941734743179
-0.0633128681084925,16.2945043919844
-0.0653656846012348,16.2948586036964
-0.0668981569383927,16.2952364568598
-0.0679453116861246,16.2956451511589
-0.068520240946497,16.2960900077763
-0.0686323032879577,16.2965777199588
-0.0682851822170191,16.2971169369397
-0.0674723247190048,16.2977201210384
-0.0661716282662637,16.2984042360556
-0.0643366945500443,16.2991941098748
-0.0618714217934526,16.3001315064939
-0.0585421568602909,16.3013054101558
-0.054344525668773,16.3027300257872
-0.0502498642283198,16.3041070011775
-0.046318505409704,16.3054435866936
-0.0425822109268451,16.3067423944458
-0.0390580141249519,16.3080043569405
-0.0357547855496714,16.3092295624625
-0.0326760099930883,16.3104176944832
-0.0298211778804605,16.3115682638945
-0.0271866410876823,16.3126807302598
-0.0247662516511785,16.3137545614351
-0.0225519029004859,16.3147892570386
-0.0205340156891816,16.3157843493155
-0.0187019810648456,16.3167393888562
-0.0170445597110392,16.3176539193024
-0.0154673840452649,16.3185774275054
-0.0139500767644825,16.3195247210428
-0.0124968815344084,16.3204975545426
-0.0111116738025278,16.3214981108233
-0.00979811644177296,16.3225289581053
-0.00855960640014227,16.3235931470424
-0.00739922018630814,16.3246943380954
-0.00631965646049512,16.3258369739351
-0.00532317526337398,16.3270265184292
-0.00441153273818093,16.3282697974014
-0.00358590904611563,16.3295755010909
-0.00284682507272998,16.3309549558322
-0.00219403939273343,16.3324233705731
-0.00162640799032617,16.3340019844842
-0.00116180703824285,16.3356408132087
-0.000792200627854246,16.3373311904868
-0.00050167741509344,16.3390915560383
-0.000275653785239648,16.3409447128758
-0.000100252822764362,16.3429215489627
3.82154583196141e-05,16.3450667103571
0.000154110583839057,16.3474508294377
0.000264335440239797,16.3502023257753
0.000394602554554114,16.3536240993475
0.000549075312750105,16.3573861634458
0.000739807485598066,16.3615131175547
0.000990345115820803,16.3664181124285
0.0012381055496764,16.371010352993
0.00147562622644733,16.3753424718031
0.0017113565289877,16.379659806764
0.00195981802483537,16.3842707789578
0.00222420763168741,16.3892494295024
0.00248121204904361,16.3941318208229
0.00274394867660821,16.3991323584971
0.00296624021288154,16.4033307726377
0.0031751826347164,16.4072342392173
0.00338101452625834,16.4110218445544
0.00358918118954924,16.4147800190985
0.0038035874906197,16.418563404986
0.00402760993573066,16.4224128968087
0.00426451577693582,16.4263624732612
0.00451771776470079,16.4304428019413
0.0047909879826266,16.4346837223548
0.00508864417547084,16.4391156138058
0.00541580304846058,16.4437706133049
0.00577878864640341,16.4486839455094
0.00618552678449616,16.4538916554213
0.00660514921538074,16.4589445765292
0.00705064388851807,16.4639720173873
0.00752100367911279,16.4689181109914
0.00802159941238749,16.4737944789929
0.00855746613811374,16.4786004703985
0.00913498231316398,16.4833408899888
0.00976117917980803,16.4880184568535
0.0104438356910547,16.4926344320205
0.0112075618313154,16.4972816506948
0.0120670330560878,16.5019565317558
0.0130434682902317,16.5066739350689
0.014166093058736,16.5114625087483
0.0154814710755366,16.5163891795628
0.0170820219675752,16.521626664318
0.0192577866260619,16.5278082302437
0.0209869823567285,16.5322202103557
0.0228126059677509,16.5366321904676
0.0243544652518054,16.5403451133873
0.0256399075214248,16.5436076986758
0.026715621964834,16.5466691364295
0.0275708722737847,16.5496395579997
0.0281573274704272,16.552474592147
0.0284751776074657,16.5552946169044
0.0284969530522806,16.5582510385816
0.0281229135009646,16.5616507561502
0.0273410048971348,16.5650908280713
0.0262167828372833,16.5685308999923
0.0251175435471142,16.5713004797497
0.0240411358982909,16.5737464867088
0.022966757547836,16.5760445914691
0.0218921622289067,16.5782640876023
0.0208200580535174,16.5804406377464
0.0197540947290824,16.5825967163285
0.0186979508557386,16.5847482292014
0.0176550968094819,16.5869073438633
0.0166287345978345,16.5890839342905
0.015621788405444,16.5912864136137
0.0146369091656286,16.5935222606601
0.0136764884937723,16.5957983648889
0.0127426656686899,16.5981212892862
0.0118373394587934,16.6004974624964
0.0109621799764195,16.6029333326618
0.0101186302387755,16.6054355285747
0.00930792177025794,16.6080109734432
0.00853097621721539,16.6106673938214
0.00776610773145591,16.6134996701714
0.00701716888871132,16.6165273078909
0.00628797003606768,16.6197740418503
0.00558248323414647,16.6232672268983
0.00490482138812844,16.6270385269396
0.0042592046279618,16.6311247821458
0.00364985044746932,16.6355692582412
0.00308080238015674,16.6404236749985
0.00255568031427322,16.6457519040987
0.00207740766734106,16.6516364307891
0.00164809626306937,16.6581875299761
0.00127895375511187,16.6653387731183
0.000971078605859346,16.6730768172559
0.000717854549824431,16.6815280213881
0.000519536231278262,16.6908599844889
0.000386115837962191,16.7001377420334
0.000286083400897077,16.7100958010666
0.000216004434824682,16.7200958010666
0.000167253557260809,16.7300958010666
0.000133807078750163,16.7400958010666
0.000111290815902047,16.7500958010666
9.64709722936591e-05,16.7600958010666
8.70235071459988e-05,16.7700958010666
8.13342494959992e-05,16.7800958010666
7.83054817370051e-05,16.7900958010666
7.71950671869267e-05,16.8000958010666
7.75002492022496e-05,16.8100958010666
7.88805207895754e-05,16.8200958010666
8.11077193509466e-05,16.8300958010666
8.40331455406259e-05,16.8400958010666
8.75652085987533e-05,16.8500958010666
9.16539705154683e-05,16.8600958010666
9.62805412503622e-05,16.8700958010666
0.000101450023666448,16.8800958010666
0.000107187087870773,16.8900958010666
0.000113533512736972,16.9000958010666
0.000120547244599794,16.9100958010666
0.000128302701414796,16.9200958010666
0.00013689219779054,16.9300958010666
0.000146428491500651,16.9400958010666
0.000157048570146781,16.9500958010666
0.000168918924904885,16.9600958010666
0.000182242716649333,16.9700958010666
0.000197269453819389,16.9800958010666
0.000214308108391727,16.9900958010666
0.00023374505474133,17.0000958010666
0.000256068922226901,17.0100958010666
0.000281905569594699,17.0200958010666
0.00031206820422459,17.0300958010666
0.000347630698980885,17.0400958010666
0.000390037368291817,17.0500958010666
0.000441271716322083,17.0600958010666
0.000501481020792198,17.0697099092303
0.000569765608795409,17.0785933488393
0.000647049187744703,17.0867886969677
0.00073450538608199,17.0943496085277
0.000833487805468103,17.1013263216939
0.000945535472072466,17.1077654068806
0.00107239272760164,17.1137100586411
0.00121603524160376,17.1192003635859
0.00137870216644966,17.1242735097295
0.00156293033562653,17.1289639941548
0.00177159744386256,17.1333038381296
0.0020079704563131,17.1373228007794
0.00227576710488731,17.1410485580289
0.00257922537173717,17.1445068751305
0.00292319609998776,17.1477218003565
0.00331325934572451,17.150715867294
0.00375587425560558,17.1535102913599
0.00425858471468085,17.1561252044984
0.00483030502489725,17.1585799442082
0.00548173262752968,17.1608934106444
0.0062143687530344,17.1630533464016
0.00702329114031231,17.1650466967851
0.00791937128323287,17.1669076287407
0.00891904743294314,17.1686706647105
0.0100485627360594,17.1703740232099
0.0113563042220552,17.1720703394081
0.0130123300131023,17.1739207239176
0.0155489930980972,17.1763425809065
0.0171324866074419,17.177702091001
0.0187872223563766,17.1790616010955
0.0202936115944709,17.1802901168885
0.0216435596191753,17.1814275537889
0.0228526063747176,17.1825267554009
0.0239142980395302,17.1836270618107
0.0248052473575446,17.1847689568693
0.0254800439163774,17.1860117673362
0.0258401331130319,17.1874860318591
0.0254792313929768,17.189747883456
0.0247207713860774,17.1912232302163
0.0236507476553983,17.1926985769765
0.0224344067852243,17.1940917707272
0.0210743373873241,17.1954991147994
0.0195799542606824,17.1969662848677
0.0179595192216931,17.1985305618775
0.0173757560563332,17.1990962694945
0.01680030987172,17.1996619771115
0.0156520059362353,17.2008364185624
0.013218922175643,17.2035743982464
0.0118234943990414,17.2053420518565
0.0105583114230352,17.2071097054667
0.00953093817930699,17.2086901626594
0.0086618539956728,17.21015297763
0.0078728925629557,17.2116031025117
0.0071149953857199,17.213129806513
0.00633728148703986,17.2148648825073
0.00542680163742335,17.2171752331442
0.00453890616851835,17.2198223506907
0.00381755802520946,17.2223801430603
0.00322195484595724,17.2248898973099
0.00267568964436339,17.2276563608541
0.00216900949507324,17.2308340275182
0.0017464240275963,17.2342327697724
0.00140583744466996,17.2378899347301
0.00114823669270059,17.2418590271018
0.00098189525572125,17.2462092378341
0.000928708367745008,17.2506341577868
0.000983366232740141,17.2545738896432
0.00112611510302959,17.2581171712696
0.00134689737983309,17.2613070710815
0.0016409326713548,17.2641886364256
0.00200820229706348,17.2668141097348
0.00245235191656772,17.2692318177378
0.00298169710775175,17.2714910661634
0.0036117894655993,17.2736461041763
0.00437245106913204,17.2757661492049
0.00531631635602174,17.2779372992872
0.00655722567417281,17.2803120139659
0.00825952214372032,17.283031825343
0.0103216380793734,17.2858037924241
0.012255687298833,17.2880290944261
0.0140392541135192,17.2898167375925
0.0158563972748054,17.29141246839
0.0177782012736422,17.2928871861195
0.0198780268307821,17.294288685697
0.0221949992655627,17.2956272668361
0.0247723269483141,17.2969114765654
0.0276563604978388,17.298147658958
0.0308905085366373,17.2993382109283
0.0345227174390247,17.3004856404584
0.0386093825174038,17.30159329583
0.0432085174599024,17.3026630333321
0.0483924638529164,17.3036982495578
0.0542431620421343,17.3047019451289
0.0608557335325345,17.3056771057357
0.0683443196461119,17.3066270891595
0.0768462813392597,17.3075554913443
0.0865275875076355,17.3084660854215
0.0975915606500883,17.3093629519819
0.110292725430691,17.3102507422084
0.124953396733854,17.3111347566859
0.141990336067108,17.3120212622712
0.161957565899971,17.3129180327923
0.18562243133239,17.3138354119832
0.213223405697935,17.3147607173954
0.245201712689865,17.3156925944788
0.282416771384608,17.3166422698441
0.326138713650641,17.3176297229166
0.366143471541324,17.3184523690672
0.408524859435863,17.3192750152177
0.44524863384824,17.3199748499349
0.477024748399229,17.3205952851203
0.504948949869023,17.3211787087221
0.52924933296496,17.3217516692629
0.549623079856255,17.3223373692581
0.565203107938903,17.3229651058822
0.573960319387729,17.3236894038794
0.571902546337516,17.3244500451314
0.55761103025431,17.3252440010771
0.529471591588209,17.3260914183081
0.487358871980167,17.3269690446367
0.430471568593196,17.3278834149213
0.378132733226475,17.3285899664797
0.319459154465945,17.3292965180382
0.268720360433141,17.3298659996196
0.226656888870931,17.3303248827007
0.190462050691771,17.3307197649457
0.158424861591067,17.3310765823725
0.129600524232368,17.3314099673022
0.103388755175425,17.33172975399
0.0793356591366209,17.3320440950963
0.0570098242730118,17.3323618339922
0.0358159047500862,17.3326969457315
0.0141677153784939,17.3330894730141
-0.000256237728102058,17.3333931717525
-0.00781485852491366,17.3335714347429
-0.0147333084968059,17.3337496977333
-0.0207672103105194,17.3339198487449
-0.0269476051027161,17.3341119686786
-0.0330111630354454,17.3343229407974
-0.0387560700783658,17.3345499749383
-0.0440673215910917,17.334791858264
-0.0488829051009895,17.3350484335256
-0.0531727026761776,17.3353202756955
-0.0569261190853842,17.3356085282094
-0.0601446178729046,17.3359148364054
-0.0628321761699597,17.3362413448488
-0.0650484401205127,17.3366016090872
-0.0666672969223107,17.3369746818968
-0.0677977024173386,17.3373776698097
-0.068453837865383,17.337815811621
-0.0686458212994938,17.3382955251753
-0.068378503089232,17.3388250681587
-0.0676476120813866,17.3394160562235
-0.066434060917582,17.340084636449
-0.0646968443851434,17.3408538120715
-0.062351751634946,17.3417612813172
-0.0592030657892513,17.3428829889
-0.054995186827048,17.3443172184633
-0.0508794225912628,17.3457008674097
-0.0469198858586342,17.3470434963471
-0.0431517190049415,17.3483480901758
-0.0395936494741414,17.3496157702089
-0.0362555751642054,17.350846718004
-0.0331417047960321,17.3520406597302
-0.0302520852958004,17.3531971223292
-0.0275835116144525,17.354315567752
-0.0251301879810245,17.3553954599691
-0.0228842797587954,17.3564362929039
-0.0208364071177341,17.3574375941807
-0.0189760942545923,17.358398912845
-0.0172921756479461,17.3593197955926
-0.0157062761831264,17.3602397240254
-0.0141794569312956,17.361183260304
-0.0127161386848613,17.3621520294956
-0.0113202241734083,17.3631481627
-0.00999541251416559,17.3641741630618
-0.00874514504321324,17.3652329996133
-0.0075725512288282,17.3663282290768
-0.00648039172644936,17.3674641601814
-0.00547099818297394,17.3686460805473
-0.00454620876358621,17.3698805786853
-0.00370729732749453,17.371176016153
-0.0029548922781306,17.3725432477665
-0.00228887739870089,17.3739967750763
-0.00170825906341052,17.3755567118043
-0.00122727674266501,17.377189259155
-0.00084401488142118,17.3788704474899
-0.000542188707497384,17.3806186020627
-0.000307070445230068,17.3824555708076
-0.000124702459449799,17.3844107095698
1.85904621139515e-05,17.3865259657546
0.000136981389961909,17.3888666263979
0.000246762695845456,17.391548270401
0.000371343744761701,17.3948288648829
0.000522434852523959,17.3985730656301
0.000705808187834734,17.4026158697885
0.000944602624027411,17.4073549279358
0.00119404517448858,17.4120081910284
0.00143291235863551,17.4163690881094
0.00166812980909642,17.420669926172
0.00191264994793443,17.4251953480013
0.00218021975922632,17.4302233285095
0.00243762110835863,17.4351077389521
0.00270010913397453,17.4401050514382
0.0029265210265346,17.4443886293764
0.0031368864527084,17.4483281943499
0.00334280281275659,17.4521292689996
0.00355021199762599,17.4558881650444
0.00376319746931991,17.4596635125476
0.00398519133799998,17.4634980517397
0.00421945927315116,17.467426720784
0.00446936867862921,17.471480564239
0.00473861214586627,17.4756894681928
0.00503139012154552,17.4800836182693
0.00535264626290175,17.4846947292654
0.0057084396395238,17.4895573538597
0.00610654825012008,17.494710022324
0.00652361687807866,17.4997928456683
0.00696406624649199,17.504827160484
0.00742941422155487,17.5097889629457
0.00792389547345402,17.5146786486419
0.00845259751578872,17.51949770082
0.00902167515711615,17.5242503176053
0.00963804239881143,17.5289396926058
0.0103093316335576,17.5335673474687
0.0110564064104179,17.5382070628455
0.0118963922187842,17.5428761603507
0.0128488053747345,17.5475839580517
0.0139409642746648,17.5523555966936
0.0152149441019927,17.5572478249129
0.0167500152965811,17.5624028533713
0.0187659535700669,17.5682899657603
0.0205995045876634,17.573063879693
0.0225616498922751,17.5778377936257
0.0241592495122065,17.5816738315692
0.0254765262084853,17.5849819533449
0.026580263611662,17.5880609547878
0.0274726894277667,17.5910597842929
0.0280945970374887,17.5939064461898
0.0284489830949289,17.5967209029791
0.0285134185574703,17.5996474838939
0.0282043165750489,17.6029541552106
0.0272197309020212,17.6073206582782
0.0263280175790075,17.6100328308752
0.0252691068363496,17.6127450034722
0.02419581605755,17.6152118861101
0.0231218219226715,17.6175250464469
0.0220471660408998,17.6197531552166
0.0209744947973702,17.6219342708539
0.0199074235860485,17.6240921787058
0.0188496498746067,17.6262435051249
0.017804679658151,17.628400847239
0.0167757557737532,17.6305743465258
0.0157658416109603,17.6327725906325
0.0147776273245717,17.6350031675007
0.0138135415961249,17.6372730334027
0.0128757589669581,17.6395887864858
0.0119662135989558,17.6419568609954
0.0110866068940284,17.6443836962082
0.0102384146229801,17.646875885174
0.0094228982633243,17.6494403007781
0.00864111030823306,17.6520842374746
0.00787430558822234,17.6548902363204
0.00712286752760636,17.6578886485668
0.00639060787293935,17.6611025677945
0.00568148733022661,17.664558791723
0.0049995970234539,17.6682883250477
0.00434914713655992,17.6723272073451
0.00373436485202449,17.6767176872502
0.00315932867564326,17.6815101355065
0.00262774508336552,17.6867662949396
0.00214264259770725,17.6925655516267
0.00170624633427896,17.6990135893042
0.00132779267936491,17.7060893173652
0.00101157150492032,17.7137367128134
0.00075092915441559,17.7220768057337
0.000544565772986403,17.7312707356753
0.000393950856712262,17.7412707356753
0.000296116285903999,17.7507264941655
0.000222993001516709,17.7607264941655
0.000172079900059282,17.7707264941655
0.000137087656288233,17.7807264941655
0.000113478023680261,17.7907264941655
9.78931715737613e-05,17.8007264941655
8.79116997743695e-05,17.8107264941655
8.18468532553382e-05,17.8207264941655
7.85499281024302e-05,17.8307264941655
7.72441749729565e-05,17.8407264941655
7.74034474979827e-05,17.8507264941655
7.86711879002726e-05,17.8607264941655
8.08079887638778e-05,17.8707264941655
8.3657137341465e-05,17.8807264941655
8.71212528410713e-05,17.8907264941655
9.1146141649087e-05,17.9007264941655
9.57096971202412e-05,17.9107264941655
0.000100814480683279,17.9207264941655
0.000106483026772291,17.9307264941655
0.000112755181042839,17.9407264941655
0.000119686998459683,17.9507264941655
0.00012735091038662,17.9607264941655
0.000135837020299336,17.9707264941655
0.000145255514776074,17.9807264941655
0.000155740294416596,17.9907264941655
0.000167454055419745,18.0007264941655
0.000180595206199249,18.0107264941655
0.000195407209312058,18.0207264941655
0.000212191232555837,18.0307264941655
0.000231323429673831,18.0407264941655
0.000253278841273549,18.0507264941655
0.000278664963769685,18.0607264941655
0.000308269746211515,18.0707264941655
0.00034313162344709,18.0807264941655
0.000384644073893531,18.0907264941655
0.000434715822410613,18.1007264941655
0.000494031721669813,18.110428165048
0.000561332503872837,18.1193957618324
0.000637506558881002,18.1276687867652
0.000723706266836496,18.1353012450146
0.000821264438326439,18.1423438227408
0.000931697612198663,18.1488435048754
0.00105672489786947,18.1548438662093
0.00119829338645827,18.1603853449645
0.00135860960941331,18.1655054578829
0.00154017365833209,18.1702390057794
0.00174582082157301,18.1746182882884
0.00197876968271568,18.178673318945
0.00224268193236389,18.1824320089465
0.00254173019235213,18.1859203374555
0.00288068839492373,18.1891625428712
0.00326504409491924,18.1921813261284
0.00370114429369225,18.1949980456435
0.00419639324224821,18.197632946185
0.00475952641246317,18.2001054416056
0.00540100540450088,18.2024344607099
0.00612530246004558,18.2046160887502
0.00692488344214967,18.2066271110038
0.00781009762028218,18.2085016952433
0.0087966156628885,18.2102742910198
0.00990913956471543,18.2119823236061
0.0111922737901885,18.2136757387553
0.0127925609854843,18.2154952747231
0.0152103542499008,18.2178448418917
0.0168148212960234,18.2192404475938
0.0185039496895197,18.2206360532959
0.020042963030516,18.2218891948635
0.021418453907722,18.2230381859304
0.0226520211064875,18.2241410416546
0.0237406190789539,18.2252384497012
0.0246638215507487,18.2263696733132
0.0253811025147701,18.2275887973855
0.0258084585532211,18.2290053519455
0.0256401872062412,18.2310773447573
0.0249753985047869,18.2325994956555
0.0239513229337491,18.2341216465536
0.0227755517850491,18.235522498638
0.0214538158750889,18.2369204343846
0.0199949736502567,18.2383676992433
0.0184082853913219,18.2399018009718
0.0174030715949036,18.2408742241561
0.0164220014061413,18.2418466473404
0.0149792473868645,18.2433613296696
0.0124954656237534,18.2462745313799
0.0112483599678789,18.247928648699
0.0101123527853736,18.2495827660181
0.00916377917297755,18.2510974490164
0.00833429499241903,18.2525443616494
0.00756335899737021,18.2540140496453
0.00680477313128122,18.2556040794023
0.00599574880039708,18.2574965853856
0.00503814808935995,18.260082384672
0.00419882710841651,18.2627782435403
0.00354267055823997,18.265289520986
0.00297439280533621,18.2678817049433
0.00243790897494853,18.2708603662609
0.0019693190783765,18.2741330503729
0.00158367059835161,18.2776417787523
0.00127982001502381,18.2814313226643
0.0010614694484549,18.2855615188713
0.000942053118896129,18.2901107286344
0.000941771870089355,18.2942926789998
0.0010384358721346,18.2980469581007
0.00121771176009017,18.3014222865377
0.00147226383274215,18.3044648057551
0.001799645058455,18.3072237630788
0.00220132593846491,18.3097479396359
0.00268311670459486,18.3120872017185
0.00325631188164585,18.3142925792882
0.00394030541628325,18.3164190602886
0.00477525398063398,18.3185482038513
0.00583444223099703,18.3207872692274
0.0072826632702584,18.3233370015032
0.0091520500470295,18.3260950768684
0.0106987954264754,18.3280687423007
0.0124516746679682,18.3300424077329
0.0142258742231799,18.3317958077364
0.0160377654307155,18.3333656625092
0.0179807804119166,18.3348365360974
0.0200995652286346,18.3362306511329
0.02243787360201,18.3375620037155
0.0250462281140884,18.3388425009931
0.0279605608464407,18.3400729698872
0.0312321724374882,18.3412592173104
0.0349080708368768,18.3424029334999
0.0390413301013616,18.3435063164874
0.0436963084923091,18.3445727563799
0.0489429666786751,18.3456047713344
0.0548641149261982,18.3466053715371
0.0615583866334147,18.3475778975236
0.0691417567886937,18.3485256557306
0.0777525721536526,18.349452074168
0.0875610741429819,18.3503610812921
0.0987755937020542,18.3512568479374
0.111656170047028,18.3521440423072
0.126532301418322,18.3530279937045
0.143832576300448,18.3539151255538
0.164128101772888,18.3548134117501
0.188214942101022,18.3557335859227
0.21622329119243,18.3566591742195
0.248684084342081,18.3575922487395
0.286484738117907,18.3585445861205
0.330961853668636,18.359537664544
0.370156695030544,18.3603372785903
0.411486812473615,18.3611368926367
0.447720959159562,18.3618276490747
0.479188615844406,18.3624441687806
0.50684768630896,18.3630260266788
0.530877056803879,18.3635991170154
0.550938319949952,18.3641867531524
0.566110517774333,18.3648191654098
0.574217310122296,18.365554494928
0.571229944381459,18.3663169915186
0.555906876832331,18.3671144978142
0.526576465133426,18.3679669284384
0.483377840866324,18.3688458750064
0.42528144958502,18.3697632913211
0.373537031532786,18.3704533300555
0.315848817505043,18.3711433687899
0.26585284383916,18.3717028707803
0.224242571764381,18.3721564843491
0.188348069417072,18.3725483804534
0.15653463239945,18.3729033744087
0.127889148297933,18.3732356497935
0.101824940542124,18.3735548623084
0.0778930223503261,18.3738691347224
0.0556588906902849,18.3741874548446
0.0345042716290684,18.3745244371668
0.0126810654736107,18.3749242945712
1.6288825597514e-05,18.375192391623
-0.00757863820907,18.375370992284
-0.014530051135415,18.375549592945
-0.0205887445477693,18.3757199600408
-0.0267692365121815,18.3759115001783
-0.0328395416605551,18.3761219762898
-0.0385955979862797,18.3763485694147
-0.0439204492370779,18.3765900298845
-0.048750902101043,18.3768461754647
-0.0530561211069992,18.3771175628422
-0.0568250685863358,18.3774053203152
-0.0600589357263328,18.3777110790531
-0.0627618974330325,18.3780369687212
-0.0650025175092131,18.378398186312
-0.0666335788969685,18.3787705983183
-0.0677757295083175,18.3791727959402
-0.0684433144437405,18.3796100087961
-0.0686465538448226,18.3800886172261
-0.0683904555347302,18.3806168258033
-0.0676710534874126,18.3812061353886
-0.0664696677525072,18.3818725849968
-0.0647460032764428,18.3826389377902
-0.062417375914169,18.3835423704397
-0.0592926921974087,18.3846572389627
-0.0550835654670956,18.3860928417291
-0.0509650596241942,18.3874774043861
-0.0470017620098518,18.3888208565166
-0.0432293067441432,18.3901262357911
-0.0396666627817775,18.3913946905493
-0.0363238722848579,18.3926264157579
-0.0332052445348317,18.393821143776
-0.0303109034312949,18.3949784039283
-0.0276377052202399,18.3960976585896
-0.0251799026940823,18.3971783712406
-0.0229296990915133,18.3982200350302
-0.0208777424316398,18.3992221769268
-0.0190135757227022,18.4001843457178
-0.0173260441095957,18.4011060884481
-0.0157389627668149,18.4020255315804
-0.0142108536747688,18.4029685588546
-0.012746161985584,18.4039367777293
-0.011348794054541,18.4049323123833
-0.010022453842855,18.405957657257
-0.00877058863669087,18.4070157704766
-0.00759633502046195,18.4081101949206
-0.00650246199511869,18.4092452214708
-0.00549131085307213,18.4104261143055
-0.00456473080934778,18.4116594304415
-0.00372400834994942,18.4129534879366
-0.00296978636103781,18.4143190794173
-0.00230196545510501,18.4157706135481
-0.00171957214714217,18.4173280571449
-0.00123633411850873,18.4189597806378
-0.000851190674298228,18.4206397543633
-0.000547804064146935,18.4223862934202
-0.00031142631400468,18.4242211210725
-0.000128087926467797,18.4261733947166
1.58857264073032e-05,18.4282847151037
0.000134645288545799,18.4306196914195
0.000244408503124472,18.4332923102844
0.000368313405503307,18.4365552333464
0.000519002477829243,18.4402976608225
0.000701442940780002,18.4443299742911
0.000938767981162848,18.4490486975338
0.00118843471455783,18.4537104043265
0.00142749350792676,18.4580755472027
0.00166267623287483,18.4623749398342
0.00190676223743696,18.4668907880646
0.00217477967015011,18.4719258084508
0.0024322682933463,18.4768111066527
0.00269447339692376,18.4818030771582
0.00292146088513892,18.4860984559638
0.00313203149727081,18.490043033812
0.00333797230172363,18.4938460336027
0.00354529541010042,18.4976051586274
0.00375810938620095,18.5013795893548
0.00397985451412787,18.5052123187257
0.00421379681969578,18.5091384142645
0.00446329851746124,18.5131889750321
0.00473204257042134,18.517393896412
0.00502421513839856,18.5217833423469
0.00534473889530577,18.5263889774535
0.00569964082758044,18.5312452717275
0.00609664932489581,18.536390653638
0.00651340911756358,18.5414773403282
0.00695322602615037,18.546512433677
0.00741795495689378,18.551476229066
0.00791167947708712,18.5563675945112
0.00843949534895203,18.5611883030819
0.00900752818322971,18.5659424633928
0.00962267726208316,18.5706333288462
0.010292556707956,18.5752624547335
0.0110375703040229,18.5799012327192
0.0118751481780631,18.5845696315255
0.0128245993431229,18.5892762789178
0.0139130199905982,18.5940459223467
0.0151819712028448,18.598934150919
0.016709276249805,18.6040798217771
0.0187077446096657,18.6099359715074
0.0205558402670368,18.6147598268941
0.0221306773226547,18.618610053045
0.0237384602111016,18.6224602791959
0.0251192646859232,18.625863888733
0.0262821597396375,18.6289888212288
0.0272394698445948,18.6320057597531
0.0279394918950052,18.6348836770298
0.0283733812931665,18.6376943101816
0.0285277444828097,18.6405693288544
0.0283448745981885,18.643717598864
0.0275731820352738,18.6478365210606
0.0267176403192013,18.6507217048128
0.0256537766254857,18.653606888565
0.0245771295258205,18.6561632977586
0.0235031999578591,18.6585215854418
0.0224285456217115,18.6607744827242
0.0213547641273139,18.662969060703
0.0202852668391954,18.6651330460287
0.0192237706358536,18.6672851227554
0.0181738632264005,18.6694390853981
0.0171388839301436,18.671605819961
0.0161218956303369,18.673794388044
0.0151256838317431,18.6760126837316
0.0141527691334352,18.6782678519585
0.0132054144625354,18.6805665935351
0.0122856379236492,18.6829153812219
0.0113952236227503,18.6853206322703
0.0105357250563171,18.6877888731049
0.00970847995736196,18.6903268588925
0.0089146132658711,18.6929417211413
0.00814333509115607,18.6956844357303
0.00738604769717837,18.6986125172009
0.00664657620009289,18.7017475179957
0.0059288326815815,18.7051149232638
0.0052368582673934,18.7087441685572
0.00457483049396059,18.7126694032378
0.00394698590081949,18.7169305137485
0.00335747948561709,18.7215747066089
0.00281017874383361,18.7266591972424
0.00230837727057355,18.7322562867541
0.00185458819745186,18.7384612008212
0.00145269587555922,18.7453607566007
0.00111546022668507,18.7527969076956
0.000836127430234428,18.7608787175457
0.000608920150358917,18.7697529426335
0.00047949601164671,18.7769887485641
0.000352913643237113,18.7867376131136
0.000262398198149538,18.7967376131136
0.000199294996685972,18.8067376131136
0.000155658511254377,18.8167376131136
0.000125947349163585,18.8267376131136
0.000106089483734553,18.8367376131136
9.31233024447845e-05,18.8467376131136
8.4962644109777e-05,18.8567376131136
8.01761702333631e-05,18.8667376131136
7.77932496411709e-05,18.8767376131137
7.7155885743933e-05,18.8867376131137
7.78170426444289e-05,18.8967376131137
7.9474212136498e-05,18.9067376131137
8.19259968577981e-05,18.9167376131137
8.50429522250545e-05,18.9267376131137
8.87475158257958e-05,18.9367376131137
9.30001280717509e-05,18.9467376131137
9.7789798777235e-05,18.9567376131137
0.000103127935048854,18.9667376131137
0.000109044577766479,18.9767376131137
0.000115586445661979,18.9867376131137
0.00012281639422562,18.9967376131137
0.00013081406674675,19.0067376131137
0.000139677653592568,19.0167376131137
0.000149526796487273,19.0267376131137
0.000160506793430266,19.0367376131137
0.00017279439491385,19.0467376131137
0.00018660565428194,19.0567376131137
0.000202206532676774,19.0667376131137
0.000219927304439705,19.0767376131137
0.000240182329816902,19.0867376131137
0.000263497571026837,19.0967376131137
0.000290549518433097,19.1067376131137
0.000322221307262994,19.1167376131137
0.000359685364469852,19.1267376131137
0.000404528102793728,19.1367376131137
0.00045894326727521,19.1467376131137
0.000521562203514413,19.1561256763024
0.000592499070961516,19.1647918833481
0.000672774708023938,19.1727867438946
0.00076361939746062,19.1801630081031
0.0008664425608327,19.1869697586725
0.000982843925883382,19.1932524975621
0.00111463589769807,19.1990534379847
0.00126387133892816,19.2044117558003
0.00143287721128574,19.2093637895221
0.00162428974619318,19.2139432523482
0.00184110097709179,19.2181814486906
0.00208670927351791,19.2221074805357
0.00236498375837,19.2257484173035
0.00268034037115586,19.2291294751001
0.00303783959761385,19.2322742161203
0.00344331389354162,19.2352047468231
0.00390353081819004,19.2379419223938
0.00442641961486042,19.2405055976998
0.00502139098970119,19.2429149326735
0.00569980350500823,19.2451887855777
0.00645504801793895,19.2472937808005
0.00728943587366799,19.2492426607364
0.0082153521474398,19.2510696975765
0.00925156616922727,19.2528099091809
0.0104291720819692,19.2545042860343
0.011811830214139,19.2562177977743
0.0136475085495833,19.2581754315607
0.0154181691866692,19.2598361507467
0.0173544303549092,19.2614968699327
0.0190607580575523,19.2628938082826
0.0205415379346703,19.264104811799
0.0218664355579367,19.2652323785033
0.0230505417544284,19.2663290667204
0.024084386711696,19.2674335018649
0.0249414612127708,19.2685878927065
0.0255706557181025,19.2698581489259
0.0258541052428426,19.2714035822418
0.0255372186787971,19.2731917604507
0.0246253211580548,19.2749799386596
0.0235332120773875,19.2764508464885
0.0223011379263467,19.2778437704582
0.0209270421557981,19.2792554933279
0.0194197356675117,19.2807307527744
0.0177869542763826,19.2823070758434
0.0164943582507353,19.2835789638615
0.015271504347913,19.2848508518796
0.0128166058878765,19.2876772186697
0.0115101414119931,19.2893739846548
0.0103220373115065,19.2910707506399
0.00933875914849129,19.2926130280663
0.00849148336403445,19.2940656550274
0.00771274384093785,19.2955240531434
0.00695554985016871,19.2970805326912
0.00616411259622147,19.2988888170214
0.00518578504662257,19.301459464094
0.00432719005927546,19.3041384820439
0.00364966950843777,19.3066547572834
0.00307236286436873,19.309205192735
0.00253266393520397,19.3120906883342
0.00204867973971256,19.315323542544
0.00164802716512319,19.3187863025177
0.00132914507428152,19.3225204650648
0.00109453910370669,19.3265831534795
0.000955346403946017,19.3310487878469
0.000933709405077466,19.3353306943097
0.00101313146083669,19.3391617879972
0.00117728118024826,19.3426063975447
0.00141780008603232,19.3457101632954
0.0017312295486134,19.3485197260496
0.00211840833813901,19.3510853240185
0.00258409825119958,19.353455784874
0.00313844963661874,19.3556823250229
0.00379911864375704,19.357819262118
0.00460121173862785,19.3599416651065
0.00560860214121735,19.3621477103782
0.00696237176425113,19.364616237785
0.00876012643269417,19.3673597965608
0.0103301171791936,19.3694245887536
0.0121162948414555,19.3714893809465
0.0138969707902864,19.3732928194593
0.0156949637871915,19.3748893218985
0.0176080697972434,19.3763748115293
0.0196914480824898,19.3777822803355
0.0219845305804345,19.3791238143856
0.0245410270214113,19.3804141410135
0.027394686764506,19.3816533104431
0.0305976218221137,19.3828479801537
0.0341929617191475,19.383998844269
0.0382370670698843,19.3851095405952
0.0427908034084854,19.3861827707451
0.0479208968474411,19.3872207593245
0.053710072466066,19.3882269677519
0.0602530102091568,19.3892044997952
0.0676613643696221,19.3901565564954
0.0760696796646691,19.3910866482941
0.0856416632144872,19.3919985979427
0.0965775611268513,19.3928964987217
0.109126307281972,19.3937848917401
0.123603143571084,19.3946689934532
0.140415634627825,19.3955549957849
0.160103684990361,19.3964505142741
0.183412384528179,19.3973656270988
0.210666770876551,19.3982907552943
0.242235149980823,19.399221691109
0.278954192348574,19.4001692220539
0.322041877590726,19.4011521614035
0.362794139137345,19.4019960671931
0.406144050335398,19.4028399729828
0.443283194880889,19.4035476408336
0.475307325236373,19.4041713398413
0.503440820763981,19.4047560941343
0.527953154302009,19.4053290382235
0.548569484395629,19.4059133216221
0.56446324698795,19.4065375685468
0.573711589950108,19.4072537285368
0.57236819102018,19.4080130271862
0.558866904912063,19.4088043276267
0.531637785199932,19.4096479423982
0.490344918607148,19.4105248635874
0.434397955390042,19.4114366684247
0.36735847055533,19.4123354442669
0.322005040666064,19.412877498055
0.273877886525521,19.4134195518431
0.231350876513058,19.4138842320006
0.194593680128456,19.4142847701923
0.162116074553086,19.41464524756
0.1329395124907,19.414980885365
0.106437489645846,19.4153018721969
0.0821454579037433,19.4156164415707
0.0596362375490894,19.4159331989891
0.0383526563137876,19.4162650391447
0.0169591507033334,19.4166455304456
0.00776955697878522,19.4168294540265
-0.000689077281469526,19.4170133776074
-0.00940558584195495,19.4172214229109
-0.0161706392071129,19.4173992694769
-0.0222517707129778,19.417574591656
-0.028428496238177,19.4177716108383
-0.0344297663639843,19.4179866392198
-0.0400782291941767,19.4182173153365
-0.0452742417891239,19.4184627219122
-0.0499649924820689,19.4187229002938
-0.0541259646042897,19.4189985729634
-0.0577500192053285,19.4192910075266
-0.0608407466142615,19.4196019678333
-0.0634003203195637,19.4199337239713
-0.0654237661666565,19.4202868916494
-0.0669399739458053,19.4206656648341
-0.0679714344080698,19.4210754560052
-0.068531044561474,19.4215216047298
-0.0686280126164951,19.4220108581011
-0.0682657918166832,19.4225519422332
-0.0674373748165277,19.4231574858157
-0.0661200639568588,19.4238446171649
-0.0642663685745509,19.4246385340958
-0.061777713273219,19.4255818471183
-0.0584121090517857,19.4267664065218
-0.0542167011575054,19.4281892296405
-0.0501263674589922,19.4295649048768
-0.0462006428430531,19.4309003064308
-0.0424706707078051,19.4321979766291
-0.0389531680104842,19.4334588129415
-0.0356568102664263,19.4346828864267
-0.0325849434288971,19.4358698727472
-0.0297369506391942,19.4370192799437
-0.0271090982735091,19.4381305672572
-0.0246951705621706,19.4392032033624
-0.0224870086220178,19.4402366889926
-0.0204749953168402,19.4412305572561
-0.0186484966147307,19.4421843589717
-0.016996259682469,19.4430976370793
-0.0154208024937515,19.4440218499951
-0.0139053671425132,19.4449698837338
-0.0124541629527456,19.4459435183617
-0.0110710598920977,19.446944947018
-0.0097597135993082,19.4479767509156
-0.00852351218783759,19.4490419970223
-0.0073655216456341,19.4501443665615
-0.00628842833499947,19.4512883290534
-0.00529447810700338,19.4524793837642
-0.00438541086040188,19.4537244042919
-0.00356238819680399,19.455032147235
-0.00282590968586584,19.4564140344718
-0.00217570903106216,19.4578854189623
-0.00161061222241819,19.4594677704318
-0.00114918321333774,19.4611078784912
-0.000782218959545091,19.4628001130515
-0.000493878132688193,19.4645629446224
-0.000269604475887509,19.4664193719107
-9.55355245521859e-05,19.468400599323
4.20238702952486e-05,19.470551835209
0.00015747456957047,19.4729448409756
0.000267853250495764,19.4757108135163
0.000399398275365276,19.4791628929276
0.00055462565900547,19.4829295013481
0.000746913993051138,19.4870745753963
0.000999974627483203,19.4920159930893
0.00124739491727934,19.4965964503789
0.00148466728284385,19.500923504714
0.00172056476622039,19.5052455571263
0.00196999641806781,19.5098772620487
0.00223379026282902,19.5148468267418
0.00249078069034726,19.5197299824068
0.00275106266448378,19.5246829110436
0.00297266366363485,19.5288673319332
0.00318139814196481,19.5327654232638
0.00338723172170871,19.5365511097281
0.00359553372156143,19.5403093432765
0.00381018259697863,19.544094177991
0.00403454719204168,19.5479462353968
0.00427189480756976,19.5518993335801
0.00452564659009157,19.5559840931834
0.0047995881631804,19.5602303507979
0.00509805714284496,19.564668520955
0.00542619970622129,19.5693308134384
0.0057903851909967,19.5742525664394
0.00619749681626777,19.5794560127884
0.0066178577459043,19.5845085923038
0.00706403763724339,19.5895337752921
0.00753522135607217,19.5944778707157
0.00803677059942129,19.5993521357417
0.00857376369716588,19.6041561458432
0.00915260272667755,19.6088946910549
0.00978033987752035,19.6135704429132
0.0104647762709128,19.6181846180546
0.0112311150719562,19.622833004275
0.0120936492128015,19.6275088171618
0.0130738694961068,19.6322277814682
0.0142013197133973,19.637019150772
0.0155233261386328,19.6419515892089
0.0171346350616983,19.6472032166151
0.0193391518381675,19.6534396767951
0.0210536399494297,19.6578003170998
0.0228598495600038,19.6621609574045
0.0243921835433484,19.6658535041419
0.0256715526819873,19.6691078781723
0.0267417595688396,19.6721661954637
0.0275897163581138,19.6751313290218
0.0281691672418279,19.677964331825
0.0284797387260335,19.680785757104
0.0284929030663465,19.6837486252946
0.0281052654379923,19.6871687913823
0.0273215128356673,19.6905757604094
0.0262034499471056,19.6939827294365
0.0251058018046636,19.6967440245828
0.0240295753191808,19.6991875861826
0.0229551966190804,19.7014845646802
0.0218806106461242,19.7037034475267
0.0208085526905363,19.7058796778014
0.0197426757736434,19.7080356346457
0.0186866568965886,19.7101871726708
0.0176439638474577,19.7123464284052
0.0166177954943145,19.7145232568276
0.0156110731871597,19.7167260583692
0.0146264449224203,19.7189623040979
0.0136662994867735,19.7212388789101
0.0127327736743152,19.7235623430365
0.0118277636108029,19.7259391248661
0.0109529369427447,19.7283756737098
0.0101097343780261,19.7308786208164
0.00929938517699415,19.7334548933753
0.00852255437133687,19.7361131284949
0.00775784138552258,19.7389474179788
0.00700909749185634,19.7419773099892
0.00628013683972966,19.7452265751077
0.00557493206721883,19.748722612183
0.00489759775223087,19.752497135967
0.00425235477589209,19.7565870482969
0.0036434197971092,19.7610356936479
0.00307483302396426,19.7658949012935
0.00255020813378028,19.771228705326
0.00207245985958497,19.777119840462
0.00164369170939067,19.7836789391834
0.00127525744136131,19.7908360658303
0.000968017052426541,19.7985811753126
0.00071535707553904,19.8070410466117
0.000517648539851916,19.8163837895715
0.000386240154800909,19.8255474170275
0.00028579242680599,19.8355474170275
0.00021579800249052,19.8455474170275
0.00016710969922039,19.8555474170275
0.000133709384674921,19.8655474170275
0.000111226134832606,19.8755474170275
9.64292999597331e-05,19.8855474170275
8.69977493907643e-05,19.8955474170275
8.13196077817011e-05,19.9055474170275
7.82987599772749e-05,19.9155474170275
7.71941231656499e-05,19.9255474170275
7.75036316181e-05,19.9355474170275
7.88872463078694e-05,19.9455474170275
8.11171335863446e-05,19.9555474170275
8.40448308548734e-05,19.9655474170275
8.75789197862627e-05,19.9755474170275
9.16695895505773e-05,19.9855474170276
9.5040437950911e-05,19.9927737085138
9.8647890639772e-05,20
