ecg,time
0.00461119825890165,15.000920245492
0.00490142132898319,15.0049796918272
0.00521465191929837,15.0091911701258
0.00555610847639693,15.0135846821074
0.00593202665552753,15.0181915185376
0.00635014770400701,15.0230454814743
0.00681246706558677,15.0280981778446
0.00729503321385944,15.0330361812888
0.00780902584208594,15.0379406356969
0.00835526742700684,15.0427733424924
0.00893957062508975,15.0475380824852
0.00956813804285025,15.0522335130844
0.0102486455472879,15.0568623115628
0.0110027964919207,15.061503088936
0.0118475283470541,15.0661718364334
0.0128027294285842,15.0708800028946
0.013895938511402,15.0756536799125
0.0151693515250366,15.0805501733306
0.0167020718279616,15.0857117820822
0.0187124900073384,15.0916067548287
0.0205448158513459,15.0964008408288
0.0225046124794506,15.1011949268289
0.0240979162630227,15.1050436975471
0.0254107218484295,15.1083626040555
0.0265099397838462,15.1114519978066
0.0273977838554547,15.1144616094935
0.0280151643197538,15.1173190889925
0.0283649102179791,15.1201450198717
0.0284242641301075,15.1230849014405
0.0281085482376047,15.1264103025678
0.0271195833751116,15.1307834559843
0.026225893635407,15.1335035173957
0.0251660114712498,15.1362235788071
0.0240920412159392,15.1386990049124
0.0230175469966548,15.1410211226783
0.0219425978855475,15.1432584582774
0.020869851147025,15.1454490549687
0.0198029258073565,15.1476167228975
0.0187455238674388,15.1497781203573
0.0177011567941971,15.151945877974
0.0166730757881487,15.1541301653925
0.0156642522754303,15.1563395978068
0.0146773869025765,15.1585817822587
0.0137149180524921,15.1608636906468
0.01277903014027,15.163191928998
0.0118716681567834,15.1655729265369
0.0109945408927138,15.1680131125445
0.0101491330274618,15.1705190478426
0.00933671035554031,15.1730975627747
0.00855833039928895,15.175755876886
0.00779560292272939,15.1785758603633
0.00704854634879964,15.1815892371093
0.00632091087236289,15.184819153866
0.0056166028930521,15.1882924844332
0.00493969777026786,15.1920403125462
0.00429437612084311,15.196098779331
0.00368481938460193,15.2005102813997
0.00311503933291709,15.2053254607133
0.00258874724093935,15.2106065385805
0.00210897457817655,15.2164337478922
0.00167783595974605,15.2229138803017
0.00130407211491385,15.2300326640622
0.000992117530072125,15.2377313972287
0.000735322351846683,15.246133427647
0.000527428394531811,15.2554035419283
0.000372992552139986,15.2654035419283
0.00027842833095986,15.2745816082311
0.000206217424771887,15.2845816082311
0.000155920503055052,15.2945816082311
0.000121001289323393,15.3045816082311
9.71369409522284e-05,15.3145816082311
8.11714064809155e-05,15.3245816082311
7.07657703897772e-05,15.3345816082311
6.4238174545462e-05,15.3445816082311
6.04203207762421e-05,15.3545816082311
5.85171925457619e-05,15.3645816082311
5.79904257356511e-05,15.3745816082311
5.84742670421692e-05,15.3845816082311
5.97198643467505e-05,15.3945816082311
6.155918361501e-05,15.4045816082311
6.38811478504319e-05,15.4145816082311
6.66153207862931e-05,15.4245816082311
6.97205334051011e-05,15.4345816082311
7.31769779619383e-05,15.4445816082311
7.69808197249833e-05,15.4545816082311
8.11406430797596e-05,15.4645816082311
8.56752286123807e-05,15.4745816082311
9.06123038086747e-05,15.4845816082311
9.59880284447873e-05,15.4945816082311
0.000101847066806413,15.5045816082311
0.000108243167177656,15.5145816082311
0.000115240222105888,15.5245816082311
0.000122913828292532,15.5345816082311
0.000131353409002164,15.5445816082311
0.000140665010360396,15.5545816082311
0.000150974941913926,15.5645816082311
0.000162434509040168,15.5745816082311
0.000175226191028342,15.5845816082311
0.000189571770046165,15.5945816082311
0.000205743137772843,15.6045816082311
0.000224076838141137,15.6145816082311
0.000244993911742424,15.6245816082311
0.000269027399687073,15.6345816082311
0.000296861130922726,15.6445816082311
0.000329385491401018,15.6545816082311
0.000367779365497823,15.6645816082311
0.000413633498481752,15.6745816082311
0.000469141400004412,15.6845816082311
0.000532309038132174,15.693894757498
0.000603591277737657,15.7024959022788
0.000683968305537412,15.7104370277881
0.000774602826112361,15.7177693027266
0.000876823718888016,15.7245402867304
0.000992137273951389,15.7307941297015
0.00112224867093632,15.7365718642124
0.00126908855007067,15.741911635145
0.0014348451444473,15.7468488428545
0.00162199502045449,15.7514163374964
0.00183334870625899,15.7556446417779
0.00207209668401487,15.7595621655585
0.00234186780445852,15.76319533192
0.00264679663034114,15.7665687316171
0.00299160964127905,15.7697053279754
0.00338173916869096,15.7726266366089
0.00382345854437671,15.7753528802498
0.00432407215617477,15.7779032119327
0.00489217911226414,15.780295969706
0.00553803717434239,15.7825489607033
0.00626680737949999,15.7846605585385
0.0070693127844213,15.7866038127495
0.00795494229741193,15.7884106881983
0.00893769432414468,15.7901128515669
0.0100388155016866,15.7917431781071
0.0112944487578203,15.793342140259
0.0128186967202735,15.7950164878585
0.0149184854891987,15.7969978808857
0.0167668340203553,15.7985394098522
0.0187641688139796,15.8000809388186
0.0204850938828023,15.8013637021954
0.0219984549088571,15.802501771708
0.0233588618643168,15.8035766465878
0.0245739969252028,15.8046333538509
0.025629941108732,15.8057092001261
0.0264945758302519,15.8068495217647
0.027104703081671,15.8081336605173
0.0272915848283751,15.8097957623935
0.0268739412833019,15.8113750669257
0.0260764529539697,15.8128027297067
0.0250134647345949,15.814183894793
0.0237697489088494,15.8155418227106
0.0223687687131743,15.8169295516107
0.0208234641541923,15.8183867219602
0.0191418242190949,15.8199512204278
0.0185419006856261,15.8205128724144
0.0179498193217648,15.821074524401
0.0170346370091846,15.8219715619478
0.0150925361829529,15.8240166332958
0.0131765714635001,15.8262743913344
0.0113350356742999,15.8287527276354
0.00964875572656895,15.8313965295416
0.00828940199075457,15.8339028828284
0.00714123341706502,15.8363994662269
0.00615501203454726,15.8389515167911
0.00531178574448188,15.8415839606305
0.0045988546677588,15.8443197588519
0.00400812671405899,15.8471828581415
0.00353605561316047,15.8501996385747
0.00318458660782265,15.8534003684361
0.00296360735655929,15.8568209506243
0.00289583557061001,15.8604088240164
0.00298127181586296,15.8636144834148
0.00318849596541272,15.8665053411456
0.00350029910079542,15.8691278969711
0.00390835075717682,15.8715260312599
0.00441227565798688,15.8737468920008
0.00501957096947981,15.8758384456844
0.00574786856309454,15.8778526050339
0.00663143018216173,15.8798526497124
0.00773691247180609,15.8819281419193
0.00919115054270118,15.8842096554821
0.0111912678564662,15.8868348256498
0.0129192265926955,15.888782434452
0.0148886818323799,15.8907300432542
0.0168623500329094,15.8924392589313
0.0188801747821776,15.8939717510077
0.0210316571424264,15.8954016058323
0.0233661674978541,15.8967535810784
0.025940720422663,15.8980474243212
0.0287980809316676,15.8992890473485
0.0319857942161405,15.90048365799
0.0355528420680289,15.9016345266045
0.0395546603626651,15.9027449853804
0.0440484114664456,15.9038169588847
0.0491046977365046,15.9048538151613
0.0548006343247829,15.9058580876886
0.0612293479304492,15.9068330191818
0.0684987515362835,15.9077816841811
0.0767379456451676,15.9087074160604
0.0861026300577526,15.909613787658
0.0967817792828756,15.9105045923272
0.109008982228847,15.9113840439006
0.123076058496013,15.9122568392484
0.139353850660179,15.913128374257
0.158324336629953,15.914005109174
0.180633490070164,15.9148952127862
0.207076899741497,15.9158063027452
0.237653739608405,15.9167189162021
0.273117832609651,15.9176417892881
0.314514450488357,15.9185894191971
0.363612457352085,15.9195923466325
0.400706087170575,15.920296135991
0.438967062369365,15.9209999253495
0.472989714456615,15.9216297801419
0.502897961320515,15.9222108382874
0.529164827694911,15.922772585857
0.55169804850012,15.9233383573238
0.569894456661846,15.9239339498909
0.582326070029675,15.9246010840703
0.58541925848411,15.9253436255134
0.576620311565098,15.9261122374595
0.554591628235659,15.9269288282662
0.51920808295084,15.92777261851
0.470399781430286,15.9286423994751
0.406460285180539,15.929558723307
0.356390714917562,15.9301813940893
0.301913288410524,15.9308040648716
0.254425771644945,15.9313207818644
0.214359083068635,15.9317501358034
0.179490138879335,15.9321272195945
0.148438808823666,15.9324725367
0.120397603956186,15.9327984837244
0.094821513835663,15.933114032629
0.0712671261725937,15.9334273428647
0.0492596067115499,15.933748509669
0.0279896097374711,15.9340969478989
0.00867881726025854,15.9344615802675
-0.00102174367854698,15.934669721712
-0.00980238962302966,15.9348778631564
-0.0165235795499337,15.9350533715864
-0.0226705943066799,15.9352294363112
-0.0288903202274437,15.9354267078115
-0.034918681607409,15.93564164045
-0.040584993872959,15.9358720317097
-0.0457935562260094,15.9361170612559
-0.0504939308806798,15.9363768314741
-0.054663118170474,15.9366521071982
-0.0582950218527381,15.9369441898719
-0.0613939960112462,15.9372548742914
-0.0639683682314324,15.9375864631225
-0.0661353063128567,15.9379657449416
-0.067635226624345,15.9383469018382
-0.0686520953691011,15.9387593509395
-0.069200401111592,15.9392088971325
-0.0692893400286773,15.9397025282197
-0.0689220754804834,15.9402493164973
-0.0680905948974817,15.9408626053093
-0.0667706126044618,15.941560333788
-0.06491094545352,15.942369497121
-0.062403093086483,15.9433369839436
-0.0589656518297687,15.944570161691
-0.0548709756228612,15.945987797955
-0.0508782256262358,15.9473604401266
-0.047044613891097,15.9486935884434
-0.0433997941483106,15.9499894347539
-0.0399600591666214,15.9512486884258
-0.0367341221932603,15.9524713163496
-0.0337255917566484,15.9536569353475
-0.030934231705911,15.9548050196441
-0.0283567520095363,15.9559150087633
-0.0259874102353329,15.9569863596836
-0.0238185295210838,15.9580185659512
-0.0218409693804736,15.9590111558864
-0.0200445574049852,15.9599636765941
-0.0184184809632076,15.9608756674987
-0.0168636231424816,15.9618005461316
-0.0153670128963646,15.9627492833311
-0.01393279147222,15.9637236839588
-0.0125647910532827,15.9647259509942
-0.011266626202872,15.9657586781985
-0.0100416389261098,15.9668249484317
-0.00889284153075298,15.967928463265
-0.00782285582953095,15.9690737186482
-0.00683384783009615,15.9702662488061
-0.00592745616329716,15.9715129746415
-0.00510471092207412,15.9728227186072
-0.00436593664083219,15.9742069975996
-0.00371062727835256,15.9756813081186
-0.00313726815280661,15.9772673502882
-0.00266541964382435,15.9789086987385
-0.00228486436687105,15.9806027473308
-0.00197976119533365,15.9823679976464
-0.00173540476905851,15.9842276427329
-0.00153761939819221,15.9862132025822
-0.0013721444608192,15.9883704485257
-0.0012235616190501,15.9907722783223
-0.00107281688359373,15.9935527085247
-0.000888473688481572,15.9970354766786
-0.000676345786719694,16.0008068197769
-0.000429023483329139,16.0048470745837
-0.0001504554467908,16.0091097348498
0.000154120194397061,16.0136183396266
0.000478180861980809,16.0183972417132
0.000816514135896725,16.0234722870313
0.00112526655872876,16.0282226629123
0.00140450830837613,16.0326295492156
0.00167205905326944,16.0369449848742
0.00194615248666992,16.041443596326
0.00225246159452858,16.0465363493731
0.00254676361941726,16.0514513888447
0.0028464490540232,16.0564473922526
0.00311126323063347,16.060819817759
0.00335594859671834,16.0648084874239
0.00359489444626334,16.0686411786816
0.00383534318816228,16.0724224968864
0.00408218443168085,16.0762143562488
0.0043395137997108,16.0800610546351
0.00461125435816068,16.083998436154
0.00490148179530975,16.0880579149016
0.00521471780818333,16.0922694326321
0.00555618102225277,16.0966629912363
0.00593210735613214,16.101269881929
0.00635023845850094,16.106123907532
0.00681256090685088,16.1111765757621
0.00729513310756716,16.1161145774977
0.00780913142878641,16.1210190176443
0.00835537978895061,16.1258517111718
0.00893969083657381,16.1306164369785
0.00956826755119163,16.1353118540347
0.0102487860012635,16.1399406395253
0.0110029534092995,16.1445814242932
0.0118477046800366,16.1492501776519
0.0128029298461187,16.1539583540152
0.0138961695115236,16.1587320481434
0.0151696238557154,16.1636285754524
0.0167024082629693,16.1687902628691
0.0187129716993847,16.1746854959895
0.020545178520955,16.1794791721956
0.0225048208477963,16.1842728484017
0.0240980725766849,16.188121500816
0.0254108521129681,16.1914403681256
0.0265100478467295,16.1945297468169
0.027397862472341,16.1975393350018
0.0280152150081869,16.2003968044879
0.0283649322997866,16.203222738889
0.0284242531152373,16.2061626425126
0.0281084880814992,16.2094881117655
0.0271194785971765,16.2138612337409
0.0262257792146851,16.2165812538784
0.025165897275416,16.219301274016
0.0240919275068406,16.2217766773867
0.0230174332196755,16.2240987832213
0.0219424841732802,16.2263361122129
0.0208697378543662,16.2285267053897
0.0198028133283747,16.2306943718707
0.0187454125854068,16.2328557693968
0.0177010470664704,16.2350235282683
0.0166729679425666,16.2372078179267
0.0156641466113793,16.2394172534332
0.0146772836894721,16.2416594417494
0.0137148175346519,16.2439413547179
0.012778932534571,16.2462695983416
0.0118715736536537,16.2486506018406
0.0109944496606094,16.2510907944984
0.0101490452092063,16.2535967371657
0.0093366260728764,16.2561752602186
0.00855824975110667,16.2588335832571
0.00779552369831529,16.2616535860148
0.00704846896105794,16.2646669841916
0.00632083571988407,16.2678969250026
0.00561653039453955,16.2713702826519
0.00493962835948126,16.2751181413565
0.00429431023863753,16.2791766428228
0.00368475746394059,16.2835881844053
0.0031149817781115,16.2884034090727
0.00258869442834639,16.2936845396262
0.00210892677691827,16.2995118112429
0.00167779334816423,16.3059920188703
0.00130403633377866,16.313110857944
0.000992087864375769,16.3208096575389
0.000735298115583034,16.3292117694071
0.000527408959111735,16.3384819849103
0.000372979734588529,16.3484819849103
0.000278427635191259,16.3576591493827
0.000206216953736429,16.3676591493827
0.00015592018672202,16.3776591493827
0.000121001111302719,16.3876591493827
9.71368801535868e-05,16.3976591493827
8.11714342942257e-05,16.4076591493827
7.07658600293741e-05,16.4176591493827
6.42383062262613e-05,16.4276591493827
6.04204817638585e-05,16.4376591493827
5.8517375116135e-05,16.4476591493827
5.79906252104584e-05,16.4576591493827
5.84744805533e-05,16.4676591493827
5.97200901971615e-05,16.4776591493827
6.15594209543379e-05,16.4876591493827
6.38813964815395e-05,16.4976591493827
6.66155810276603e-05,16.5076591493827
6.97208059897333e-05,16.5176591493827
7.31772639692803e-05,16.5276591493827
7.69811205424477e-05,16.5376591493827
8.11409603887771e-05,16.5476591493827
8.56755643941139e-05,16.5576591493827
9.06126603661709e-05,16.5676591493827
9.5988408440241e-05,16.5776591493827
0.000101847473313848,16.5876591493827
0.000108243603752714,16.5976591493827
0.000115240692875745,16.6076591493828
0.000122914338070463,16.6176591493828
0.000131353963433179,16.6276591493828
0.000140665616106896,16.6376591493828
0.00015097560689379,16.6476591493828
0.000162435242734558,16.6576591493828
0.000175227004883528,16.6676591493828
0.000189572678003889,16.6776591493828
0.000205744156979017,16.6876591493828
0.000224077989905778,16.6976591493828
0.000244995222859536,16.7076591493828
0.000269028904279723,16.7176591493828
0.00029686287307004,16.7276591493828
0.000329387528955553,16.7376591493828
0.000367781775760793,16.7476591493828
0.000413636386859751,16.7576591493828
0.000469144913603682,16.7676591493828
0.000532313010117312,16.7769722563044
0.000603595751382949,16.7855733603475
0.00068397334316785,16.7935144482133
0.000774608500627851,16.800846688439
0.000876830113561128,16.8076176404499
0.000992144483387327,16.8138714539543
0.00112225680244298,16.8196491613471
0.00126909772544809,16.8249889073425
0.00143485550181647,16.8299260921383
0.00162200671659084,16.8344935657451
0.00183336191920425,16.8387218507394
0.00207211161662925,16.8426393568598
0.00234188468750353,16.8462725070744
0.00264681572756836,16.8496458920352
0.00299163125515609,16.8527824749781
0.00338176364761456,16.8557037714355
0.00382348629257854,16.8584300040693
0.00432410364677605,16.8609803258591
0.00489221490554292,16.8633730748132
0.00553807794458527,16.8656260580456
0.00626685227131055,16.8677376449351
0.00706936225885457,16.8696808901442
0.00795499704755621,16.8714877585084
0.00893775535649041,16.8731899166713
0.01003888441284,16.8748202400992
0.0112945284574086,16.8764192020231
0.012818798434193,16.878093559232
0.0149186433598547,16.8800749866914
0.0167669607289272,16.8816164784153
0.0187642535771825,16.8831579701392
0.0204851635809478,16.8844407217367
0.021998516804244,16.8855787869758
0.0233589172207861,16.886653660211
0.0245740455271281,16.8877103675312
0.0256299819609909,16.8887862155848
0.0264946069920399,16.8899265414747
0.0271047204996633,16.8912106896556
0.0272915741572746,16.8928728221516
0.0268738942327049,16.8944521374058
0.0260763777871258,16.8958798038857
0.0250133736862847,16.8972609652988
0.0237696451004968,16.8986188937565
0.0223686533708492,16.9000066265814
0.0208233380914461,16.9014638036582
0.0191416878026471,16.903028311967
0.0185417239414662,16.9035900027489
0.0179496059406853,16.9041516935308
0.0170340599009539,16.9050491040052
0.0150919755246668,16.9070942193136
0.0131760538047384,16.9093520039945
0.0113345436100455,16.9118304027416
0.00964836126327084,16.9144741628082
0.00828908428265914,16.9169804788253
0.00714095996155993,16.9194770719918
0.00615477650529791,16.9220291400148
0.00531158416942648,16.9246616071771
0.00459868430066214,16.9273974346093
0.00400798587466193,16.9302605694393
0.00353594376499468,16.9332773925379
0.0031845047088101,16.9364781733809
0.00296355867078939,16.9398988165607
0.00289582566167372,16.9434866057864
0.00298129132323058,16.9466921979146
0.00318853965984193,16.9495829974757
0.00350036404637107,16.9522055038013
0.00390843602951158,16.9546035990961
0.00441238158403297,16.9568244292688
0.00501969968698891,16.9589159618712
0.0057480246675048,16.9609301109607
0.00663162311652079,16.9629301605109
0.00773715888128163,16.9650056764395
0.00919148185615522,16.9672872415348
0.0111916744080161,16.9699124210844
0.0129196177530125,16.9718599528809
0.0148890482792921,16.9738074846774
0.0168627148038076,16.9755166556836
0.0188805598854311,16.9770491244324
0.0210320725564819,16.9784789622373
0.0233666229464095,16.9798309245294
0.0259412283344967,16.9811247586027
0.0287986467047548,16.9823663719331
0.0319864304179022,16.9835609749727
0.035553555433473,16.9847118354176
0.0395554628960297,16.9858222869111
0.0440493144908245,16.9868942534361
0.0491057151827747,16.9879311032785
0.0548017826495904,16.9889353699956
0.0612306461069848,16.9899102962595
0.0685002225904979,16.990858956711
0.076739616387038,16.991784684666
0.0861045333482115,16.9926910530537
0.0967839555623544,16.9935818553035
0.109011481491914,16.9944613053138
0.123078943956718,16.9953341000831
0.139357203674372,16.9962056356728
0.158328264352633,16.9970823725873
0.180638139639868,16.9979724800718
0.207082272625607,16.998883569903
0.237659962070507,16.999796184643
0.273125070345062,17.0007190611288
0.314522949228835,17.0016666982555
0.363622696721612,17.0026696420053
0.400715416396431,17.0033734057679
0.438975099098662,17.0040771695305
0.472996685488654,17.0047070088221
0.502904080454362,17.0052880599585
0.529170133693955,17.0058498061123
0.551702466155238,17.0064155812927
0.5698977818635,17.0070111843418
0.58232782254287,17.0076783421813
0.585418481835911,17.0084208870832
0.576616791839155,17.0091895073931
0.554584989737119,17.010006111137
0.519198839658245,17.0108498992296
0.470387204461188,17.0117196926412
0.40644492541641,17.0126360184659
0.356377165224067,17.0132586491465
0.301902406677268,17.013881279827
0.254416922309296,17.0143979715686
0.214351524212941,17.0148273116279
0.179483473991869,17.0152043872993
0.148432827311071,17.015549699422
0.120392175061319,17.0158756435203
0.0948165411254662,17.0161911911565
0.0712625215956542,17.0165045018497
0.049255257517386,17.0168256716629
0.0279852619614214,17.017174119177
0.00867802210523268,17.0175386917076
-0.00102224117095863,17.017746828121
-0.00980263626763932,17.0179549645344
-0.0165237840336082,17.0181304724142
-0.0226708065909191,17.0183065379453
-0.0288905296533223,17.0185038101109
-0.0349188807853567,17.0187187433127
-0.0405851785926817,17.0189491350898
-0.0457937242035448,17.0191941651447
-0.0504940809905415,17.0194539358879
-0.0546632499957544,17.019729212173
-0.0582951354069183,17.0200212954596
-0.061394091592461,17.0203319805618
-0.0639684457414947,17.0206635701625
-0.0661353511838862,17.0210428500202
-0.0676352583565905,17.0214240076659
-0.0686521145138077,17.0218364576774
-0.0692004079635894,17.0222860049408
-0.0692893347513984,17.0227796373027
-0.068922058040391,17.0233264271233
-0.0680905648752972,17.023939717885
-0.0667705690736364,17.0246374488626
-0.064910886531796,17.0254466155674
-0.0624030146357966,17.0264141074131
-0.0589655413135798,17.027647294761
-0.0548708663049427,17.0290649296104
-0.0508781193309517,17.0304375706776
-0.0470445116911637,17.0317707179701
-0.0433996966436832,17.0330665632849
-0.0399599667102465,17.0343258159639
-0.0367340349820423,17.0355484428852
-0.0337255098733619,17.036734060866
-0.0309341551428808,17.0378821441291
-0.0283566806851258,17.0389921321988
-0.0259873440078705,17.0400634820547
-0.0238184682013267,17.0410956872442
-0.0218409127433813,17.0420882760884
-0.0200445052006038,17.0430407956925
-0.0184184329266199,17.0439527854804
-0.0168635762543568,17.0448776647423
-0.0153669673041811,17.0458264026026
-0.0139327472941585,17.0468008039456
-0.0125647484032258,17.0478030717601
-0.0112665851887393,17.0488357998189
-0.0100415996483246,17.0499020709967
-0.00889280408063225,17.0510055868834
-0.00782282028756858,17.0521508434529
-0.00683381426413584,17.053343374962
-0.0059274246265213,17.0545901023565
-0.00510468145070629,17.0558998481491
-0.00436590925133526,17.0572841293227
-0.00371060196369301,17.0587584425076
-0.00313724487687504,17.0603444880377
-0.00266539900461531,17.0619858376484
-0.00228484591963906,17.063679887919
-0.00197974455293574,17.0654451404619
-0.00173538956428927,17.0673047885029
-0.00153760527141403,17.0692903523229
-0.00137213104002673,17.0714476037691
-0.0012235484807462,17.0738494416434
-0.00107280344715657,17.0766298850967
-0.000888458741049267,17.0801126815283
-0.000676330245339304,17.0838840291502
-0.00042900673750699,17.0879242974259
-0.00015043752252487,17.0921869725722
0.000154139154168633,17.0966955937373
0.000478200693292169,17.101474513791
0.000816534730966669,17.1065495787994
0.0011252846394339,17.1112999237065
0.00140452505098323,17.1157067952482
0.00167207561815573,17.1200222332285
0.00194617030198899,17.1245208695985
0.00225247782582519,17.1296135990178
0.00254677951687971,17.1345286339336
0.00284646582119469,17.1395246510552
0.00311127788983393,17.1438970391115
0.00335596248214839,17.1478856932243
0.00359490817468711,17.1517183784029
0.00383535712364422,17.1554996955699
0.00408219885045427,17.1592915572334
0.00433952895015891,17.1631382604957
0.0046112704873512,17.1670756490686
0.00490149916789601,17.1711351368694
0.00521473672282861,17.1753466656143
0.00555620182847774,17.1797402372415
0.00593213047817992,17.1843471430911
0.00635026443427974,17.1892011861975
0.00681258778700325,17.1942538464391
0.00729516172972757,17.1991918476124
0.00780916169811678,17.2040962836749
0.00835541201574033,17.2089289734005
0.00893972532934555,17.2136936951474
0.00956830472390018,17.2183891083226
0.010248826325426,17.2230178900858
0.0110029984680838,17.2276586769773
0.0118477553195562,17.2323274320154
0.0128029874058544,17.2370356112167
0.0138962358565616,17.2418093102528
0.0151697020720415,17.2467058472895
0.0167025048908176,17.2518675572942
0.0187131100484313,17.2577628651973
0.0205452826952021,17.2625564237336
0.0225048807165228,17.2673499822698
0.0240981174941406,17.2711986007049
0.0254108895467023,17.2745174567537
0.0265100789015283,17.2776068311187
0.0273978850663187,17.2806164125509
0.028015229577229,17.28347387916
0.0283649386488844,17.2862998145732
0.0284242499540212,17.2892397245343
0.028108470799109,17.2925652133642
0.0271194484924775,17.2969383263055
0.026225746338996,17.299658334583
0.0251658644641059,17.3023783428604
0.0240918948352084,17.3048537396981
0.0230174005284053,17.3071758421039
0.02194245150051,17.3094131691964
0.0208697053021093,17.3116037613628
0.0198027810099042,17.3137714274272
0.0187453806108967,17.3159328249718
0.0177010155386546,17.3181005842032
0.0166729369557005,17.3202848745044
0.0156641162515496,17.3224943108985
0.0146772540341585,17.324736500324
0.0137147886541286,17.3270184146072
0.0127789044912318,17.3293466597443
0.0118715465023001,17.3317276649539
0.0109944234497338,17.3341678595202
0.0101490199799406,17.336673804302
0.00933660186029764,17.3392523296848
0.00855822658372911,17.3419106552839
0.00779550093996762,17.3447306635802
0.00704844673039139,17.3477440679133
0.00632081413142265,17.3509740156342
0.00561650956858667,17.3544473810632
0.00493960842066648,17.3581952485557
0.00429429131362762,17.3622537599848
0.00368473967713236,17.3666653129185
0.0031149652456655,17.371480550615
0.00258867925775515,17.3767616963043
0.00210891304549912,17.382588985821
0.00167778110737236,17.3890692150593
0.00130402605537629,17.3961880700226
0.000992079343087338,17.4038868887003
0.000735291154407968,17.412289023967
0.000527403377501864,17.4215592685494
0.000372976047928025,17.4315592685494
0.000278427370896081,17.4407361801983
0.000206216770932846,17.4507361801983
0.000155920060271693,17.4607361801983
0.00012100103278854,17.4707361801983
9.71368409258527e-05,17.4807361801983
8.11714243774519e-05,17.4907361801983
7.07658705392942e-05,17.5007361801983
6.42383306598643e-05,17.5107361801983
6.04205158866505e-05,17.5207361801983
5.85174162972348e-05,17.5307361801983
5.79906718077591e-05,17.5407361801983
5.84745315241099e-05,17.5507361801983
5.97201448900868e-05,17.5607361801983
6.15594789984668e-05,17.5707361801983
6.38814577182731e-05,17.5807361801983
6.66156454622305e-05,17.5907361801983
6.97208737557586e-05,17.6007361801983
7.31773353045201e-05,17.6107361801983
7.69811957741877e-05,17.6207361801983
8.11410399269619e-05,17.6307361801983
8.56756487305367e-05,17.6407361801983
9.0612750078569e-05,17.6507361801983
9.59885042007353e-05,17.6607361801983
0.000101847575901656,17.6707361801983
0.00010824371407147,17.6807361801983
0.000115240811976121,17.6907361801983
0.000122914467179205,17.7007361801983
0.000131354103990168,17.7107361801983
0.000140665769812484,17.7207361801983
0.000150975775769578,17.7307361801983
0.000162435429202018,17.7407361801983
0.000175227211866666,17.7507361801983
0.00018957290906477,17.7607361801983
0.000205744416498866,17.7707361801983
0.000224078283330278,17.7807361801983
0.000244995557036093,17.7907361801983
0.000269029287928906,17.8007361801983
0.000296863317456762,17.8107361801983
0.000329388048864331,17.8207361801983
0.000367782390945533,17.8307361801983
0.000413637124255038,17.8407361801983
0.000469145810797077,17.8507361801983
0.000532314024519957,17.8600492763065
0.000603596894059491,17.8686503699468
0.000683974630046638,17.8765914481998
0.00077460995033615,17.8839236795611
0.000876831747372777,17.8906946234023
0.000992146325467238,17.8969484293821
0.00112225888019622,17.9027261298501
0.00126910006997619,17.9080658694777
0.00143485814838372,17.9130030484224
0.00162200970521879,17.9175705166578
0.00183336529533811,17.9217987967272
0.00207211543204386,17.925716298338
0.00234188900108975,17.9293494444296
0.00264682060663066,17.9327228256275
0.00299163677687339,17.9358594051448
0.00338176990088062,17.9387806984929
0.00382349338052868,17.9415069283159
0.00432411169011632,17.9440572475794
0.00489222404721049,17.9464499942813
0.0055380883565979,17.9487029755305
0.0062668637354637,17.9508145596255
0.00706937489272753,17.9527578025362
0.00795501102790002,17.9545646690911
0.00893777093997382,17.956266825924
0.0100389020066016,17.9578971485557
0.011294548803374,17.9594961104189
0.012818824395276,17.9611704700757
0.0149186836417959,17.9631519063113
0.0167669930838659,17.9646933885501
0.0187642752580822,17.966234870789
0.0204851814217437,17.96751761938
0.021998532655803,17.9686556835266
0.0233589314054901,17.9697305563409
0.0245740579898185,17.9707872636744
0.025629992447499,17.9718631121812
0.0264946150067448,17.9730034391556
0.0271047250075302,17.974287589743
0.0272915714950888,17.9759497300572
0.0268738824749854,17.9775290475959
0.0260763590897329,17.978956714831
0.0250133510493815,17.9803378753035
0.0237696192877584,17.9816958038926
0.0223686246855938,17.9830835376944
0.0208233067360626,17.9845407164467
0.0191416538684701,17.986105227207
0.0185416799628136,17.9866669276519
0.0179495528368405,17.9872286280968
0.0170339161393662,17.9881261315231
0.0150918359611614,17.9901712576773
0.0131759249179745,17.992429049033
0.0113344209181973,17.9949074635984
0.00964826290370393,17.9975512132569
0.0082890050743469,18.0000575199796
0.00714089179885998,18.0025541155831
0.00615471781106993,18.0051061879617
0.00531153395420986,18.0077386609426
0.00459864188144368,18.0104744956621
0.00400795083526384,18.0133376393586
0.00353591597590469,18.0163544731013
0.00318448441539464,18.019555266663
0.00296354669722754,18.0229759250588
0.00289582340904027,18.0265636930484
0.0029812964477959,18.0297692681945
0.00318855085354588,18.0326600530685
0.00350038057649776,18.0352825468977
0.00390845766706014,18.0376806323403
0.00441240841616617,18.0399014547932
0.00501973225687546,18.0419929820734
0.00574806413920071,18.0440071285776
0.0066316718769673,18.0460071793656
0.00773722115174307,18.0480827013231
0.00919156561631269,18.0503642795271
0.0111917771749573,18.0529894614748
0.0129197166165738,18.054936973828
0.0148891408773813,18.0568844861811
0.0168628069467917,18.058593645906
0.0188806571298999,18.0601261087645
0.0210321774136612,18.0615559422686
0.0233667378732503,18.0629079012898
0.0259413564722159,18.064201733051
0.0287987894110097,18.0654433439351
0.031986590866498,18.0666379450585
0.0355537353184508,18.0677888034429
0.0395556652455209,18.0688992531003
0.0440495421563561,18.0699712178648
0.0491059716745329,18.0710080660842
0.0548020721141179,18.0720123313354
0.0612309733236003,18.0729872562796
0.0685005933601813,18.0739359155831
0.0767400374617293,18.0748616425469
0.0861050130038499,18.0757680101232
0.0967845039832218,18.0766588117605
0.109012111266313,18.0775382613738
0.123079670999765,18.0784110559934
0.139358048465727,18.0792825917252
0.158329253861179,18.0801593291375
0.180639310890056,18.0810494375909
0.207083626041203,18.0819605273855
0.23766152943962,18.0828731424435
0.273126893376817,18.0837960197792
0.3145250897713,18.0847436587157
0.363625275481026,18.0857466065634
0.400717766281939,18.0864503638797
0.438977123908797,18.0871541211961
0.472998442279952,18.0877839565824
0.50290562301266,18.0883650059508
0.529171471769554,18.0889267517444
0.551703580820033,18.0894925278559
0.569898621748689,18.0900881335401
0.582328266771779,18.0907552973325
0.585418289643232,18.0914978431017
0.576615909343288,18.092266465514
0.554583322333319,18.0930830725121
0.519196517098965,18.0939268600536
0.470384043395385,18.09479665659
0.406441064369625,18.0957129829128
0.356373759035742,18.09633560351
0.301899671059302,18.0969582241072
0.254414697549229,18.0974749094992
0.21434962382856,18.0979042460679
0.17948179831556,18.098281319697
0.148431323407672,18.0986266305663
0.120390810062762,18.0989525739283
0.0948152907899632,18.0992681212451
0.0712613637852763,18.0995814320532
0.0492541638766155,18.0999026026229
0.0279841686031096,18.1002510524722
0.00867782210534926,18.1006156099547
-0.00102236624613735,18.100823745101
-0.00980269820326431,18.1010318802472
-0.0165238353638031,18.101207387988
-0.0226708598928099,18.1013834537217
-0.0288905822459269,18.1015807260543
-0.0349189308097786,18.1017956593974
-0.0405852249895478,18.1020260513042
-0.0457937663980186,18.1022710814866
-0.0504941186991754,18.1025308523615
-0.054663283113285,18.1028061287872
-0.0582951639362999,18.1030982122275
-0.0613941156083446,18.1034088975009
-0.0639684652210715,18.1037404872946
-0.0661353625202067,18.1041197666702
-0.0676352663813573,18.1045009245047
-0.0686521193653283,18.1049133747456
-0.0692004097163616,18.1053629222788
-0.0692893334468551,18.1058565549622
-0.0689220536703214,18.1064033451719
-0.0680905573341893,18.1070166364257
-0.0667705581279533,18.1077143680339
-0.0649108717066437,18.1085235355902
-0.062402994886269,18.1094910287047
-0.0589655134716724,18.110724218479
-0.0548708387767842,18.1121418529717
-0.0508780925765269,18.1135144937606
-0.047044485980584,18.1148476407952
-0.0433996721276299,18.1161434858594
-0.0399599434769921,18.1174027382885
-0.0367340130804501,18.1186253649576
-0.0337254893234919,18.1198109826825
-0.0309341359420083,18.1209590656857
-0.0283566628118972,18.1220690534914
-0.0259873274258421,18.1231404030795
-0.0238184528621127,18.1241726079978
-0.0218408985896268,18.1251651965676
-0.0200444921687288,18.1261177158942
-0.0184184209493168,18.1270297054013
-0.0168635645719836,18.1279545848213
-0.0153669559535971,18.1289033228478
-0.0139327363048406,18.1298777243707
-0.0125647378035585,18.1308799923811
-0.011266575005601,18.1319127206548
-0.0100415899066962,18.1329789920702
-0.00889279480318994,18.1340825082218
-0.00782281149426335,18.1352277650897
-0.00683380597172652,18.1364202969386
-0.00592741684807194,18.1376670247251
-0.00510467419500573,18.1389767709773
-0.00436590252218895,18.1403610526994
-0.00371059575898422,18.1418353665548
-0.00313723918715351,18.14342141293
-0.00266539397979897,18.1450627628326
-0.00228484144740349,18.1467568135252
-0.00197974053546564,18.1485220666284
-0.00173538590879298,18.1503817154124
-0.00153760188699847,18.1523672802309
-0.00137212783266218,18.154524533061
-0.00122354534339361,18.1569263729669
-0.00107280023313251,18.1597068197528
-0.000888455144331431,18.1631896232963
-0.000676326495874757,18.1669609720559
-0.000429002689630402,18.1710012435869
-0.000150433184127983,18.1752639223297
0.000154143746306973,18.179772547456
0.000478205497617084,18.1845514718524
0.000816539720184915,18.1896265416201
0.00112528902115033,18.1943768790479
0.00140452910919176,18.1987837470249
0.00167207963319023,18.203099185566
0.00194617461889865,18.2075978279536
0.00225248176031258,18.2126905516671
0.00254678337101627,18.2176055854828
0.00284646988577043,18.222601605916
0.00311128144583121,18.2269739849285
0.00335596585178926,18.2309626352856
0.00359491150696162,18.234795318996
0.00383536050653178,18.2385766359121
0.00408220235073739,18.2423684981312
0.00433953262790997,18.2462152025707
0.0046112744023437,18.2501525928467
0.0049015033841732,18.2542120828336
0.00521474131267602,18.2584236142379
0.00555620687650042,18.2628171890097
0.00593213608707703,18.267424098519
0.00635027073426514,18.2722781458517
0.00681259430724366,18.2773308041586
0.00729516867288951,18.2822688051923
0.00780916904154991,18.2871732402642
0.00835541983472343,18.2920059290675
0.00893973369875081,18.2967706498298
0.00956831374411268,18.3014660620636
0.010248836110788,18.3060948429223
0.0110030094027381,18.3107356303291
0.0118477676087627,18.3154043857746
0.0128030013746205,18.3201125656644
0.0138962519574634,18.3248862658913
0.0151697210539659,18.3297828052885
0.0167025283409674,18.3349445207748
0.0187131436239072,18.3408398468269
0.0205453079775161,18.3456333768081
0.0225048952472058,18.3504269067892
0.0240981283963012,18.3542755169779
0.0254108986325236,18.3575943702936
0.0265100864391164,18.3606837436087
0.0273978905503579,18.3636933234019
0.0280152331135068,18.3665507893128
0.0283649401900615,18.3693767249716
0.0284242491868965,18.372316636471
0.0281084666045254,18.3756421300526
0.0271194411857092,18.3800152408011
0.0262257383596596,18.3827352462
0.025165856500384,18.3854552515989
0.0240918869053797,18.3879306468509
0.0230173925938041,18.3902527484244
0.0219424435703952,18.392490075056
0.0208696974012424,18.3946806669771
0.0198027731657803,18.3968483329404
0.0187453728502589,18.3990097304894
0.0177010078864396,18.4011774898081
0.0166729294347887,18.4033617802653
0.0156641088828381,18.4055712168748
0.0146772468364547,18.4078134065694
0.0137147816444928,18.4100953211718
0.012778897684811,18.4124235666761
0.0118715399123995,18.4148045723008
0.0109944170881265,18.4172447673302
0.0101490138566138,18.4197507126251
0.00933659598376959,18.4223292385732
0.00855822096092516,18.4249875647937
0.00779549541643831,18.4278075744342
0.00704844133493553,18.4308209802614
0.00632080889183665,18.4340509296594
0.00561650451406958,18.4375242969766
0.00493960358146718,18.4412721666019
0.00429428672049006,18.4453306804491
0.00368473536024869,18.4497422361377
0.00311496123322907,18.4545574769964
0.0025886755758278,18.4598386263594
0.0021089097128462,18.4656659202205
0.00167777813649188,18.4721461547039
0.00130402356078491,18.4792650135237
0.000992077274969434,18.4869638368329
0.000735289464953532,18.4953659777786
0.000527402022892358,18.5046362294186
0.000372975152961754,18.5146362294186
0.000278427303929994,18.5238130799796
0.000206216724487342,18.5338130799796
0.00015592002802539,18.5438130799796
0.000121001012535941,18.5538130799796
9.71368304540804e-05,18.5638130799796
8.11714211884603e-05,18.5738130799796
7.07658724247364e-05,18.5838130799796
6.42383360055472e-05,18.5938130799796
6.04205236396028e-05,18.6038130799796
5.85174258008845e-05,18.6138130799796
5.79906826505017e-05,18.6238130799797
5.84745434433016e-05,18.6338130799797
5.97201577204588e-05,18.6438130799797
6.15594926444579e-05,18.6538130799797
6.3881472136933e-05,18.6638130799797
6.66156606510604e-05,18.6738130799797
6.97208897438284e-05,18.6838130799797
7.3177352146379e-05,18.6938130799797
7.69812135461609e-05,18.7038130799797
8.11410587253592e-05,18.7138130799797
8.56756686713482e-05,18.7238130799797
9.06127712983605e-05,18.7338130799797
9.59885268585975e-05,18.7438130799797
0.000101847600182185,18.7538130799797
0.00010824374018885,18.7638130799797
0.000115240840179478,18.7738130799797
0.000122914497759483,18.7838130799797
0.000131354137288917,18.7938130799797
0.000140665806233086,18.8038130799797
0.000150975815791667,18.8138130799797
0.000162435473400135,18.8238130799797
0.00017522726093462,18.8338130799797
0.0001895729638478,18.8438130799797
0.000205744478036609,18.8538130799797
0.000224078352914985,18.8638130799797
0.000244995636292653,18.8738130799797
0.00026902937892672,18.8838130799797
0.000296863422869005,18.8938130799797
0.000329388172199366,18.9038130799797
0.000367782536890919,18.9138130799797
0.000413637299202221,18.9238130799797
0.000469146023665278,18.9338130799797
0.000532314265205091,18.9431261735222
0.000603597165187458,18.9517272646942
0.000683974935397274,18.9596683406665
0.000774610294329548,18.9670005699247
0.0008768321350569,18.9737715118275
0.000992146762575785,18.980025316022
0.0011222593732315,18.985803014847
0.00126910062631732,18.9911427529637
0.0014348587763972,18.9960799305202
0.00162201041439963,19.0006473974812
0.0018333660964677,19.0048756763821
0.00207211633740502,19.008793176923
0.0023418900246533,19.0124263220363
0.00264682176436297,19.0157997023414
0.00299163808708333,19.0189362810459
0.00338177138465554,19.0218575736564
0.00382349506233441,19.0245838028125
0.0043241135985859,19.0271341214766
0.00489222621625097,19.029526867644
0.00553809082701427,19.0317798484227
0.00626686645549569,19.0338914318548
0.00706937789026469,19.0358346742201
0.00795501434486668,19.0376415403457
0.00893777463725072,19.039343696863
0.0100389061807585,19.0409740193057
0.0112945536303892,19.0425729811544
0.012818830554223,19.0442473413917
0.014918693197583,19.0462287797087
0.0167670007603897,19.0477702596984
0.0187642804038989,19.0493117396881
0.0204851856567954,19.0505944875658
0.0219985364190493,19.0517325514532
0.023358934773403,19.0528074241675
0.0245740609493065,19.0538641315042
0.0256299949382537,19.0549399801184
0.0264946169111736,19.05608030735
0.0271047260800581,19.0573644585084
0.0272915708665728,19.0590266006775
0.0268738796979615,19.0606059187361
0.0260763546779441,19.062033586141
0.0250133457085748,19.0634147463903
0.0237696131974886,19.0647726750102
0.0223686179173461,19.0661604090426
0.0208232993375958,19.0676175881903
0.0191416458613394,19.0691820995292
0.0185416695849174,19.0697438022549
0.0179495403051566,19.0703055049805
0.0170338822062762,19.0712030303498
0.0150918030239683,19.0732481590588
0.0131758944991278,19.075505951992
0.0113343919524834,19.0779843703043
0.00964823968229183,19.0806281175068
0.00828898637491307,19.0831344220351
0.00714087570771566,19.085631018214
0.00615470395589008,19.0881830916211
0.0053115221014448,19.0908155659758
0.00459863186993049,19.093551402416
0.00400794256688981,19.096414548206
0.00353590942030748,19.0994313844618
0.00318447963082973,19.1026321810266
0.00296354387879005,19.1060528430151
0.00289582288819578,19.1096406059786
0.00298129767073589,19.112846177105
0.00318855351124083,19.1157369585024
0.00350038449593483,19.1183594493736
0.00390846279425486,19.1207575324838
0.00441241477196858,19.1229783531091
0.00501973997004384,19.1250698791297
0.00574807348546955,19.1270840250222
0.00663168342144254,19.1290840761035
0.00773723589457597,19.1311595994899
0.00919158544859268,19.1334411808018
0.0111918015068429,19.1360663633186
0.0129197400236264,19.1380138710693
0.0148891628000577,19.13996137882
0.0168628287601718,19.1416705358743
0.0188806801492689,19.1432029973385
0.0210322022330456,19.1446328298244
0.0233667650743287,19.1459847880714
0.0259413867987003,19.1472786192854
0.0287988231840082,19.1485202295905
0.0319866288373172,19.1497148302605
0.0355537778877706,19.1508656881573
0.0395557131299836,19.1519761373802
0.0440495960305879,19.153048101728
0.0491060323690795,19.1540849495633
0.0548021406100842,19.1550892144675
0.0612310507517375,19.1560641390994
0.0685006810930207,19.1570127981312
0.0767401370966629,19.1579385248604
0.0861051264988737,19.1588448922445
0.0967846337477295,19.1597356937368
0.109012260278368,19.1606151432559
0.123079843024392,19.16148793784
0.139358248347653,19.1623594736051
0.15832948797993,19.163236211135
0.180639588003491,19.1641263198173
0.207083946252284,19.165037409603
0.237661900268428,19.165950024736
0.273127324689956,19.1668729022724
0.314525596199234,19.1678205416367
0.363625885576974,19.1688234904533
0.400718322246984,19.1695272462446
0.438977602987656,19.1702310020359
0.472998857968242,19.1708608364982
0.502905988032309,19.1714418854481
0.529171788426606,19.1720036311563
0.551703844637111,19.1725694074879
0.569898820574362,19.1731650137953
0.582328372011755,19.1738321789958
0.585418244341943,19.17457472497
0.57661570075271,19.1753433478796
0.554582928072009,19.1761599556474
0.519195967879719,19.177003743058
0.470383295850583,19.1778735403332
0.406440151262781,19.1787898667736
0.356372953491911,19.1794124849861
0.301899024095197,19.1800351031986
0.254414171397119,19.1805517870887
0.214349174387912,19.1809811228319
0.17948140201608,19.181358195978
0.148430967730614,19.1817035065507
0.120390487235232,19.1820294497386
0.0948149950789194,19.1823449969799
0.0712610899549288,19.1826583078151
0.0492539052205129,19.1829794785637
0.0279839100099278,19.1833279289654
0.00867777479911513,19.1836924828888
-0.00102239582749775,19.1839006177353
-0.00980271284786442,19.1841087525818
-0.016523847499844,19.1842842602896
-0.0226708724956999,19.1844603260712
-0.0288905946815219,19.1846575984433
-0.0349189426383437,19.1848725318198
-0.0405852359605012,19.1851029237573
-0.0457937763753823,19.1853479539698
-0.0504941276159297,19.1856077248758
-0.0546632909445107,19.1858830013347
-0.0582951706826859,19.1861750848113
-0.0613941212875323,19.1864857701252
-0.0639684698277483,19.1868173599645
-0.0661353652040752,19.1871966392267
-0.0676352682816129,19.1875777971059
-0.0686521205146584,19.1879902474011
-0.0692004101324101,19.1884397949981
-0.0692893331394381,19.1889334277575
-0.0689220526375118,19.1894802180594
-0.0680905555510297,19.1900935094296
-0.0667705555391784,19.1907912411871
-0.0649108681998601,19.1916004089449
-0.0624029902141281,19.1925679023599
-0.0589655068841096,19.1938010927086
-0.054870832264048,19.1952187271169
-0.0508780862474717,19.19659136784
-0.0470444798991187,19.1979245148136
-0.0433996663293792,19.1992203598185
-0.039959937982804,19.2004796121885
-0.0367340079018484,19.2017022387979
-0.0337254844651933,19.2028878564623
-0.0309341314033229,19.204035939404
-0.028356658587734,19.2051459271472
-0.0259873235075414,19.206217276672
-0.0238184492381897,19.2072494815262
-0.0218408952464773,19.2082420700311
-0.0200444890912807,19.209194589292
-0.0184184181216199,19.2101065787327
-0.0168635618143465,19.2110314581901
-0.0153669532747265,19.2119801962559
-0.0139327337117013,19.2129545978213
-0.0125647353028503,19.2139568658781
-0.0112665726036642,19.2149895942026
-0.0100415876094253,19.2160558656742
-0.00889279261593713,19.2171593818885
-0.00782280942172976,19.2183046388269
-0.00683380401786276,19.2194971707562
-0.00592741501595271,19.2207438986355
-0.00510467248669328,19.2220536449963
-0.0043659009385675,19.2234379268482
-0.00371059429953457,19.2249122408622
-0.00313723784962261,19.2264982874373
-0.00266539279962234,19.2281396374089
-0.00228484039798967,19.2298336882013
-0.00197973959365684,19.231598941437
-0.00173538505261983,19.2334585903967
-0.00153760109494,19.2354441554515
-0.00137212708245479,19.2376014086089
-0.00122354460969382,19.2400032489953
-0.00107279948121339,19.2427836965694
-0.000888454301762483,19.246266501795
-0.000676325617008966,19.2500378508238
-0.000429001740408425,19.2540781231181
-0.000150432166483676,19.2583408027043
0.00015414482363278,19.2628494287594
0.000478206624779926,19.2676283541742
0.000816540890719966,19.2727034250579
0.00112529004924115,19.2774537607322
0.00140453006141742,19.2818606278735
0.00167208057528085,19.286176066546
0.00194617563175965,19.2906747103445
0.00225248268352076,19.2957674327203
0.00254678427540074,19.300682466278
0.00284647083951464,19.3056784874877
0.00311128228036452,19.3100508643799
0.00335596664265803,19.3140395138564
0.00359491228909889,19.3178721972226
0.00383536130056764,19.3216535140799
0.00408220317233281,19.3254453764292
0.00433953349115354,19.3292920811447
0.00461127532125501,19.33322947182
0.00490150437377419,19.3372889623194
0.00521474238992261,19.3415004943472
0.00555620806123863,19.3458940698562
0.00593213740339767,19.3505009802235
0.00635027221271338,19.3553550285469
0.00681259583743021,19.3604076864001
0.00729517030234843,19.3653456874008
0.00780917076498318,19.3702501222402
0.00835542166979759,19.375082810827
0.00893973566304045,19.3798475313583
0.00956831586117379,19.3845429433712
0.0102488384074536,19.3891717240176
0.0110030119691663,19.3938125115453
0.0118477704931256,19.3984812670864
0.0128030046531957,19.4031894471379
0.0138962557364721,19.4079631476442
0.0151697255091758,19.4128596875955
0.016702533844908,19.4180214043683
0.0187131515043537,19.4239167346801
0.0205453139115208,19.4287102579592
0.0225048986577519,19.4335037812384
0.0240981309551999,19.4373523894916
0.0254109007651041,19.4406712421658
0.0265100882083051,19.4437606152344
0.0273978918375494,19.4467701946429
0.0280152339435304,19.44962766039
0.0283649405518059,19.4524535961064
0.0284242490068479,19.4553935079669
0.0281084656199989,19.4587190026637
0.027119439470705,19.4630921128977
0.0262257364867927,19.4658121176209
0.0251658546311807,19.4685321223441
0.0240918850441312,19.4710075172239
0.0230173907314356,19.4733296186021
0.0219424417090793,19.4755669451255
0.0208696955467923,19.477757536989
0.0198027713246487,19.4799252029286
0.0187453710287234,19.4820866004787
0.0177010060903524,19.4842543598179
0.0166729276695199,19.4864386503116
0.0156641071532927,19.4886480869717
0.014677245147048,19.4908902767295
0.0137147799992288,19.4931721914067
0.0127788960872455,19.4955004369973
0.0118715383656555,19.4978814427194
0.0109944155949673,19.5003216378574
0.0101490124193848,19.5028275832728
0.00933659460446939,19.5054061093536
0.00855821964117945,19.5080644357199
0.00779549411999374,19.5108844456759
0.00704844006855143,19.5138978518539
0.00632080766203754,19.5171278016454
0.00561650332770898,19.5206011694058
0.00493960244564503,19.5243490395317
0.004294285642422,19.5284075539465
0.0036847343470214,19.5328191102818
0.00311496029145985,19.5376343518827
0.0025886747116324,19.5429155021078
0.00210890893062925,19.5487427969886
0.00167777743918734,19.5552230327033
0.00130402297527225,19.5623418924282
0.000992076789556509,19.5700407168244
0.000735289068418887,19.578442859103
0.000527401704951165,19.5877131123996
0.000372974942890898,19.5977131123996
0.000278427288064745,19.6068899486368
0.000206216713477346,19.6168899486368
0.000155920020375424,19.6268899486368
0.000121001007719844,19.6368899486368
9.71368279465253e-05,19.6468899486368
8.11714203991011e-05,19.6568899486368
7.07658728325215e-05,19.6668899486368
6.42383372297282e-05,19.6768899486368
6.04205254317135e-05,19.6868899486368
5.85174280058756e-05,19.6968899486368
5.79906851710815e-05,19.7068899486368
5.84745462173231e-05,19.7168899486368
5.97201607087566e-05,19.7268899486368
6.1559495824313e-05,19.7368899486368
6.38814754980313e-05,19.7468899486368
6.66156641926186e-05,19.7568899486368
6.97208934724942e-05,19.7668899486368
7.31773560747909e-05,19.7768899486368
7.69812176920712e-05,19.7868899486368
8.11410631112067e-05,19.7968899486368
8.56756733241816e-05,19.8068899486368
9.06127762500431e-05,19.8168899486368
9.59885321462595e-05,19.8268899486368
0.000101847605848917,19.8368899486368
0.000108243746284657,19.8468899486368
0.000115240846762527,19.8568899486368
0.000122914504897707,19.8668899486368
0.00013135414506207,19.8768899486368
0.000140665814735362,19.8868899486368
0.000150975825135069,19.8968899486368
0.000162435483718828,19.9068899486368
0.000175227272390625,19.9168899486368
0.000189572976638497,19.9268899486368
0.000205744492404781,19.9368899486368
0.000224078369162403,19.9468899486368
0.000244995654798773,19.9568899486368
0.000269029400174799,19.9668899486368
0.000296863447483299,19.9768899486368
0.000329388200999168,19.9868899486368
0.000353965333286434,19.9934449743184
0.000381414028004614,20
