ecg,time
0.000265927712890344,15.0088808376167
0.000285712658080855,15.0188808376167
0.000310586507078905,15.0288808376167
0.000341181287560522,15.0388808376167
0.000378575539686109,15.0488808376167
0.00042441562199232,15.0588808376167
0.000478626095283003,15.0684721061033
0.000540486876356539,15.0773484260455
0.000610788611046626,15.0855512268502
0.000690593511844526,15.0931316221214
0.000781156293492697,15.1001374559396
0.000883916095028937,15.1066131461719
0.00100050938242112,15.1125999758028
0.00113279217537676,15.1181363483948
0.00128286838161208,15.1232579961141
0.00145312118619697,15.1279981724987
0.00164625118607099,15.1323878391565
0.0018653200314807,15.1364558445355
0.00211380430715022,15.1402290847179
0.00239565811809084,15.1437326577024
0.00271539331853027,15.1469900259628
0.0030781791557255,15.1500231853634
0.0034899705023496,15.1528528368983
0.00395767850825179,15.1554985808081
0.00448940261320725,15.1579791473299
0.00509475850125206,15.1603126797395
0.00578536182390852,15.1625171163062
0.00655132526444945,15.1645519317754
0.00739743150760697,15.1664376818024
0.00833626815749087,15.1682072450452
0.00938678250302455,15.1698941003212
0.0105803240458519,15.1715375538671
0.0119924601366936,15.1732127465928
0.0138670520988836,15.1751258166893
0.0156782934710194,15.176750955814
0.0176596086410288,15.1783760949386
0.0194072367796887,15.1797439114496
0.0209248530932757,15.1809300637875
0.0222838895924139,15.1820350388422
0.0234999187559345,15.183110461716
0.0245633828817167,15.1841944311666
0.0254472898481334,15.185328834453
0.0260993865511978,15.1865795850767
0.0263981381648423,15.1881080432124
0.0260690821413604,15.1899019084919
0.0251133879346549,15.1916957737715
0.0239918498352936,15.1931471591765
0.0227292772545203,15.1945246341246
0.021319265470633,15.1959263039206
0.0197697005771455,15.1973965500749
0.0180873234235297,15.1989735920525
0.0167285853677072,15.2002739102741
0.0154442881247749,15.2015742284957
0.0129037351098686,15.2044223447008
0.0106600674374355,15.2073539753414
0.00890313374285058,15.2100453798585
0.00749997475535518,15.2125512898665
0.00629639526433693,15.2150537756891
0.00525720447341538,15.2175786829317
0.00436202846640127,15.2201300463249
0.00355019707827656,15.2228663777156
0.00283854185845502,15.2257348686238
0.00239280679149983,15.2278435349683
0.00200331360937496,15.2299522013127
0.00169661421729721,15.231838777939
0.00144027407459275,15.2336103835495
0.00121050460232674,15.2353875241045
0.000992070622339761,15.2372849290128
0.000768429369546423,15.239495543091
0.000494695601509907,15.2427003157629
0.000226328994387737,15.2466331223495
4.73988807265423e-05,15.2499513313662
-9.34252478180889e-05,15.2532151203014
-0.000218464143158306,15.2569669559642
-0.000328208153728676,15.2617742937464
-0.000386176109206284,15.2669771883248
-0.000379466453072332,15.2716057130352
-0.000314721932801337,15.2758205391781
-0.000192634190118157,15.2796455960689
-1.15577388254059e-05,15.283123626731
0.000231960373061215,15.2863018222158
0.000543544271490412,15.2892321207972
0.000931481847459606,15.2919666639667
0.00140865836995143,15.2945623904683
0.00199527030698529,15.2970820509279
0.0027260182656913,15.2996060048393
0.00366788902251733,15.302256718141
0.00492305346460432,15.3051575764376
0.00648184300133276,15.3081404129479
0.00803379021979425,15.3106437953467
0.00951316926424197,15.3126960625226
0.0110232575634308,15.3145141683923
0.0126068683214807,15.3161701775776
0.0143427313369077,15.3177434243639
0.0162435968328028,15.3192315942695
0.0183591177270488,15.3206588691241
0.020718994115557,15.3220281662298
0.0233604192951992,15.3233448573804
0.026323554925113,15.324613099117
0.0296456861202479,15.3258339492883
0.0333780992207179,15.3270120376702
0.0375742015590038,15.3281501226166
0.0422934519511858,15.3292506603944
0.0476118865248912,15.3303177541952
0.0536160986781002,15.3313548715423
0.0604098062579534,15.3323657283286
0.0681177447149317,15.3333542218538
0.0768954813908281,15.3343249306887
0.0869375103218267,15.3352829693433
0.0984922960718391,15.3362342844892
0.111886936751518,15.3371861810091
0.127568137399582,15.3381481333873
0.146177637081747,15.3391333258192
0.168012875761493,15.3401323540068
0.193358734649981,15.341139474398
0.222940487516433,15.3421676862221
0.257777510156622,15.3432365489014
0.299471605229839,15.3443802782289
0.334093495647831,15.3452583979651
0.370145053410089,15.3461365177014
0.402255362899502,15.3469147829429
0.430364577231397,15.3476202636195
0.454889677361685,15.3482863298016
0.475814280813022,15.3489371082262
0.492742702556574,15.3495940252534
0.504811888899293,15.3502815639445
0.510306206474476,15.3510361221013
0.506211566303658,15.3518547803755
0.490767633185331,15.35269268759
0.462635129735656,15.3535645858303
0.420151081317901,15.3544810539163
0.361504101140547,15.3554515341621
0.319780378543828,15.3560403259565
0.27431269252173,15.356629117751
0.233534194114122,15.3571309981563
0.198099476536574,15.3575594111095
0.166683587951803,15.3579417367794
0.138387852909586,15.358295038774
0.112643472095962,15.3586303367203
0.0890412656475625,15.3589559924701
0.0672300645913719,15.3592798395983
0.0468172406884667,15.3596116777139
0.0271229802148633,15.3599700816086
0.00544082552412643,15.3604311389305
-0.00271880601183745,15.3606312393213
-0.0101570334110717,15.3608313397121
-0.0164584407572897,15.3610175241429
-0.0223934099196542,15.3612105548235
-0.0283035105963584,15.3614245360756
-0.0339639473388369,15.3616561238216
-0.0392356138904841,15.3619034363711
-0.0440424022725308,15.3621659116743
-0.0483457121962714,15.3624438687258
-0.052122214026469,15.3627382698838
-0.0553533900535859,15.3630496877379
-0.0580433654506472,15.3633789389962
-0.060224747603808,15.3637303673575
-0.0619111765466486,15.3641070768391
-0.0631166891603424,15.3645128599834
-0.0638543823346764,15.3649524050322
-0.0641348959984282,15.3654315673006
-0.0639647083571036,15.36595777722
-0.0633434110479126,15.3665410579009
-0.0622583436781167,15.36719567009
-0.0606807119345021,15.3679406747711
-0.0585527365250719,15.3688053544906
-0.0557527824457452,15.3698416923279
-0.0519520727210772,15.3711753838427
-0.0479302060185698,15.3725580507143
-0.0440574074847102,15.3738956235414
-0.04037543721003,15.3751921987418
-0.0369043696625145,15.3764498697804
-0.0336540175373982,15.3776694080631
-0.0306279348354479,15.3788509143877
-0.027825315814943,15.3799941667006
-0.0252420868885717,15.3810988026799
-0.0228716615021718,15.3821644126545
-0.0207055394760158,15.3831905815429
-0.0187338205495777,15.384176900109
-0.0169456571489077,15.3851229565288
-0.0153280046591511,15.3860292661517
-0.0137665444561223,15.3869585075891
-0.0122664467372049,15.3879117977421
-0.010831720541322,15.3888910817843
-0.0094662058089951,15.3898986274297
-0.00817351614023495,15.3909371082208
-0.0069569871754408,15.3920097059773
-0.00581962219273129,15.3931202472438
-0.00476403485953434,15.3942733888777
-0.00379238860669482,15.3954748768503
-0.00290633139884111,15.3967319178966
-0.00210692344724636,15.3980537322795
-0.00139455313472002,15.399452411808
-0.000768831871657396,15.4009443245592
-0.000228448566122072,15.40255257785
0.000204098742644382,15.4042020316243
0.000545498236751999,15.4059075484391
0.000811146224479383,15.4076878968069
0.00101541232028193,15.4095674791751
0.00117205577458091,15.4115797887243
0.00129480037364673,15.4137741452088
0.00139833040700029,15.4162307189702
0.00150065260196638,15.4191021086188
0.00163217821384604,15.4227870796964
0.00178559851644422,15.4265949497095
0.00197197858073372,15.4306220429016
0.00217227726630785,15.4345242908939
0.00238354592000956,15.4383877157905
0.00260362309750307,15.4422725842544
0.00283158245889754,15.4462230648659
0.00306779551280771,15.4502756096615
0.00331376614464239,15.4544631820535
0.0035719262661198,15.4588177014193
0.00384547083592805,15.4633717333737
0.00413830338650179,15.4681600223397
0.0044551571336627,15.4732208688315
0.00480198784336653,15.4785974538269
0.0051617117149139,15.4839688829824
0.00553190459208658,15.489259025668
0.00591550477877927,15.4944688203134
0.0063152749225949,15.4995914118622
0.00673533767269102,15.5046343300556
0.00718016532542434,15.5096047185942
0.00765464154903616,15.5145094013117
0.00816397357424307,15.5193529500863
0.00871377875095217,15.5241378162049
0.00931018053703431,15.5288645168064
0.00995993596459152,15.5335321273096
0.010674220637775,15.5381614018925
0.011476579154626,15.5428268077562
0.0123824008880782,15.5475227086804
0.0134154000389554,15.5522688057913
0.0146097424884451,15.5571045770766
0.0160241337340862,15.5621251281536
0.0177918317675427,15.5675983898324
0.0202101807875747,15.5741159670362
0.0217951225889395,15.5780227333473
0.0234267361039579,15.5819294996585
0.0248532908559186,15.5854102504472
0.0260562098208826,15.5885731908567
0.0270539206398108,15.5916003946567
0.0278066929738805,15.5945059072825
0.0282933220091163,15.5973217063025
0.0285053812193338,15.6001738257648
0.028397470686648,15.6032457085193
0.0277933207809177,15.6070388610096
0.0269672780169723,15.6100949770273
0.0258928076274701,15.6131510930449
0.0248115188175657,15.6157863774022
0.0237376624905351,15.6181823365948
0.0226634383670268,15.6204567004241
0.0215892979111859,15.6226645931582
0.0205184233111251,15.624836974381
0.0194545134800087,15.6269941836834
0.0184011920701143,15.6291510064777
0.0173618474229504,15.6313189919093
0.016339591421469,15.6335076919879
0.0153372576137781,15.6357253932212
0.014357410526623,15.6379795877653
0.0134023553359806,15.6402773053367
0.0124741522561949,15.6426253503975
0.0115746239244441,15.6450305053263
0.0107053645435448,15.6474997019031
0.00986775493100011,15.6500401615443
0.00906296435295968,15.6526595705763
0.00829032101756861,15.6553722320482
0.00753087608486663,15.6582672917345
0.00678851607178837,15.661365367754
0.00606703978978892,15.6646914141581
0.00537044697211984,15.6682742666879
0.00470289753835095,15.6721473667014
0.00406863307670427,15.6763497513265
0.00347185187083325,15.6809275086473
0.00291651859473919,15.6859362095675
0.0024060851962741,15.6914455334321
0.0019432537696013,15.6975467521604
0.00152993506303264,15.70436294604
0.00118230791891029,15.7117019462663
0.000931215928446691,15.7189865526226
0.000747893633411323,15.7262988756916
0.000584076602845313,15.7350933544966
0.000460833362079371,15.7442855948672
0.000367583240824642,15.7542855948672
0.000305580128900266,15.7642855948672
0.000265996672021932,15.7742855948672
0.000242403350835764,15.7842855948672
0.000230268749855963,15.7942855948672
0.000226531304167427,15.8042855948672
0.000229204344103832,15.8142855948672
0.000237061046864359,15.8242855948672
0.0002494176403802,15.8342855948672
0.00026600173841494,15.8442855948672
0.000286883931789146,15.8542855948672
0.000312456770076991,15.8642855948672
0.000343455579925566,15.8742855948672
0.000381025877196169,15.8842855948672
0.000426853485847046,15.8942855948672
0.000480508601447451,15.9038141227451
0.000541563090302502,15.9126359225056
0.000610825334437981,15.9207934688934
0.000689346439394647,15.9283364226506
0.000778357224222737,15.9353113243029
0.00087926435046449,15.9417614936967
0.000993664781699717,15.9477272834316
0.00112336825236151,15.9532463018091
0.00127042515495945,15.9583535962239
0.00143715694369586,15.9630818272831
0.00162619314864267,15.9674614392054
0.00184051311006119,15.9715208240423
0.00208349753181334,15.9752864700245
0.00235898797024483,15.9787831054991
0.00267136251628709,15.9820338508183
0.00302562940445783,15.9850603754833
0.00342754623128005,15.9878830572821
0.00388377747269299,15.9905211607347
0.00440210632118337,15.9929930460751
0.00499173025577455,15.9953164207466
0.00566369070286381,15.9975086713991
0.00641400567256082,15.9995439571861
0.00724165785107626,16.0014243789211
0.00815761794932439,16.0031815787879
0.00917816430148833,16.0048471048107
0.0103290144732801,16.0064556697548
0.0116577206220425,16.0080553721665
0.0133445957746149,16.0098060731366
0.0159079838906892,16.0120783521728
0.0175828797346838,16.0134082206637
0.0193432832517438,16.0147380891546
0.0209481739671453,16.0159347079304
0.0223861810768491,16.0170360826164
0.0236783320809462,16.0180966568452
0.024820720577721,16.019155508842
0.0257914950278724,16.0202514971451
0.0265472639917804,16.0214398958571
0.0269958921593193,16.0228376486236
0.0267714144937456,16.0249629452025
0.0260565114888621,16.0264207988249
0.0249925483197282,16.0278786524474
0.0237676480514809,16.0292429162372
0.0223851952708414,16.0306188126168
0.0208540339625131,16.0320545232489
0.0191821410458164,16.0335879297799
0.0180967859582871,16.0345867732616
0.0170400901420449,16.0355856167433
0.0151770567901101,16.0374677216686
0.0124732558987669,16.0405613541252
0.0103085732936031,16.0434759246135
0.00863260611371881,16.0461242517636
0.0072879986892538,16.0486009913761
0.00611998283054042,16.0511080522272
0.00509856284602538,16.0536779419498
0.00423359197644865,16.0562393427495
0.00347620444357056,16.0588899016362
0.00278633882674259,16.0617755384524
0.00218505047198166,16.0648224817003
0.00186021936585893,16.0667592817616
0.00157365033847028,16.068696081823
0.0013364705907892,16.0705055663353
0.00112865030137282,16.0722859207318
0.000935346294195554,16.0741483979783
0.000743366395583839,16.0762504771353
0.00052818435915688,16.0790070937033
0.0002564859175193,16.0833994111124
8.36896466276767e-05,16.0870949279961
-3.62656180559434e-05,16.0904363016254
-0.000134605616912471,16.0941479386862
-0.000211213335386407,16.0988025510544
-0.000236571329689063,16.1039804391488
-0.00019964404249308,16.1085804291093
-0.000105330752173973,16.1127768519621
4.58961583695688e-05,16.1165850979425
0.000255854848819498,16.1200491147293
0.000528196376167627,16.1232164131237
0.000868038011414729,16.1261317811513
0.00128277866604171,16.1288421676757
0.00178369211508628,16.1313983758869
0.00238857725793918,16.1338567211506
0.00312338982229117,16.1362737903185
0.00402583203377837,16.1387085200845
0.0051535983543161,16.1412295413725
0.0065189210101922,16.143781349506
0.00803299782541486,16.1461742226105
0.0095879337488297,16.1482780497092
0.0111750164106676,16.1501334319168
0.0128337536678216,16.1518152997257
0.0146311586759357,16.1533953802812
0.0166110240048334,16.1549004251247
0.0187787615087865,16.1563222438897
0.0211958003345098,16.1576881517251
0.023893495140723,16.1589996354808
0.0269115728311304,16.1602608848099
0.0302978720229578,16.1614769507625
0.0340971618203308,16.1626494367493
0.0383696057842686,16.1637828523329
0.0431799321362136,16.1648802691359
0.0486018581713353,16.1659445658142
0.0547273167815528,16.1669797218728
0.0616648581150585,16.1679895948878
0.0695460183204961,16.1689783097198
0.0785333169341928,16.1699504678493
0.0888305355074643,16.1709112753572
0.100703486399543,16.1718672064111
0.114504428760532,16.1728261886412
0.13072209997935,16.1737987542468
0.150075863216724,16.174800065296
0.172560336054185,16.1758061371866
0.198704135622692,16.1768240849137
0.229300853055993,16.1778688274544
0.265507497448131,16.178963868945
0.307579651435159,16.180109531389
0.348507523413243,16.1811468844904
0.382803626167095,16.1819935234439
0.412466944312881,16.1827375482821
0.438421932948972,16.1834268600486
0.460851254968992,16.1840894067957
0.479532613651381,16.1847469336063
0.493855998652811,16.1854212742601
0.502622965402176,16.1861404458106
0.503382645106662,16.1869514532861
0.493444128073854,16.187782020484
0.47161337400258,16.1886384531424
0.436401038964722,16.1895330085795
0.386107761439979,16.1904748580183
0.342698584218026,16.1911441575827
0.293794912874105,16.191813457147
0.250006848935053,16.1923695565439
0.212548939069145,16.1928297113811
0.17967748396639,16.1932317687868
0.150238826134743,16.1935979508177
0.123550797713972,16.1939415239872
0.0991561136461336,16.1942717481131
0.0766949430213629,16.194596432411
0.0558165589341276,16.1949240017104
0.0360398159237898,16.1952672971484
0.0161846771937931,16.1956596422057
0.00775383843367438,16.1958466173119
-2.74506476557136e-05,16.1960335924181
-0.00832227934037138,16.1962520472491
-0.0149173361322851,16.1964435646083
-0.0207763038005675,16.1966305346074
-0.0266944636577503,16.1968398293744
-0.0324206845475615,16.1970676995921
-0.037791202189384,16.1973117406104
-0.0427152873631379,16.1975710571183
-0.0471456555317713,16.1978457447214
-0.0510553999614214,16.1981365979305
-0.0544959606720069,16.1984517332329
-0.0573063711886818,16.198777042137
-0.0596055256999376,16.199123784009
-0.0614074855639222,16.1994950000956
-0.0627261759425971,16.1998942856416
-0.0635749688561253,16.2003260741572
-0.0639651944900667,16.2007958822266
-0.0639045227033895,16.2013106730519
-0.0633949125927261,16.2018794466974
-0.0624270235328894,16.2025156399485
-0.0609772705823873,16.2032364879602
-0.0589978943864494,16.2040677632571
-0.0563913018239327,16.205052992353
-0.0529191677760187,16.2062859718711
-0.0488793608973461,16.207681085267
-0.0449730435018469,16.2090286210079
-0.0412500232185116,16.2103339539161
-0.0377341450489201,16.2115997843203
-0.0344372399150858,16.2128272025436
-0.031364117974642,16.2140164776076
-0.0285148447229581,16.2151674752632
-0.0258859889416983,16.2162798777359
-0.0234714470191394,16.217353297047
-0.0212630769433675,16.218387328688
-0.0192512320193286,16.2193815699851
-0.0174252282571302,16.2203356162292
-0.0157737561158657,16.2212490417148
-0.0141985233616297,16.2221738263275
-0.012683627694263,16.2231224151445
-0.01123327793873,16.2240966000177
-0.00985134748486333,16.2250985819773
-0.00854149316132462,16.2261309503782
-0.00730710262832541,16.2271967809501
-0.00615124024990893,16.2282997647874
-0.00507659005170747,16.2294443830367
-0.0040853952952535,16.2306361492573
-0.00317939352721854,16.2318819553728
-0.00235974479850993,16.2331905825042
-0.00162694863853956,16.2345734868924
-0.000980741189487907,16.2360460722702
-0.000419954818699293,16.2376298884398
3.68331986515735e-05,16.2392708359774
0.000399209349600253,16.2409640895702
0.000683030725884172,16.2427281532461
0.000902883782943746,16.2445861076528
0.00107267409032797,16.2465692842693
0.00120616640609941,16.2487231116326
0.00131788559232984,16.2511197874078
0.00142512032700449,16.2538915751724
0.00155477794948918,16.2573555590553
0.00171015168053666,16.2611248498308
0.00190248653530052,16.2652040304163
0.00210882191064657,16.2691359640006
0.00232649110562497,16.273014820784
0.00255326298193577,16.2769057650023
0.0027880361246014,16.2808553169193
0.00303102514908912,16.2849011043282
0.00328362876144703,16.2890766577301
0.00354822784312271,16.2934140797066
0.00382801138671534,16.2979458209247
0.00412690581232711,16.3027062468563
0.00444967207650309,16.3077330288498
0.00480226430220254,16.3130684418816
0.00516942578603899,16.3184261230532
0.00554657209517848,16.3236981920833
0.0059373851550492,16.3288958733336
0.0063443219182871,16.3340073028608
0.00677160798932702,16.3390401556036
0.00722376667430178,16.3440008123828
0.00770579876164257,16.348895963764
0.00822303755579522,16.3537300296654
0.00878124342105499,16.3585053896965
0.00938668964617814,16.3632224787134
0.0100462920681394,16.3678803124209
0.0107739864661448,16.3725149593183
0.011591483239608,16.377183653525
0.0125153925151582,16.3818852146654
0.0135705309040999,16.3866409469509
0.0147934886361715,16.3914956266502
0.0162490593931895,16.3965582913586
0.0180935944671398,16.4021504610878
0.020515062953453,16.4085659489909
0.0220740404399824,16.4123749327287
0.0236661717953475,16.4161839164665
0.0250537772901474,16.4195958321436
0.026224066221134,16.4227266862335
0.0271889951363343,16.4257454195591
0.0278988401456843,16.4286287941847
0.0283426628844719,16.431441205642
0.0285079525294301,16.4343132602475
0.0283393074060454,16.4374491206173
0.0276009432528014,16.4415058134476
0.026751591460531,16.4444207413958
0.0256873311893243,16.4473356693439
0.0246107726056694,16.4499074164471
0.0235374061692764,16.4522743115656
0.022463173183196,16.4545331436271
0.0213895036130057,16.4567324075512
0.0203197747720324,16.4589004600886
0.0192576982525342,16.4610563514277
0.018206862754079,16.4632141346626
0.0171706089856932,16.4653849092135
0.0161519992153398,16.4675779378515
0.015153818271959,16.4698013178602
0.0141785843861679,16.4720624171232
0.0132285583960607,16.4743681876211
0.0123057574256453,16.47672539216
0.0114119640563998,16.4791407952535
0.0105487328068765,16.4816213364559
0.0097174069050361,16.4841742629544
0.00891911924058929,16.4868073058409
0.00814866605477851,16.4895515926478
0.00739211538811773,16.4924817592074
0.00665332942977095,16.4956191849777
0.0059361476101003,16.4989894613945
0.00524460279604741,16.5026221818138
0.0045828774809787,16.5065516874719
0.00395521685385694,16.5108181188296
0.0033657917949043,16.515469000853
0.00281849726010428,16.5205619157057
0.0023166587429629,16.5261696695669
0.00186282522907164,16.5323882408572
0.00146156027838135,16.5392931467826
0.0011249432276061,16.5467344424432
0.000898095866523564,16.5536011832805
0.000710863196982698,16.5613427229565
0.000553378260293422,16.5701990199033
0.000433551365281712,16.5795949088068
0.000345130015995672,16.5895949088068
0.000286136679460607,16.5995949088068
0.000248219397291828,16.6095949088068
0.000225294147089147,16.6195949088068
0.000213069613867503,16.6295949088068
0.000208637102592262,16.6395949088068
0.000210094004227464,16.6495949088068
0.000216244020547507,16.6595949088068
0.000226389717501177,16.6695949088068
0.000240203748975626,16.6795949088068
0.000257657102136685,16.6895949088068
0.000278988111031072,16.6995949088068
0.000304704797496397,16.7095949088068
0.000335621097735656,16.7195949088068
0.000372935085398129,16.7295949088068
0.000418367007990005,16.7395949088068
0.000471382489648474,16.7490990870104
0.000531691189418412,16.7578986284841
0.000600125838593653,16.7660366149127
0.000677745101193183,16.7735623588359
0.000765780131105407,16.7805220811121
0.000865634379172719,16.7869588323569
0.000978899417175581,16.7929127339134
0.00110737776696727,16.7984211916414
0.00125311068041258,16.8035190746482
0.00141840843047459,16.8082388853654
0.00160588696127418,16.8126109257838
0.0018185092481306,16.8166634578246
0.00205963616554904,16.8204228496318
0.00233308541706214,16.823913718146
0.00264320603396929,16.8271590785544
0.00299497058045763,16.8301804985026
0.00339409234609664,16.8329982550195
0.00384717978100895,16.8356315095333
0.00436194372069327,16.8380985115773
0.00494748559940591,16.8404168432692
0.00561471486299321,16.842603739929
0.00636098739927619,16.8446367782199
0.00718398053755273,16.8465137829869
0.00809429177875797,16.8482660728787
0.00910760372843877,16.8499247419131
0.0102484279335884,16.8515235055914
0.0115604074095923,16.8531069115411
0.013209998116898,16.8548234632746
0.0156781879205346,16.8570182574255
0.0173814016043964,16.858369895
0.0191831506531274,16.8597215325746
0.0208293343199251,16.8609327767475
0.0223004921559385,16.8620380013228
0.0236237497429651,16.8630960974722
0.0247984555082475,16.8641473092273
0.0258052692883484,16.8652295366442
0.0266046177084809,16.8663940256226
0.0271151435900986,16.8677423602283
0.0270581667038607,16.8696743330278
0.0264345031141033,16.8711724541042
0.0254109243046451,16.8726705751805
0.024219467321089,16.8740379838876
0.0228671405524781,16.8754021057269
0.0213619457891557,16.8768176479885
0.0197125750148832,16.878322945379
0.0183202985724094,16.8795929327843
0.0169695891033484,16.8808629201896
0.0154843999864286,16.8823495780661
0.0128166498232095,16.8853337245024
0.0105693336314463,16.8882812325878
0.00882917963231079,16.8909617144474
0.00744030790435202,16.8934573194336
0.00624630350445871,16.8959566050189
0.00520510661223891,16.8985075342457
0.00434786662998828,16.9009686610944
0.00362877997836961,16.9033806615724
0.0030082627750733,16.9058119050184
0.00244464724653792,16.9084070836096
0.00188013455459093,16.9115281999869
0.00157888132218736,16.9134908236531
0.00131304661606761,16.9154534473193
0.0010985564180539,16.9172370304105
0.00091629401931912,16.9189284517938
0.000750699882584944,16.9206385807708
0.000591139228231973,16.9224801068087
0.000424840851547315,16.9246554531788
0.000210688003578792,16.9279778169092
2.21178255335326e-05,16.9316236582665
-0.000106188738471856,16.9347213008135
-0.000210513800391935,16.9378547700441
-0.000303419827041293,16.9414943920111
-0.000382564069776856,16.9461787768336
-0.000418000558595845,16.9514643370155
-0.000394873246699962,16.9561373085187
-0.000317395962202994,16.9603877466141
-0.000185175820153099,16.9642342229679
4.04888985881187e-06,16.9677209415703
0.000253955554857984,16.9708950157129
0.000569399707302073,16.9738021587877
0.000957489351050574,16.9764925886384
0.00142895633509954,16.9790195531723
0.00200031017530645,16.981439740067
0.00270346061251674,16.9838349528466
0.00358439573423466,16.9862811816111
0.00473014485636448,16.9888999459769
0.00622488147157657,16.9917292729994
0.00789284372441199,16.9943747457555
0.00950390251268266,16.9965558975848
0.0110864988036795,16.9984116314621
0.0127472574710642,17.0001053172506
0.014519273031454,17.0016746946033
0.0164693955255214,17.0031705229896
0.0186126927792728,17.0045900813625
0.0210034334806226,17.0059545365599
0.0236697959249827,17.0072636424691
0.0266588914001912,17.0085250480964
0.0300099232403514,17.0097400403873
0.0337727729788638,17.0109122824873
0.0380033624947548,17.0120450326813
0.0427629711455223,17.0131408503876
0.048126368871426,17.0142032463106
0.0541823689776083,17.0152359178376
0.0610358210230142,17.0162425265212
0.0688138365832347,17.0172270562752
0.0776711674972268,17.0181937506906
0.0878050397610318,17.0191478174475
0.099465748682167,17.020095133712
0.112982171402724,17.0210428959106
0.12880231322114,17.0220004054375
0.147566975990575,17.0229805208216
0.169598333299059,17.0239749475259
0.195166048224113,17.0249770000319
0.224993595016893,17.0259993014671
0.260092426181157,17.0270607804901
0.30210407561911,17.0281960759869
0.337044322782061,17.0290684652212
0.373451252987236,17.0299408544554
0.405841321182475,17.0307127980473
0.434172970036854,17.0314117816094
0.458899010922074,17.0320717257623
0.4800163110317,17.0327169825502
0.497130663992813,17.0333692017594
0.509368423664296,17.0340533734286
0.514969295714624,17.0348073994946
0.510862455961638,17.0356224143326
0.49532013416173,17.0364579399813
0.46697671527944,17.0373289878472
0.424125189222149,17.0382462798503
0.364908230733257,17.0392189706147
0.322650684149956,17.0398107592586
0.276580560227209,17.0404025479024
0.235323153939315,17.0409060733467
0.199541764846785,17.0413349976001
0.167860476186752,17.0417172507872
0.139349954611046,17.0420701728514
0.113425269375494,17.0424049042572
0.0896679564958951,17.0427298587309
0.0677209550969914,17.0430528834176
0.0471877039034641,17.0433837514538
0.0273866481411742,17.0437409008572
0.00563332880013611,17.0441991855525
-0.00262943383806773,17.0443999125929
-0.0101576058106134,17.0446006396334
-0.0164863270435429,17.0447860195696
-0.0224374291477904,17.0449778651185
-0.0283692262058095,17.045190667661
-0.0340544593738758,17.0454210710543
-0.0393521023726672,17.0456671738645
-0.0441848703653429,17.0459283978737
-0.0485134592218442,17.0462050481847
-0.0523161091075681,17.0464980743189
-0.0556523428402261,17.0468165847768
-0.0583528104086032,17.0471449664158
-0.06054251370402,17.0474953814564
-0.0622361755672862,17.0478710399742
-0.0634479248312292,17.0482757369518
-0.0641909306916012,17.0487141638527
-0.0644758859320057,17.0491921827549
-0.0643092889563825,17.0497172369677
-0.0636907155121608,17.0502993602104
-0.0626073878177499,17.0509528599315
-0.061030209460043,17.0516968794669
-0.0589007121750486,17.0525608814782
-0.0560954661449372,17.0535973391219
-0.0522784889325978,17.0549341117023
-0.0482443918517599,17.0563180545129
-0.0443586371997527,17.0576571241166
-0.0406632144034971,17.0589553813982
-0.0371784153895208,17.0602148789919
-0.0339142407823161,17.0614363592681
-0.030874415164287,17.0626199012284
-0.0280582862718392,17.0637652657712
-0.0254619141093048,17.0648720769991
-0.0230788234993999,17.0659399145102
-0.0209006021284057,17.0669683550645
-0.0189174140601595,17.0679569837733
-0.0171184535805154,17.0689053857206
-0.0154923464959595,17.0698131239802
-0.0139272309703822,17.0707409611058
-0.0124231925184993,17.0716927685959
-0.0109842895426046,17.072670450236
-0.00961437264718019,17.0736762524628
-0.00831706951933827,17.0747128222312
-0.00709573311448921,17.075783308011
-0.00595338738776926,17.076891493885
-0.00489267019590682,17.0780419817057
-0.00391577288192532,17.0792404447157
-0.00302437535911833,17.080493991087
-0.00221957433679199,17.0818117034163
-0.00150180014238945,17.0832054738502
-0.00087071323550451,17.0846913665887
-0.000325061961557299,17.0862919960001
0.000113843216038243,17.0879387236896
0.000460572254282706,17.0896403527848
0.000730641519004368,17.0914155556966
0.000938465129872814,17.093288314502
0.0010978170646936,17.0952914316621
0.00122238895686051,17.0974729758737
0.0013267418921409,17.0999105275129
0.00142851351987665,17.1027499528642
0.0015565786235965,17.1063617315714
0.00170744847910979,17.1101559144857
0.0019018264618746,17.114397209341
0.00211033899517283,17.1184818103906
0.00232326336712002,17.1223954309946
0.0025400951791913,17.1262482797178
0.00276103960348933,17.1301076409927
0.00298714398812343,17.1340207772532
0.00322023762285108,17.1380255451998
0.00346280221570085,17.1421553885802
0.00371785383005141,17.1464420405978
0.00398888710949701,17.1509174316666
0.00427991183522009,17.1556152091746
0.00459564056198892,17.1605721653415
0.00494189637362634,17.1658294665671
0.00530880465301393,17.1711806722301
0.0056856217369112,17.1764265319354
0.0060779598722718,17.1816085711404
0.00648741170326548,17.1867035742889
0.00691835243506045,17.1917210062781
0.00737529705088395,17.1966662728608
0.00786335761428888,17.2015460358254
0.00838800462381453,17.2063645920656
0.00895517022574113,17.2111242551598
0.0095713197849274,17.2158253568378
0.0102435854787375,17.2204668487178
0.010990766037186,17.22511121933
0.011831250490295,17.2297863924295
0.0127838247666663,17.2344988725974
0.0138754291308635,17.2392734884487
0.0151474841586854,17.2441658435883
0.0166777630462032,17.2493150023177
0.0186791530701633,17.2551742825482
0.0205294096025137,17.2600005168526
0.0221058332702097,17.2638524539001
0.0237152287225742,17.2677043909475
0.0250974865326051,17.271109320304
0.0262617871861255,17.2742352051201
0.0272205894522652,17.2772527536869
0.0279226557207979,17.2801324608346
0.0283586965473086,17.2829444646896
0.0285154212334829,17.2858203173779
0.0283354610934215,17.288968376335
0.0275695202517792,17.2930810455816
0.0267156172034387,17.2959717477942
0.0256525002486497,17.2988624500068
0.0245764794520997,17.3014224995558
0.0235030609189114,17.3037836770852
0.0224287501560668,17.306039289609
0.0213551328345799,17.3082366422564
0.020285616697239,17.3104035986425
0.0192239132070292,17.3125589558948
0.018173603479799,17.3147166173091
0.0171380180384291,17.316887586906
0.0161202097923743,17.3190810597245
0.0151229538513106,17.3213050844413
0.0141487590455723,17.3235669914545
0.0131998784909607,17.3258736987615
0.0122783195311902,17.3282319445709
0.0113858575790245,17.3306484645185
0.0105240397048975,17.33313016983
0.00969420001197149,17.3356842827573
0.00889746382433767,17.338318502034
0.00812737353945572,17.3410686107534
0.00737132861290802,17.3440052276577
0.00663318252667808,17.347149894004
0.00591678228497998,17.350528328188
0.00522617062518457,17.3541702580681
0.00456553494649076,17.3581102034529
0.00393912270159597,17.362388524772
0.00335110137302108,17.3670530428309
0.00280535495550321,17.3721617681976
0.00230518845469897,17.377788188284
0.00185312798913737,17.3840293270969
0.0014543139358941,17.3909501155243
0.0011199635436309,17.3984104823775
0.000857315275569939,17.4065851816082
0.000696085490790184,17.4136047632438
0.000539391943351793,17.4227619458504
0.000426437785118602,17.4320357391957
0.000342010190148741,17.4420357391957
0.000286064115184865,17.4520357391957
0.000250594293002422,17.4620357391957
0.000229765660199753,17.4720357391957
0.000219469559247817,17.4820357391957
0.000216938006118365,17.4920357391957
0.000220385528611523,17.5020357391957
0.00022872349550862,17.5120357391957
0.000241364533936605,17.5220357391957
0.000258105300709298,17.5320357391957
0.000279067893025878,17.5420357391957
0.000304685924668659,17.5520357391957
0.000335731084439332,17.5620357391957
0.000373385978527988,17.5720357391957
0.000419380424930327,17.5820357391957
0.000473279101588276,17.5915576346844
0.000534686619202727,17.6003695491064
0.00060444121053601,17.6085148648931
0.00068362223446808,17.6160439209276
0.000773489587583423,17.6230038132224
0.000875481802411734,17.6294383178767
0.000991231505826429,17.635388161354
0.00112258850961698,17.6408912578227
0.00127164827762937,17.645982905629
0.0014407831466429,17.6506959720139
0.00163268031323885,17.6550610719631
0.00185038489745395,17.6591067395317
0.0020973531532407,17.662859583038
0.00237751436814415,17.666344435975
0.00269534960316599,17.6695845151535
0.00305598974954924,17.6726015840717
0.00346534098960116,17.6754161199679
0.00393025155014871,17.6780475020646
0.00445873763353564,17.6805142334727
0.00506030119841341,17.6828342122027
0.00574639663000106,17.6850250943362
0.00650842483227608,17.6870497058319
0.00734972814638259,17.6889242110984
0.00828234152282157,17.6906808542696
0.00932424264882585,17.6923521522718
0.0105046747751739,17.6939753972801
0.011890300554302,17.6956169634495
0.013697039987094,17.697459834595
0.0156322022469333,17.6991852404274
0.0173211419034544,17.7005587811671
0.0190996327320662,17.7019323219067
0.0206885293436094,17.7031429164612
0.0221091441858499,17.7042548717273
0.023384797392185,17.7053251144335
0.0245116643462685,17.7063930979222
0.0254680331594095,17.7074978278266
0.0262108782499554,17.7086945376405
0.0266491675723824,17.7100993450939
0.0264242024984586,17.7122272728874
0.0257132177148886,17.7136967431204
0.024653847652888,17.7151662133534
0.0234361746001647,17.7165382714425
0.0220637608013355,17.7179196568737
0.0205454562710565,17.7193589930884
0.0188894450124073,17.72089399959
0.017821759300321,17.7218866534236
0.0167824698069468,17.7228793072572
0.0145617287144601,17.7251687244677
0.01193607512813,17.7282706202619
0.00988152919205563,17.7311270890993
0.00827941836964778,17.7337355476529
0.00697030370052665,17.7362178172548
0.00583022507568421,17.738737783288
0.00488052720175731,17.7411892434353
0.00408088697158893,17.7435954987062
0.00338835682431137,17.7460257545008
0.00275657831988774,17.7486284887053
0.00214224694178672,17.7516556937586
0.00180224182608666,17.7536218442862
0.00150202698277818,17.7555879948137
0.00126017639810738,17.7573705645083
0.0010548366282831,17.759057758705
0.000868313553528997,17.7607608306391
0.000688472468947721,17.7625924509706
0.000500884826255008,17.7647519208786
0.000259417510461384,17.7680307772276
4.17586880212004e-05,17.7716833352911
-0.000108208373614369,17.774792203367
-0.000231789775980568,17.777928142571
-0.000345249372195212,17.7815737573009
-0.000449534975571672,17.786288897218
-0.000512522967387642,17.7916301896501
-0.00051401083121004,17.7963424817915
-0.000460235114303291,17.8006316438436
-0.000351281699167843,17.8045090876321
-0.000185106446383498,17.8080231222809
4.19380073959419e-05,17.8112228421112
0.000334777152358951,17.814155379878
0.000700848217850796,17.8168740700389
0.00115158875225953,17.8194359974229
0.00170491856901777,17.821903054268
0.00239599898295907,17.8243671085714
0.00328691786461423,17.8269437757878
0.00451160920160685,17.8298390488953
0.00605971539436235,17.8328621746702
0.00734968413147031,17.8350186058985
0.00882417631885359,17.8371750371268
0.0103178798720458,17.8390784276979
0.0118594893408289,17.8407909033467
0.0135199426821805,17.8423951810408
0.0153358767184826,17.8439152476134
0.0173425192721735,17.8453655911
0.0195785600038453,17.8467574652169
0.0220777831311866,17.8480949274319
0.0248803305443188,17.8493830884684
0.0280209877865921,17.8506225574931
0.0315484151815593,17.8518180317716
0.0355116588074751,17.8529718888246
0.0399659379887316,17.8540865454815
0.0449811464348438,17.8551659715525
0.0506362113586014,17.856213466113
0.0570250604242432,17.8572325584394
0.064258968293943,17.8582268107665
0.0724774434401696,17.859200638031
0.0818510119538243,17.8601586337621
0.0925944629438223,17.861106048919
0.104984719499596,17.8620491204397
0.119389057343766,17.8629955747554
0.13631494626894,17.8639556156006
0.15650387929555,17.8649437850569
0.17993497883393,17.8659359101596
0.207162830604406,17.8669393269528
0.238995328559173,17.8679681449378
0.276602392362478,17.8690446862852
0.320707583479528,17.8701810931113
0.362633936757606,17.8711877513212
0.397384363908314,17.8720027995532
0.4273441461454,17.8727192798693
0.45353885034542,17.8733853915788
0.476163146137409,17.87402894938
0.494970457304537,17.8746720474226
0.509283543774728,17.8753379643513
0.517729700510045,17.8760589523108
0.517475615773617,17.8768676158287
0.506105573384499,17.8776915619279
0.482390704837432,17.8785473125151
0.444694561274613,17.8794472671588
0.391158079452146,17.8804002539794
0.346447969459037,17.8810608712007
0.296417323621726,17.8817214884219
0.251850089164954,17.8822702095859
0.213819092372788,17.8827246562193
0.180503329724396,17.8831220066096
0.150705420623649,17.883484160222
0.123717067691312,17.8838242353013
0.0990630829954962,17.884151437492
0.0763682040012205,17.884473614449
0.0552623427027176,17.8847994047433
0.0352226578825783,17.8851424372367
0.0148750538097829,17.885540591819
0.00669743016724201,17.8857206390779
-0.000860014004763076,17.8859006863368
-0.00866259755637765,17.8861037262763
-0.015193570406969,17.8862904883569
-0.0211228902777324,17.8864768060145
-0.0270940961779847,17.8866849353904
-0.0328592575333004,17.886911240035
-0.0382591532772806,17.8871534726681
-0.0432056343610586,17.8874108287217
-0.047652923807489,17.8876834563148
-0.0515790408867816,17.8879721827429
-0.0552263929179428,17.8883048319905
-0.0580165131429149,17.8886295460249
-0.0602905807628532,17.8889755951602
-0.0620656308842776,17.8893463408575
-0.0633558995375286,17.8897454620681
-0.0641748669651838,17.8901774994731
-0.0645337662813148,17.8906481176494
-0.0644399033696154,17.8911644917049
-0.0638943467563837,17.8917360461721
-0.0628862694099599,17.8923766384014
-0.0613894962119729,17.8931043890075
-0.0593510729481899,17.8939467939077
-0.0566609151872317,17.8949515272614
-0.0530358325751247,17.8962275593388
-0.0489766076453469,17.8976208433205
-0.0450548668125909,17.8989682583639
-0.0413180702773353,17.9002744534054
-0.0377891012863911,17.9015417718897
-0.0344794519037735,17.9027710979442
-0.0313938569962988,17.9039625748886
-0.0285324207009245,17.9051159878826
-0.0258917943140659,17.9062309651473
-0.0234659659494212,17.9073070813292
-0.0212468763696358,17.9083439056997
-0.019224943982706,17.9093410174664
-0.0173895283373505,17.9102980002031
-0.0157293412162246,17.9112144219821
-0.0141540581685684,17.9121373476809
-0.0126388358896898,17.9130839961186
-0.0111879706157188,17.9140560942916
-0.00980535359130606,17.9150558162003
-0.00849466587503201,17.9160857176389
-0.00725932558641478,17.9171488325833
-0.00610243437742492,17.918248799333
-0.00502672118719771,17.9193900310728
-0.00403448292218574,17.9205779520582
-0.00312752110775747,17.92181933398
-0.0023070725503725,17.9231227912698
-0.00157373019436365,17.924499540549
-0.000927346760201668,17.9259646248963
-0.000366906041092079,17.9275390175898
9.09301481381664e-05,17.9291766581183
0.000452898136570675,17.9308651577605
0.000734958925720338,17.9326229403899
0.00095168232101561,17.9344725934695
0.00111689659824589,17.9364446532482
0.00124419112726913,17.938583138363
0.00134773160967018,17.9409574224166
0.00144400888533367,17.9436928467338
0.00155753578947548,17.9470811570771
0.00169674767037393,17.9508390878668
0.00187338880814089,17.9549465861178
0.00207369447682924,17.959070023301
0.00227965509566007,17.9629991995975
0.00249017609678882,17.9668525040776
0.00270504378349127,17.9707025379846
0.00292494220429209,17.9745989485105
0.00315140585924197,17.9785807315096
0.00338667692152112,17.9826818212983
0.00363357016667466,17.9869340854714
0.00389538964910063,17.9913693009732
0.00417593101485242,17.996020711166
0.00447962238513614,18.0009244837103
0.00481186705270704,18.006120981635
0.00517176733220907,18.0115378717142
0.00553823311859075,18.0168092176962
0.00592035427873785,18.0220332302852
0.00631800200915687,18.0271633870344
0.00673576478321916,18.0322149352226
0.00717777109832296,18.0371912249981
0.00764896979423106,18.0421002202129
0.00815457429856332,18.0469467931408
0.00870024516620698,18.0517340538939
0.0092921264359133,18.0564629486495
0.00993697656480158,18.0611328369903
0.0106451186698264,18.0657596196901
0.011440627889143,18.0704232363284
0.0123384869118643,18.0751165817215
0.0133620002058156,18.0798587311139
0.0145444383933639,18.0846871867831
0.0159423023551672,18.0896919965019
0.0176809602556156,18.0951227962699
0.0200970803771254,18.1016812380348
0.0216964380800049,18.1056388655
0.0233479680838338,18.1095964929652
0.024788615349829,18.1131039511198
0.026002610495828,18.1162788827378
0.027011212376948,18.1193096678603
0.027778319686353,18.1222232383722
0.0282791451901491,18.1250407305593
0.0285065583873701,18.1278869446968
0.0284181337421448,18.1309394570321
0.0278527031151596,18.1346606604858
0.027033956875683,18.1377659542612
0.0259549663453787,18.1408712480367
0.0248717362650955,18.1435269773659
0.0237976556547364,18.1459316110889
0.0227234674854177,18.1482103649436
0.0216492672699023,18.1504205357699
0.0205781681798844,18.152593884045
0.0195138629947546,18.1547511305169
0.0184599853719337,18.156907268556
0.0174199381815821,18.159073967638
0.0163968486451589,18.161260849837
0.0153935657588347,18.1634762385764
0.0144126685801663,18.165727640672
0.0134564764787281,18.1680220817968
0.0125270634420817,18.1703663462349
0.0116262645283142,18.1727671833222
0.0107556864968465,18.1752314748791
0.00991672125959347,18.1777663785212
0.0091105487436186,18.1803794979546
0.00833725134732568,18.1830822985817
0.00757695203943398,18.1859663772893
0.00683353772632472,18.1890521414055
0.00611079641578358,18.192364339234
0.00541271946442854,18.195931560016
0.00474346157403839,18.1997869506844
0.00410726467305978,18.2039691872732
0.00350833633663362,18.2085238928261
0.00295066309354773,18.213505998858
0.00243773677987575,18.2189842060451
0.00197231000371835,18.2250483121145
0.00155634070791869,18.2318193191873
0.00120531449363818,18.2391250423682
0.000927059007820338,18.2470469533046
0.000743992314331257,18.2543849060013
0.000585285044530744,18.2629639382694
0.000462526506337353,18.2721442078268
0.000369540706911282,18.2821442078268
0.000307816016241314,18.2921442078268
0.000268595502663243,18.3021442078268
0.000245495330095989,18.3121442078268
0.000234004896683612,18.3221442078268
0.000231077588113564,18.3321442078268
0.00023474932759382,18.3421442078268
0.000243829418095251,18.3521442078268
0.000257686660186573,18.3621442078268
0.000276121589410716,18.3721442078268
0.000299305134047054,18.3821442078269
0.000327769378331527,18.3921442078269
0.0003624471921357,18.4021442078269
0.000404769844339591,18.4121442078269
0.000456019833042646,18.4219971088994
0.000514604262698087,18.4311271598849
0.000581199789032616,18.4395662338707
0.000656790614112003,18.4473661026593
0.000742557651856229,18.454575600847
0.000839861919253163,18.4612400844799
0.000950252447530093,18.4674017162424
0.00107548624096733,18.4730997289546
0.00121755449666269,18.4783706429355
0.00137871306318144,18.4832484544116
0.00156151675417692,18.4877648201273
0.00176886113783087,18.4919492355009
0.00200403096619085,18.4958291991817
0.00227075833165643,18.4994303636229
0.00257329481425065,18.5027766913626
0.00291650037364871,18.5058906190316
0.0033059582432702,18.5087932230809
0.00374812324564443,18.5115043988776
0.00425052187482714,18.5140430702449
0.00482203080399958,18.5164274405846
0.00547327717328854,18.5186753166527
0.00620635805088348,18.5207761011758
0.00701529141940751,18.5227137132327
0.0079103714337805,18.5245205696258
0.00890701955210136,18.5262291115195
0.0100293308028661,18.5278743359138
0.0113201820123077,18.5295022206053
0.0129304044840347,18.5312523778084
0.0153317762952374,18.533483479186
0.0169985279704741,18.5348653071552
0.0187625904953808,18.5362471351245
0.0203741305380883,18.5374847335625
0.0218126096954404,18.538612316748
0.0231050731325888,18.5396904225606
0.0242510661854803,18.5407600801326
0.02523171141544,18.5418594776157
0.026008419927242,18.5430395967512
0.0265025210063849,18.5443998297574
0.0264546049730991,18.546314240764
0.02584550679803,18.5478458036348
0.0248319677774616,18.5493773665057
0.0236568341439441,18.5507632617652
0.022327020559723,18.5521391984233
0.0208500877090654,18.5535622030355
0.0192351053033641,18.5550706162223
0.0179463015119437,18.5562721172607
0.016691829973868,18.5574736182992
0.0153737895490957,18.5588102986142
0.0128022827089918,18.5617056368232
0.0105704600078036,18.564640956303
0.00883224909794177,18.5673225936608
0.00744325562468596,18.5698207880823
0.00624801895469653,18.5723239953473
0.00521803974755053,18.5748453964012
0.0043401127995567,18.577364507573
0.0035609005840578,18.5799983233378
0.00285013678202254,18.582861997647
0.00237040261435587,18.5851430165022
0.00195590421806789,18.5874240353573
0.00164748464775529,18.5893672536978
0.00139683608269168,18.5911455386587
0.00117570453067565,18.592900769817
0.000968522567647211,18.5947435823196
0.000760951672022621,18.5968335376711
0.000524167515989042,18.599611108109
0.000230604692443368,18.6039082185823
3.88911344281685e-05,18.6075407422538
-9.94168392959306e-05,18.6108642357891
-0.000218336127814676,18.6145804194299
-0.000321445899447853,18.619291459493
-0.000376633740165994,18.6245444959906
-0.000367648423444617,18.6291995935514
-0.00030120526329651,18.6334412318132
-0.000177938485330333,18.6372886988562
3.76736804985203e-06,18.6407842478485
0.000247444771503941,18.6439769485787
0.000558436128759484,18.6469160272971
0.000944545174870896,18.6496520869715
0.00141794319775077,18.6522409729387
0.00199839919781816,18.654746616666
0.00271698573261245,18.657239706964
0.00363264954363775,18.6598282790549
0.0048371726412846,18.6626274575754
0.00635927263248979,18.6655573492553
0.00793459738197612,18.6681089205304
0.00944379857622614,18.6702061556902
0.0109634053516281,18.6720373117084
0.0125604967579789,18.6737092889552
0.014307339196767,18.6752946678958
0.0162060521155909,18.676784016568
0.0183196095579174,18.6782137753617
0.0206749603819964,18.6795847741653
0.0233087480475747,18.6809023022691
0.026262833217953,18.6821714717526
0.0295738960172797,18.6833930578226
0.0332937948059783,18.684571919347
0.037475874060081,18.6857107818651
0.0421792984050163,18.6868120369022
0.0474799685115551,18.6878797968991
0.0534641191317448,18.6889175059889
0.0602349804445104,18.6899288598649
0.0679164921124036,18.6909177190507
0.0766635529094255,18.691888671755
0.0866693446809318,18.6928467957902
0.0981805369851584,18.6937979997188
0.111521526698633,18.6947495313895
0.127134691525592,18.6957107720585
0.145654167049852,18.6966947362106
0.167405331495942,18.6976934070357
0.192650402137463,18.6986998202588
0.222108078283948,18.6997268149614
0.256785434827737,18.700793633125
0.298316848709817,18.7019353013305
0.333068669526643,18.7028176525933
0.369301498648512,18.7037000038562
0.401563624400043,18.7044808231058
0.429796573057253,18.7051875199082
0.454438006536178,18.7058539951094
0.475484451812111,18.7065045730361
0.49255183973811,18.707160692269
0.504793704991939,18.7078466803925
0.510528186188364,18.7085984510859
0.506748814623241,18.7094165729551
0.491647752628207,18.7102535391137
0.463895754336479,18.7111242193797
0.421834033707978,18.7120393109818
0.363652251687927,18.7130081381976
0.32173026133401,18.7136021874343
0.275954024500173,18.7141962366709
0.234914554103526,18.7147016458727
0.199297081414121,18.7151321093575
0.167744921701905,18.7155156731193
0.139340176887131,18.7158697358419
0.113504983079091,18.7162054653049
0.0898260320065022,18.7165312792615
0.0679512354374041,18.7168549967104
0.0474915203211568,18.7171862839179
0.027786187989898,18.7175431440726
0.00632241814818274,18.717996163916
-0.0021699413210227,18.7182026458683
-0.00989132238095133,18.7184091278206
-0.0162440367996555,18.7185959973171
-0.0221747912809192,18.7187879933193
-0.0280922124110717,18.7190011020348
-0.0337678520269903,18.719231933241
-0.0390590965615558,18.7194785357962
-0.0438877431291487,18.7197403021196
-0.0482139419003338,18.7200175195877
-0.0520142500892379,18.7203111259468
-0.0552944854041009,18.7206243890004
-0.0580033405614917,18.7209528848137
-0.0602027663127272,18.7213034250036
-0.0619066723206654,18.7216791247182
-0.0631291080250341,18.7220837493609
-0.063883231699156,18.7225219520693
-0.0641797979173899,18.72299954185
-0.0640254628832458,18.7235238857643
-0.0634201605890441,18.7241048645392
-0.0623516773368166,18.7247566291685
-0.0607919141755901,18.7254979931392
-0.0586844318054963,18.7263577575572
-0.055910906819541,18.7273867121494
-0.0521560619759371,18.7287057174063
-0.048128643929932,18.730090371505
-0.0442478808669764,18.7314297169397
-0.0405568157718316,18.7327279510246
-0.0370760816778261,18.7339872373922
-0.0338158106766444,18.7352083829757
-0.0307797707309861,18.7363915057104
-0.0279673140861804,18.7375363910537
-0.0253744889376424,18.7386426792427
-0.022994802994344,18.7397099608109
-0.0208198271022693,18.740737820052
-0.0188397115534559,18.7417258472297
-0.0170436411211201,18.7426736307847
-0.0154202367258673,18.7435807356836
-0.0138560109227284,18.7445089807665
-0.0123529416673985,18.7454612136601
-0.0109150700948828,18.7464393521262
-0.00954624404184329,18.7474456486688
-0.00825008726094789,18.7484827577471
-0.00702994769378672,18.7495538371568
-0.00588884315729665,18.7506626827774
-0.00482940418555464,18.75181391167
-0.00385381351500177,18.7530132171169
-0.00296374101669286,18.7542677343749
-0.00216027167734577,18.7555865837888
-0.0014438220056352,18.7569817121453
-0.00081403580598722,18.7584692666426
-0.000269640531732397,18.7600719959954
0.000167719697991286,18.7617194913322
0.000513201357606847,18.763422205868
0.000782293400455403,18.7651988386323
0.000989405160327899,18.7670734870821
0.00114831692942372,18.7690791425645
0.00127274470008258,18.771264214741
0.00137730884360409,18.7737069868065
0.00147979590103204,18.7765551388112
0.0016096132271476,18.780186641695
0.00176217040117161,18.7839844966032
0.00195027469285867,18.7880580068743
0.00215144327900084,18.7919789681975
0.00236290206936025,18.7958439403933
0.00258262123177604,18.7997187930014
0.00280974474466725,18.803650287216
0.00304467492776232,18.8076761065412
0.00328891410689072,18.8118297195146
0.00354486521395474,18.8161430907403
0.00381566704450253,18.8206484691225
0.00410512994420673,18.8253799473285
0.00441783276563419,18.8303748874
0.00475946366244969,18.8356752045286
0.0051203201051194,18.8410737057022
0.00548943629184002,18.846362012117
0.0058725185404047,18.8515840918989
0.00627105972617096,18.8567155215673
0.00668940345603447,18.8617674214676
0.00713186040120202,18.8667453029514
0.00760332898087567,18.8716566266623
0.00810898972799305,18.8765061701737
0.00865444101340377,18.8812967548221
0.00924576788010582,18.886029152825
0.00988967167839215,18.8907026143031
0.0105955748379376,18.8953277467262
0.0113882320162247,18.8999905219392
0.0122822378410697,18.9046823095946
0.0133006009637729,18.9094218106196
0.0144759402023886,18.9142451018071
0.0158631870891477,18.9192386168996
0.0175822207791671,18.9246391668665
0.0199983589860131,18.9312293168949
0.0216098411511317,18.93522691071
0.0232776281079964,18.9392245045252
0.0247295413116433,18.9427525957576
0.0259522795561908,18.9459368188983
0.0269693246690459,18.9489705973847
0.027747405763073,18.9518905739285
0.0282590197661692,18.954709777484
0.0284979823049493,18.9575522006246
0.0284239634423542,18.9605914419269
0.0278857607953982,18.964264343486
0.0270724848453436,18.9674068445586
0.0259900214511576,18.9705493456312
0.0249053868104492,18.9732202191707
0.0238311973625569,18.9756313055039
0.0227570715075651,18.9779134834813
0.0216828407637769,18.9801256374185
0.0206115687745017,18.9823001049341
0.0195469436071846,18.984457884817
0.0184926051792926,18.9866141278897
0.0174519653413489,18.9887806020421
0.016428160747792,18.9909669951139
0.0154240496121138,18.9931816768375
0.0144422196740644,18.9954321885348
0.0134849986457712,18.9977255825562
0.012554468676961,19.000068664575
0.0116524723788756,19.0024682031958
0.0107806243220279,19.004931096768
0.0099403236339133,19.0074645203164
0.00913275781320001,19.0100760942781
0.00835891663262639,19.0127740307239
0.00759813569656715,19.0156519911716
0.00685411047387522,19.0187309050748
0.00613062312835697,19.0220353986638
0.00543165758996048,19.0255939264706
0.00476136257178359,19.0294394743407
0.00412397685399429,19.0336105191792
0.00352370971383449,19.0381524228329
0.00296455653809018,19.043119745187
0.00245002705515572,19.0485806089799
0.00198289633078675,19.0546239179517
0.00156513937708517,19.0613693761428
0.00121181136164813,19.068656521798
0.000932042742082522,19.0765560797713
0.000751308582208864,19.0837107086942
0.000588953566385609,19.0923321999232
0.000464691097536257,19.1014471421048
0.000369487435325688,19.1114471421048
0.00030597180336339,19.1214471421048
0.000265219155167931,19.1314471421048
0.000240713343868769,19.1414471421048
0.000227838727753069,19.1514471421048
0.000223461821183469,19.1614471421048
0.000225540287414228,19.1714471421048
0.000232804705287762,19.1814471421048
0.000244535989787693,19.1914471421048
0.000260428265878979,19.2014471421048
0.000280515848697582,19.2114471421048
0.000305147730681486,19.2214471421048
0.000335002877019362,19.2314471421048
0.000371149668664278,19.2414471421048
0.000415163509449744,19.2514471421048
0.00046738557682646,19.2611145663884
0.000526886914490814,19.2700699424965
0.000594420583982145,19.2783509038557
0.000671004413219749,19.2860076838722
0.000757838982623544,19.2930875345999
0.000856299524392048,19.2996344282948
0.000967948130048898,19.3056893134914
0.00109455514674743,19.3112903469422
0.00123812618344982,19.3164730848707
0.00140093221243878,19.3212706582357
0.00158554498722245,19.3257139448438
0.00179487814724683,19.3298317359961
0.00203223675707274,19.3336508889132
0.00230137495431411,19.3371964704996
0.0026065688822607,19.3404919082993
0.00295270605187859,19.3435591478266
0.00334539990773255,19.3464188110308
0.00379113923625418,19.3490903706863
0.00429748843038113,19.3515923537839
0.0048733658688824,19.3539425841673
0.00552944448905523,19.3561584971772
0.00626653574689448,19.3582262987557
0.00707946250905338,19.36013348624
0.0079784257361461,19.3619117532547
0.00897860070702598,19.363592627888
0.0101035370426846,19.3652098874429
0.0113946879805939,19.3668073218034
0.0130009559663127,19.3685206614376
0.0153454680885809,19.3706608986181
0.017047441195579,19.3720448781472
0.0188569172302015,19.3734288576762
0.0205157531222768,19.3746671864093
0.0219937356945606,19.3757885371815
0.0233228829709539,19.3768565081372
0.0245052632223051,19.3779129236775
0.0255236253020574,19.3789953571329
0.0263414918179689,19.380152422962
0.0268855425388824,19.3814754517533
0.0269330888422764,19.3832781465652
0.026376865350679,19.3848413750235
0.0253722557072736,19.3864046034818
0.0242047227543622,19.3877885534748
0.0228799074638694,19.3891537877616
0.0214032296467093,19.3905633015819
0.0197836210535925,19.3920563174893
0.0180254792486482,19.3936733480655
0.01616222267329,19.3954709042651
0.0134242756386379,19.3984327078858
0.0110324995809922,19.401461402929
0.0091956238246058,19.4041982768619
0.00774199358871835,19.4067284897899
0.00651285055477382,19.4092210033329
0.00543983810988402,19.4117654053321
0.00453251414898431,19.4142903025978
0.00375592880314006,19.4168304658243
0.00305854393702434,19.4195293561884
0.00241892056243113,19.422500409265
0.00203249199895374,19.4246178897651
0.00169537698928189,19.4267353702652
0.00143086803763704,19.4286258151405
0.00121106963389378,19.4303925457978
0.00101474994745188,19.432159700715
0.000828680520037192,19.4340418495323
0.000639046891506463,19.4362260447053
0.000410319644196185,19.4393464945065
0.000179658992960471,19.4433049795295
2.93069310368123e-05,19.4466113202605
-8.60751333354759e-05,19.4498341444681
-0.000185106064722529,19.4535174197705
-0.000265319229961228,19.4581837859188
-0.000296385778556511,19.463390696052
-0.000265825091392119,19.4680106005872
-0.000178578485373878,19.4722210958847
-3.49739177812042e-05,19.4760386276178
0.000167062452971346,19.479510714756
0.000430879045690879,19.4826797050792
0.000761731831971012,19.4855941746846
0.0011672261778534,19.4883032638116
0.00165853372480243,19.4908575361197
0.00225209123047839,19.4933092466736
0.0029753544389268,19.4957233167719
0.00387487937574584,19.4981815511466
0.00501470508578527,19.5007565178758
0.00642193216587926,19.5034067692487
0.00797281518372679,19.5058709007774
0.00953383327945382,19.5079936492571
0.0111087449099788,19.5098460699925
0.012768315825932,19.5115402266412
0.014547526627509,19.5131151250289
0.0165069400628579,19.5146156563006
0.0186595294923593,19.5160382400722
0.0210598284394997,19.5174047943931
0.0237382745763295,19.5187164735705
0.0267382375029187,19.5199791969712
0.0301042448396964,19.5211964992059
0.0338810969901822,19.5223701289881
0.0381280173879172,19.5235044640476
0.0429088294124328,19.5246025170357
0.0482959383216161,19.5256670786939
0.0543809276897977,19.5267022749843
0.0612703852364206,19.5277118418117
0.0690937783004018,19.528699854134
0.0780099422831502,19.5296707545013
0.0882200476551895,19.5306298049511
0.0999829837344067,19.5315832290693
0.113641030794716,19.5325386783193
0.129665862345366,19.5335062170125
0.14874458971587,19.5345001315535
0.171000855683649,19.5355025772609
0.19686030216536,19.5365152656534
0.227087657669145,19.5375522428036
0.262779607747591,19.5386352001923
0.304781959437426,19.5397792192448
0.347062506460069,19.5408453289874
0.382167479087947,19.541703071182
0.412378744365362,19.5424500934179
0.438805140640413,19.5431390636113
0.461697149390623,19.5437993459976
0.480871569046423,19.5444530980483
0.495757421976215,19.5451221270254
0.505214899993012,19.5458340173102
0.506914011582342,19.5466345466397
0.49802588939745,19.5474614150889
0.477308826595676,19.5483136292798
0.443281560025821,19.5492039940346
0.3942276214762,19.5501417789597
0.349987987292467,19.5508324672899
0.299749166537946,19.55152315562
0.254850133278661,19.5520928247827
0.21664906669073,19.5525601547888
0.18324649170558,19.5529661529237
0.153393675805966,19.5533345670301
0.126364941691571,19.5536793078234
0.101682149990342,19.5540099073541
0.0789759100975996,19.554334241981
0.0578952847179642,19.5546605855889
0.037977808748717,19.5550010941672
0.0181646136722311,19.5553854271679
0.00162916098223002,19.5557585802104
-0.0059047518349921,19.5559513376866
-0.0127848987504072,19.5561440951628
-0.0187430327282021,19.5563272131538
-0.0246876100584084,19.5565288575281
-0.0305157147568947,19.5567501717821
-0.036033573434304,19.5569882381703
-0.0411293716803572,19.5572417234573
-0.0457432853825158,19.5575104286702
-0.0498454586436549,19.557794930348
-0.0536982014344515,19.558123386719
-0.056665263961097,19.5584426732127
-0.059114027805044,19.5587823653799
-0.0610609988701119,19.5591456130779
-0.062520065206743,19.5595358100011
-0.0635049622483797,19.5599571321944
-0.0640278023120502,19.5604147615792
-0.0640975072725659,19.5609152108938
-0.0637179306374579,19.5614668203204
-0.0628834833631735,19.5620816519122
-0.0615750524177072,19.5627756485741
-0.0597530557275661,19.5635716706387
-0.0573378661177395,19.5645067821784
-0.0541484793099458,19.5656541879829
-0.0500760636414142,19.5670660171502
-0.0461197570686947,19.568426617971
-0.0423366885199332,19.5697439849336
-0.038755632219444,19.5710214455136
-0.0353910847507701,19.5722603983434
-0.0322495594135415,19.573461261723
-0.0293323469226474,19.574623967926
-0.0266369525470601,19.5757482230177
-0.0241579994702642,19.5768336420488
-0.0218878998232436,19.5778798153146
-0.0198174098455713,19.578886334419
-0.017936113712467,19.5798527934554
-0.0162328505863209,19.5807787736675
-0.0146411336022714,19.5816964611813
-0.0131082068426215,19.5826376042476
-0.0116386334654032,19.5836037375205
-0.0102363417341491,19.5845969601269
-0.00890506137226815,19.5856197332242
-0.00764826935697607,19.5866749718262
-0.00646913673374809,19.5877661628729
-0.00537047259406519,19.5888975240847
-0.00435466492303172,19.5900742226467
-0.00342361743526823,19.5913026845102
-0.00257868056144733,19.5925910461101
-0.00182057303890454,19.5939498400611
-0.00114928725554466,19.5953930867513
-0.000563964540892388,19.5969401399665
-7.59227363764871e-05,19.5985687974528
0.000312250827157619,19.6002440193555
0.000617150592750699,19.6019841151228
0.000853634199367885,19.6038103003964
0.00103574663933388,19.6057509230751
0.00117719278877119,19.6078461710748
0.00129208045808261,19.6101579052975
0.00139641211399488,19.6127937293711
0.00151243897277763,19.6159855777996
0.00165767595303872,19.6197230319271
0.00183520562272871,19.6237139363494
0.00203580008095576,19.6277110739058
0.00224748356889774,19.6316032447765
0.00246788038325317,19.635471669572
0.0026956588559618,19.6393721273654
0.00293073072724987,19.6433466478388
0.00317417796118978,19.6474307031395
0.0034280642822227,19.6516568853585
0.00369525220424354,19.6560571221568
0.0039792871468732,19.6606643254167
0.00428441117167167,19.6655138917843
0.00461577119935588,19.6706450034096
0.00497992966479435,19.6761019616617
0.00534719560183895,19.6813864946233
0.00572956318326151,19.6866403644699
0.00612551773153841,19.6917972235448
0.00653982172009299,19.6968755036144
0.00697634179158704,19.7018761880883
0.00743996533576121,19.706807969256
0.00793578425001775,19.7116761239233
0.00846932381019191,19.7164844121537
0.0090465507176747,19.7212343353998
0.00967400225813688,19.7259256833016
0.0103589202285731,19.7305570891669
0.0111236190794895,19.7352090364461
0.0119842466592143,19.7398899596179
0.012961219869352,19.7446117359965
0.0140833096255065,19.7494025664812
0.015396224271087,19.7543277731224
0.0169901495783359,19.7595551571946
0.0191424997835364,19.765688372847
0.0208891438133615,19.7701545933558
0.0227368314563209,19.7746208138646
0.0242899063538546,19.7783553763909
0.0255828273419176,19.7816270807765
0.0266654196565071,19.7846924206366
0.0275297662179588,19.7876700991374
0.0281250268462679,19.7905088906426
0.0284520213616476,19.7933290195622
0.0284844268073572,19.7962803150929
0.0281263646276954,19.799660700207
0.0270988207090386,19.8039988479088
0.0261979394309119,19.8066737458097
0.0251394169944931,19.8093486437106
0.0240671372707232,19.8117951085135
0.022993499545915,19.8140986225278
0.021919178185216,19.8163226667973
0.0208470345556644,19.8185031631402
0.0197807188205437,19.8206629424821
0.0187239078478004,19.822818164709
0.0176800716427795,19.8249811993659
0.0166524102567554,19.8271621065338
0.0156438447623238,19.8293694873284
0.0146570224528148,19.8316110228912
0.0136943297175458,19.8338938338416
0.0127579027860543,19.8362247463433
0.0118496365104644,19.8386105042076
0.0109711989598573,19.8410579309998
0.0101240341388864,19.8435741051698
0.00930937827099481,19.8461664922648
0.00852826301142387,19.8488431183928
0.00776434618947905,19.8516792124317
0.00701631099499871,19.8547114868456
0.0062879612777185,19.8579635489138
0.00558324053326289,19.8614629318357
0.00490626619780644,19.865241529196
0.00426126546085042,19.8693364790554
0.00365246806215114,19.8737914228851
0.00308393189857126,19.8786585944387
0.00255931082363327,19.8840024060533
0.00208154885638823,19.8899063035905
0.00165278692283127,19.896481998933
0.00128511208122408,19.9036453836388
0.000985894609284596,19.9113965054376
0.000784666586695221,19.9187420263357
0.000619103007047206,19.9269171692411
0.000482606026672362,19.9361533036441
0.000379202170546099,19.9461533036441
0.000309530323125244,19.9561533036441
0.000264082300233295,19.9661533036441
0.000235919947247553,19.9761533036441
0.000220078357191482,19.9861533036441
0.000214734096500877,19.9930766518221
0.000212700910388031,20
