ecg,time
0.0104342586652993,15.0011494368568
0.0112009665188775,15.005773462644
0.0120655856185441,15.0104196226527
0.0130483390541064,15.0150977128597
0.0141777506287049,15.0198337100918
0.0154988711129498,15.0246887527622
0.0170995932345144,15.029819463328
0.0192416405324343,15.0357725339469
0.0210445060251072,15.0402504914938
0.0229623442795228,15.0447284490406
0.0245641320290425,15.0484308850155
0.0258963335396964,15.0516560071576
0.0270154486047246,15.0546690753165
0.027915826982005,15.0575905997426
0.0285454976153402,15.0603697592471
0.0289069935970651,15.0631235042758
0.0289768609060418,15.0659938975398
0.0286684152378472,15.0692512435669
0.0276753907455133,15.0735546465429
0.0267885289214901,15.0761898641813
0.0257366243750639,15.0788250818198
0.024668967185531,15.0812255485023
0.0235989663390283,15.0834787905845
0.0225271224930505,15.0856498787041
0.0214562526637312,15.0877751285424
0.0203900222898208,15.0898773353561
0.0193321264846375,15.0919724779415
0.0182860458543352,15.0940726807618
0.0172549819784134,15.096187723665
0.0162418500416351,15.0983259016275
0.0152492880269262,15.1004945614487
0.0142796684579847,15.1027004664948
0.0133351144031044,15.1049500517827
0.0124175079068388,15.1072496351814
0.0115285023693504,15.1096055840138
0.0106695351903562,15.1120244602055
0.00984183273838044,15.1145131791995
0.00904434865501753,15.1170860955963
0.00825704983114549,15.1198286090706
0.00748372963380699,15.1227598793707
0.00672814072149781,15.12590305991
0.00599428598632564,15.1292849296449
0.00528639544144423,15.1329365733536
0.00460887784198315,15.1368942405579
0.00396624125786971,15.1412004552403
0.00336295230594059,15.1459057034838
0.00280318162819057,15.151071666517
0.00229050654216682,15.1567768684193
0.00182762835441779,15.1631265048931
0.00142957917602677,15.1700070043413
0.00110228520849478,15.1774229539996
0.000879727762944764,15.1843755556853
0.000683068780992783,15.1925836312424
0.000523128267405515,15.2016782663916
0.000398389938898657,15.2116782663916
0.000312614326492533,15.2216782663916
0.000254548875232902,15.2316782663916
0.00021600223760246,15.2416782663916
0.000191088393789718,15.2516782663916
0.000175702145071312,15.2616782663916
0.000167048880489189,15.2716782663916
0.000163249812423269,15.2816782663916
0.000163049235060876,15.2916782663916
0.000165616526777029,15.3016782663916
0.000170418021554461,15.3116782663916
0.000177134482199701,15.3216782663916
0.000185607516390422,15.3316782663916
0.00019580535599558,15.3416782663916
0.00020780286765597,15.3516782663916
0.000221773089656722,15.3616782663916
0.000237989069631767,15.3716782663916
0.000256836041599493,15.3816782663916
0.000278835425654068,15.3916782663916
0.000304684061868032,15.4016782663916
0.000335314940579329,15.4116782663916
0.000371990266961264,15.4216782663916
0.000416445527522732,15.4316782663916
0.000470373523556176,15.4415537225339
0.000532090902073707,15.4506882815857
0.000602462643017493,15.4591151201783
0.000682645347838297,15.4668889013667
0.000773982749935403,15.4740612014064
0.000878005296942495,15.4806798715436
0.000996446953755271,15.4867893087356
0.00113127039041173,15.4924307233927
0.00128469742315378,15.4976423752503
0.00145924411013271,15.5024597885422
0.0016577610981784,15.5069159584741
0.00188348214333335,15.5110415505665
0.00214008197425602,15.5148650902421
0.00243174697944224,15.5184131468511
0.00276326423227334,15.5217105223362
0.0031401344584962,15.5247804491796
0.00356872075969254,15.5276448010555
0.00405644853378829,15.5303243315344
0.00461208439250965,15.5328389628912
0.0052461412890968,15.5352081576839
0.00596362212186242,15.5374292209225
0.00675717303799333,15.5394780261055
0.00763753959852861,15.5413899159135
0.00862117097233317,15.5432009275231
0.00973448921517816,15.5449511005429
0.0110266862223932,15.5466960852097
0.0126628943813766,15.5485976529364
0.0145993984436492,15.5505532009918
0.0161929549881164,15.5520109934009
0.0178754714644902,15.5534687858099
0.0193818733522492,15.5547531703137
0.0207239357917242,15.5559262141566
0.0219257869768372,15.5570499264779
0.0229848472682065,15.5581659815984
0.0238812655467884,15.5593138169196
0.0245756983619249,15.5605467634952
0.0249876061697131,15.5619702432448
0.0248409531524391,15.5639957564793
0.0241938524400514,15.5655566455394
0.023177261608553,15.5671175345996
0.0220141776335425,15.5685381677732
0.0207101930633138,15.5699471447428
0.0192732525453836,15.5713998252517
0.0177126308269696,15.5729338390561
0.0167356206813249,15.5738927888478
0.015780355506118,15.5748517386395
0.0144525930871239,15.576258300776
0.0120194529965559,15.5791211440204
0.00993055018421822,15.5819805647222
0.00828109927099449,15.5846149003381
0.00693826567154823,15.5871050250381
0.00576625654048284,15.5896291263734
0.00473646661034586,15.5922185848072
0.0038296492484926,15.5948969185575
0.00303039512930009,15.5976874344918
0.00238163823223182,15.6003631083573
0.00185703187755759,15.6028942227957
0.00142292727660907,15.6053196197899
0.0010546374235369,15.607682928481
0.000734292104865709,15.6100294245565
0.000448175346990448,15.6124120129484
0.000182238639108992,15.6149268033388
-9.35679309163623e-05,15.6179109585284
-0.000264304171638137,15.6199877032112
-0.000420485588506095,15.6220644478939
-0.000548383102288314,15.6239042412875
-0.000658182413177458,15.6255915258929
-0.000760152829093982,15.6272527947038
-0.000861048027039043,15.6289895985724
-0.000968457388160462,15.6309431548254
-0.00109970015049634,15.6334788994015
-0.00131071550826988,15.6378958165832
-0.00147805808452209,15.641692474443
-0.00161650362962816,15.6450268693405
-0.00176131153374497,15.6487077881299
-0.00193509462976225,15.6534365108418
-0.00211636869743568,15.6590135747797
-0.00223657949633527,15.6638535436417
-0.00229224681456401,15.6682169137237
-0.00227225270911033,15.6721214617026
-0.00216867964557125,15.6756371565471
-0.00197520089053978,15.6788342659495
-0.00168497258915342,15.6817870488592
-0.00128968674701648,15.6845565666759
-0.000777494258191654,15.6872000688016
-0.000124650253565501,15.6897966763687
0.000717749254659584,15.6924615848268
0.00189140806808652,15.6954740468351
0.00338235869578945,15.69865999317
0.00522887615872428,15.7020420880321
0.00650142876405455,15.7041165213828
0.0079033127951938,15.7061909547336
0.00933413323319183,15.7080920732409
0.0108373342491746,15.7098706262824
0.012397106701423,15.7115013676976
0.0141063283736122,15.7130704737243
0.0159745661021178,15.7145665824675
0.0180506180528321,15.7160101015838
0.0203568048587275,15.7173973948352
0.0229306861268963,15.7187339439745
0.0258067502015836,15.7200212957054
0.0290183298390443,15.7212596086247
0.0326132523961054,15.7224534149877
0.036640916349205,15.7236053764477
0.041158537645464,15.7247184501593
0.0462314487241011,15.7257955127423
0.0519412611578688,15.7268405579333
0.0583825896935384,15.7278572087733
0.0656691677069313,15.7288493098215
0.073939510488118,15.7298210192787
0.0833639830063387,15.7307768539232
0.0941587796858076,15.7317221424945
0.106601525858846,15.7326630975369
0.121060289401729,15.7336074149609
0.138042454886006,15.7345652028039
0.158286650357641,15.7355507764501
0.181786784792742,15.7365406978848
0.209086122166737,15.7375416426212
0.240989661359656,15.7385675120827
0.278659161538874,15.7396402335571
0.323009424073065,15.7407764829009
0.365247727072794,15.7417841975123
0.400168573472522,15.7425976924553
0.43024507391046,15.7433119106572
0.456539807743634,15.7439757084296
0.479258645365524,15.7446170665271
0.498158897983031,15.7452581608407
0.512563457060743,15.7459223991434
0.521092775225736,15.7466423889103
0.520892755182549,15.7474493929583
0.509549983557239,15.7482720728923
0.485829538976575,15.749127083349
0.448080418659889,15.7500269437828
0.394422842281721,15.7509804710473
0.349432240598002,15.75164381328
0.299058150668679,15.7523071555128
0.254224971657913,15.7528574321563
0.216011198848784,15.753312551353
0.182560968453879,15.7537101420888
0.152656494799345,15.7540723205726
0.125579565645444,15.7544122959391
0.100849704920649,15.7547393133178
0.0780885237866314,15.7550612347004
0.0569240540219588,15.7553866919685
0.0368329495391727,15.755729262665
0.0164475608953878,15.7561265118063
0.00809317777064878,15.7563097885384
0.000384040387286604,15.7564930652705
-0.00741228202851638,15.7566956827521
-0.013931151824297,15.756881847254
-0.0198706573287438,15.7570682381465
-0.0258479375461839,15.7572763409059
-0.0316163791264983,15.7575025483808
-0.0370180066683506,15.7577446462676
-0.0419653719528494,15.7580018491998
-0.0464131039453065,15.7582743169113
-0.0503411057391636,15.7585628843659
-0.0538774016559779,15.7588834235932
-0.0566905942325666,15.7592070022281
-0.0589888536369988,15.7595519807607
-0.0607877370236282,15.7599215448275
-0.0621015627647331,15.7603193486625
-0.0629439664717796,15.7607499044874
-0.0633263981192307,15.7612188402624
-0.0632564527506734,15.7617332822796
-0.0627356460486014,15.7623025407761
-0.061753755656691,15.7629403975573
-0.0602854217555353,15.7636647973303
-0.0582790679580273,15.7645029067707
-0.0556275203770545,15.7655016256954
-0.0520572177651134,15.7667670776677
-0.0480153582421016,15.7681624724559
-0.0441079104407099,15.7695118006667
-0.0403834245839876,15.7708198683196
-0.0368653670849717,15.7720890681223
-0.033565562442973,15.773320305929
-0.0304889710442736,15.7745137330218
-0.0276358680378449,15.7756691356162
-0.0250030416074346,15.7767861397336
-0.0225845904553606,15.7778643166039
-0.0203725429634391,15.7789032320841
-0.0183573838219774,15.7799024627576
-0.0165285188935204,15.7808615909201
-0.0148746877014307,15.7817801851488
-0.013311773684422,15.7827018696793
-0.0118089098429843,15.7836472164288
-0.0103704659862131,15.7846179076865
-0.00900036184909171,15.7856160995046
-0.00770231420389057,15.7866443251335
-0.0064797848493468,15.7877055903034
-0.00533592854703087,15.7888034974376
-0.00427353870555912,15.7899424134157
-0.00329499070108541,15.7911277015697
-0.00240218227553039,15.7923660515536
-0.00159646972309009,15.7936659641505
-0.000878597270364301,15.7950384928797
-0.000248614577636349,15.7964984359826
0.000294227887549798,15.7980663768819
0.000735119614733,15.7997018321617
0.00107903089989229,15.8013871440679
0.00134185325285811,15.803140694352
0.00153798438018222,15.8049847391703
0.00168099353832001,15.8069492827354
0.00178406623524825,15.8090774054227
0.00186069257596511,15.8114366187273
0.00192607118692542,15.814147775638
0.00200145228783066,15.8174868065711
0.00210069483049435,15.8212382700993
0.00222870011776316,15.8251419685984
0.00237582435025785,15.8289413333251
0.00253838624928971,15.8327130839311
0.00271305028268918,15.8365119738357
0.0028976828242824,15.8403790351481
0.00309153759101,15.8443486278431
0.00329513263843497,15.8484521528996
0.00351004030065659,15.8527202511756
0.00373868321374553,15.8571843696746
0.00398420165990054,15.8618781071394
0.00425047746863718,15.8668386803535
0.00454239007401825,15.8721082292161
0.00486640386826385,15.8777350625631
0.0051932316350676,15.8831485009593
0.00553472814944921,15.8885139244169
0.00588955035424829,15.8937623537955
0.00626245011591419,15.898920946964
0.00665700274378025,15.9039939488342
0.00707758014027643,15.9089923292966
0.00752862076316766,15.9139224024135
0.00801490050638832,15.918788529665
0.00854156773321944,15.923592604862
0.00911427825083332,15.9283346913839
0.00973930271431863,15.9330133618899
0.0104236444759858,15.9376262057056
0.0111889800838915,15.9422497441924
0.0120520094634082,15.9468955763835
0.0130328184880679,15.9515730567316
0.0141597765287202,15.9563078817548
0.0154775725082614,15.9611603941209
0.0170730391774148,15.9662848451016
0.0192022425284505,15.9722152191184
0.0210132741887891,15.9767207911452
0.0229418489987902,15.981226363172
0.0245481080464186,15.9849384009022
0.0258828704217886,15.9881671167633
0.0270042316458548,15.9911815857819
0.0279075989954436,15.9941053622069
0.0285401113352589,15.9968854625866
0.0289045236238464,15.9996388171215
0.0289777715265398,16.0025069694201
0.0286743720449917,16.0057573976034
0.0276859833394558,16.0100639948079
0.0268002005973172,16.0127030965379
0.0257483998077536,16.0153421982679
0.0246807267716594,16.0177449361017
0.0236107512517476,16.0199993943982
0.0225389148405719,16.0221711681539
0.0214680137911526,16.0242967942525
0.0204017101120434,16.0263991710767
0.019343700436589,16.0284943330881
0.0182974682291517,16.0305944378675
0.0172662181841947,16.0327092861889
0.016252868590232,16.0348471865763
0.0152600603391552,16.0370154947925
0.0142901687528839,16.0392209798494
0.0133453195817272,16.0414700799846
0.0124273973210907,16.0437691147007
0.0115380579108062,16.0461244509219
0.0106787409240429,16.0485426495099
0.00985067503515954,16.0510306229521
0.00905309948499112,16.0536017679745
0.00826566808501924,16.0563423146755
0.00749217504094672,16.0592713809887
0.00673637006138072,16.0624120841519
0.00600225333035103,16.0657911599704
0.00529405248862893,16.0694396420698
0.00461617460503241,16.0733937185036
0.00397312713513014,16.077695838309
0.00336937833202351,16.0823963878116
0.00280910359328293,16.0875569036352
0.00229588873688521,16.0932556819201
0.00183244525457887,16.0995975662169
0.00143364013615346,16.1064726061575
0.0011055676957398,16.1138820282749
0.000884021523958146,16.1207737107845
0.000686005151701345,16.1289958921067
0.00052561196463557,16.1380710663581
0.000400191786646746,16.1480710663581
0.000313940868246304,16.1580710663581
0.000255548421709992,16.1680710663581
0.000216781452186105,16.1780710663581
0.000191722601363004,16.1880710663581
0.000176243734514104,16.1980710663581
0.000167534215179815,16.2080710663581
0.000163704438586869,16.2180710663581
0.000163491513910254,16.2280710663581
0.000166060077504009,16.2380710663581
0.000170873378190096,16.2480710663581
0.000177610263708441,16.2580710663581
0.000186111300196854,16.2680710663581
0.000196344373549943,16.2780710663581
0.000208384604407645,16.2880710663581
0.000222405857559651,16.2980710663581
0.000238682618731871,16.3080710663581
0.000257602285716802,16.3180710663581
0.000279689378158025,16.3280710663581
0.00030564511785624,16.3380710663581
0.000336408714271179,16.3480710663581
0.000373251322087302,16.3580710663581
0.000417921571359129,16.3680710663581
0.000472027243180939,16.3779297102961
0.000533940669720405,16.3870480935573
0.00060453319988169,16.3954599900205
0.000684965683481929,16.4032199979891
0.000776586045389423,16.4103796101261
0.000880929241322873,16.4169866000492
0.000999734290719811,16.4230852932222
0.00113496957776099,16.4287168340044
0.00128886341082706,16.4339194208848
0.00146393920411856,16.4387285214681
0.00166305602379457,16.4431770787749
0.00188945726411643,16.4472957104195
0.00214682882906112,16.4511128979864
0.00243937013048291,16.4546551711002
0.00277188364178113,16.4579472962951
0.00314988856223165,16.4610124752311
0.00357977051704011,16.4638725558345
0.00406898302592929,16.4665482719717
0.00462632876648067,16.4690595338457
0.00526236853702294,16.4714258022806
0.00598152576701042,16.4736426738216
0.00677696169939375,16.4756881125387
0.00765953338505484,16.4775974728255
0.00864585873926043,16.4794068266906
0.00976270588559464,16.4811564199993
0.0110601451256617,16.4829025822458
0.0127087253714176,16.484811982762
0.0146216737635413,16.4867395630604
0.0162145673965244,16.4881956313231
0.0178954775435508,16.4896516995859
0.0193990902815113,16.4909341416671
0.0207389346296686,16.4921063004302
0.0219386935114499,16.4932297769459
0.0229955098071041,16.4943461125459
0.0238893092279666,16.4954948169622
0.0245804054884309,16.4967295746565
0.0249873201970961,16.4981571445363
0.024826540984977,16.500201186892
0.0241717793764458,16.5017565891536
0.0231523532906671,16.5033119914153
0.0219865948184326,16.5047315352911
0.0206799903161528,16.5061410293176
0.0192406545028645,16.5075950354346
0.0176778236763499,16.5091310831067
0.0167005428751558,16.5100906403007
0.0157459897256109,16.5110501974946
0.0142334379944679,16.5126631608633
0.0117771961598618,16.5155943021342
0.00973691948638186,16.5184336073556
0.00812631517574988,16.5210476670853
0.00680370429256385,16.5235399108892
0.00564823398822264,16.5260699589118
0.00463264342582832,16.5286679905013
0.00373819518939666,16.5313574028351
0.00294979798976892,16.5341615997319
0.00231600192107793,16.5368242224752
0.00180251401250651,16.5393453366369
0.00137652895140945,16.5417653044288
0.00101418056404159,16.5441280464058
0.000698184437304205,16.5464790982638
0.000415100207575406,16.5488730322259
0.000150431507695752,16.5514152104694
-0.000130671215665647,16.5545112099207
-0.000293217096253943,16.5565236388763
-0.0004424753814747,16.558536067832
-0.000566964605139147,16.5603467929004
-0.000675249716076845,16.5620269159017
-0.000776664466131733,16.5636938788352
-0.000877827023653635,16.5654502254257
-0.000986792357598008,16.5674492733218
-0.00112413787973308,16.5701293695348
-0.00133204867750524,16.5745225948172
-0.00149344825559133,16.5782078477992
-0.00163049292602081,16.5815227605049
-0.00177637251840057,16.5852462443149
-0.00195297169820477,16.5900816519006
-0.00212979171649415,16.5955930408435
-0.00224575360545806,16.6003987877186
-0.00229607163866613,16.6047272868976
-0.00226988372643864,16.6086017807368
-0.00215942303493353,16.6120927041103
-0.00195841130501044,16.6152708982145
-0.00165993101673162,16.6182099276949
-0.00125555813164788,16.6209698813332
-0.000733024157871488,16.623608347543
-6.74467751422091e-05,16.6262061884306
0.000792210687531189,16.6288809793649
0.00198629599569041,16.6319024145361
0.00350175497996029,16.6351020464931
0.00536921516485252,16.6384858139098
0.00664719738385345,16.6405462658266
0.00805604452851719,16.6426067177434
0.00948407560268759,16.6444805751155
0.0109926424948616,16.64624261901
0.0125640109755035,16.6478636802463
0.0142877152581104,16.6494243080165
0.0161762025949666,16.650915203868
0.0182745231498409,16.6523530294645
0.0206071707827839,16.6537355700991
0.0232098684719643,16.6550669886473
0.0261183580754106,16.6563494467068
0.0293665366340279,16.6575832042091
0.0330026277487221,16.6587727119295
0.0370769259996784,16.6599207110559
0.0416477248370584,16.6610302161263
0.0467812912029499,16.6621040718918
0.0525605654186636,16.6631462672262
0.0590820145077923,16.664160462757
0.066461658869828,16.6651505327067
0.0748410031540868,16.6661206769936
0.084394769423907,16.6670755069553
0.0953442143505175,16.6680203872106
0.107975186256073,16.6689616903181
0.122667870769102,16.6699073319996
0.139949152129464,16.6708677887687
0.160562746471804,16.6718567454451
0.18442740162258,16.6728477922132
0.212165705818615,16.6738512051205
0.244611596421453,16.6748815259057
0.282986826677652,16.6759621739673
0.327767899870788,16.6770997543301
0.368976150232467,16.678079510825
0.4032475447829,16.6788791813868
0.432871478215783,16.6795868787867
0.458766981315493,16.6802477076548
0.481080485268785,16.6808885294186
0.499526561373985,16.6815313413436
0.513372974680426,16.6822000331657
0.521132793242703,16.6829288666488
0.519840282866063,16.6837369933641
0.507307680193867,16.6845625154658
0.482255566578546,16.6854217149764
0.443002657094806,16.6863266340202
0.38766301902691,16.6872859645908
0.343284039889564,16.6879293003501
0.293973931099473,16.6885726361095
0.25002794680626,16.6891099354041
0.212402069345647,16.6895578129101
0.179369108953166,16.6899511316992
0.149788817846293,16.6903106627321
0.122977786388343,16.6906490400682
0.0984713081951067,16.690975272283
0.0758964974057439,16.6912971918001
0.0548763046875912,16.6916236628073
0.0348548011371873,16.6919692480239
0.0142444538255008,16.6923776671891
0.0017830874740563,16.6926630144435
-0.00558790593221229,16.6928509723487
-0.0123238154979486,16.6930389302539
-0.018181860897016,16.6932181280243
-0.024172802014685,16.69342052772
-0.0300180795721794,16.6936420280866
-0.0355322666606613,16.6938798753716
-0.0406115911011535,16.6941329401598
-0.0452009981530063,16.6944011520787
-0.049274528157181,16.6946851744982
-0.0528174743663962,16.6949862431071
-0.0558457904437542,16.6953087182191
-0.058302551979926,16.6956468068561
-0.0602551478620342,16.6960084277765
-0.0617183057406559,16.6963970678322
-0.0627060285609304,16.6968169482318
-0.0632306103566468,16.6972733142781
-0.0633010446606076,16.6977727720519
-0.0629210924568013,16.6983238040071
-0.0620847571481653,16.6989387259827
-0.0607720840148921,16.6996338466673
-0.0589415944864233,16.7004327752959
-0.0565090387649799,16.7013742687523
-0.053278492745445,16.7025368409033
-0.0492088046265341,16.7039493805401
-0.0452543442404997,16.7053119697062
-0.0414720952597241,16.7066320626993
-0.0378907791902811,16.7079127566659
-0.0345250226349021,16.7091553113356
-0.0313815481706948,16.7103600547543
-0.0284618824273003,16.7115268568025
-0.0257637626199587,16.7126553783095
-0.023282021806114,16.7137452006196
-0.0210092491541845,16.7147958888865
-0.0189363396732172,16.7158070166169
-0.0170529761868514,16.7167781661424
-0.0153480571799386,16.7177089130512
-0.0137682580076072,16.7186237555131
-0.0122469656601559,16.7195619284483
-0.010788894685914,16.7205248648029
-0.00939801422773406,16.7215146241469
-0.00807810723014013,16.7225336183252
-0.00683271667365065,16.7235847010084
-0.005665094218772,16.7246712817289
-0.00457814654813487,16.7257974789341
-0.00357437941681498,16.7269683300698
-0.00265583900466156,16.7281900876839
-0.00182404953927288,16.7294706500708
-0.0010799450641714,16.7308202116659
-0.000423791196590544,16.7322522919101
0.000144911399859132,16.7337854607408
0.000618188428174183,16.7354096081712
0.000989223583144624,16.7370781245662
0.00127467907494216,16.7388093118847
0.00148926529521575,16.7406237167662
0.00164675978871685,16.7425486382653
0.0017604074151567,16.7446224589612
0.00184351219801765,16.746903585915
0.00191053370157788,16.7494918016511
0.00198002248073495,16.7525948769369
0.00207315644317839,16.7563284024017
0.00219522378543942,16.7602669528852
0.00233739218428949,16.7640833599048
0.00249616797211701,16.7678560145085
0.00266800051993215,16.7716445894693
0.00285036555051275,16.775492509792
0.00304212302238949,16.7794352905877
0.00324345206985598,16.7835047902209
0.00345565430248054,16.7877316700437
0.0036809421653317,16.7921470718109
0.00392227861682973,16.7967839616465
0.00418335352398359,16.8016785844255
0.00446877222133718,16.806871802994
0.00478456100071041,16.812410483212
0.00511069759163204,16.8178789866235
0.00544844947318108,16.8232585595932
0.00579968302609683,16.8285350660044
0.00616778188335641,16.8337150784155
0.00655660801767598,16.8388082314307
0.00697036038970529,16.8438243532235
0.00741345114587728,16.8487708372187
0.00789056615847122,16.853652544669
0.00840674964472876,16.8584719269386
0.00896752065752093,16.8632294620113
0.00957898693260069,16.8679240508828
0.0102479577908256,16.8725534636309
0.0109911871107978,16.8771687737752
0.0118285772702356,16.8818093324658
0.0127780395482196,16.886477274894
0.0138656070387431,16.8911942042088
0.0151305891931975,16.8960086610271
0.0166447366781501,16.9010411517555
0.0185919332561989,16.9066635607267
0.0210641802688054,16.9129067441455
0.0226269966319765,16.9165653990686
0.0242143994383766,16.9202240539916
0.025597195436438,16.9235183754714
0.0267654573543874,16.9265655699069
0.027726415085603,16.9295218942338
0.0284195272943293,16.9323244460467
0.0288456401521589,16.9350729315658
0.0289891528970024,16.9378992537671
0.0287860327173921,16.9410218830383
0.0279342940578796,16.945257931814
0.0270742734046618,16.9480051364917
0.0260217539508881,16.9507523411694
0.0249528210937693,16.9532136150483
0.0238833358995572,16.9554983601384
0.0228117714197489,16.9576869877864
0.0217403007184882,16.9598218497466
0.0206724740680215,16.9619284506647
0.0196120152548218,16.9640242009282
0.0185624720561384,16.9661220643671
0.017527121902548,16.9682323428504
0.0165089558509632,16.9703636640184
0.0155106838371453,16.9725235877468
0.0145347477025839,16.974719004466
0.0135833357465454,16.9769564154389
0.012658391770395,16.9792421561481
0.0117616306132383,16.9815825626853
0.0108945452892939,16.9839841346806
0.0100584157161382,16.9864536861204
0.0092543263312532,16.9889984694227
0.00846399550897563,16.9916943300843
0.00768663379079943,16.9945735502948
0.00692598502623919,16.9976582280038
0.00618598766093092,17.0009741207913
0.00547081571014306,17.0045510952953
0.00478483384905691,17.0084239547489
0.00413253613299925,17.0126334235823
0.0035184197984189,17.0172276517049
0.00294676004969924,17.0222649509102
0.00242132701980795,17.02781858427
0.0019450645159558,17.0339855566186
0.00152875480924613,17.0407388932242
0.00126019273665138,17.0461385794379
0.00104872516592776,17.0515382656516
0.00082226669024925,17.0591464358879
0.000636875220796354,17.0675454752244
0.000487627171300323,17.0768008815362
0.000373918382329783,17.0868008815362
0.000296029166178918,17.0968008815362
0.000243558290728142,17.1068008815362
0.000208934647457494,17.1168008815362
0.000186762335247406,17.1268008815362
0.000173308119776075,17.1368008815362
0.000166042325189325,17.1468008815363
0.0001632671914856,17.1568008815363
0.000163849714974755,17.1668008815363
0.000167044086299058,17.1768008815363
0.000172377280657342,17.1868008815363
0.00017957514925292,17.1968008815363
0.000188514413400198,17.2068008815363
0.000199192409995737,17.2168008815363
0.0002117102403717,17.2268008815363
0.000226267052215275,17.2368008815363
0.000243164556242102,17.2468008815363
0.000262822168379041,17.2568008815363
0.000285804719379213,17.2668008815363
0.00031286680580502,17.2768008815363
0.00034502108368001,17.2868008815363
0.000383643085744075,17.2968008815363
0.000430634312527657,17.3068008815363
0.00048657826066243,17.3164695154814
0.000550526466723568,17.3254052640501
0.000623424085816314,17.3336486236062
0.000706478030738593,17.3412534259241
0.000801080954523296,17.3482701901209
0.000908815876467411,17.3547457877074
0.00103147573818992,17.3607237139107
0.00117108994875272,17.3662443460615
0.00132995618107516,17.3713451715091
0.00151067643112576,17.3760610000999
0.00171619972348851,17.3804241683292
0.00194987243775678,17.38446473626
0.00221549983380188,17.3882106743812
0.00251742055002747,17.3916880480623
0.00286060165420022,17.3949212083218
0.00325076000897118,17.3979329923866
0.00369452246386207,17.4007449398178
0.00419964410726392,17.4033775421788
0.00477531525143905,17.4058505498599
0.00543261235080651,17.4081833750133
0.00616971110768359,17.4103540833075
0.00698533583563965,17.4123620812314
0.00789154315420369,17.414242799328
0.00890680466585012,17.4160326968857
0.0100617704395906,17.4177743190352
0.011416740445646,17.4195318403072
0.0132087763710706,17.4215306787912
0.0149335383250398,17.4232225193198
0.0168191923268663,17.4249143598485
0.0184803890675756,17.426337528471
0.019921054986531,17.4275711112299
0.0212085183479652,17.4287192364325
0.0223570931268619,17.4298352782097
0.0233571141874382,17.4309583339417
0.0241821654657866,17.4321309047568
0.0247815792223919,17.4334189129568
0.0250392523112939,17.4349799638863
0.0246953782771951,17.4368260421389
0.0237467711299382,17.4386721203914
0.022642021831474,17.4401641857103
0.0214078275048405,17.4415719692727
0.0200376108560018,17.4429971220818
0.0185393454792352,17.4444846070237
0.0169204461857086,17.4460717217241
0.0152126823005201,17.4478041706456
0.0138278600217039,17.4493169813944
0.01145009901523,17.4522194703159
0.00948448001505447,17.4550166588013
0.00792437388425348,17.4576033595251
0.00662784009023769,17.4600988377764
0.00549379888926522,17.4626370642549
0.00449666159061918,17.4652466998381
0.00361832270267805,17.4679510182199
0.00284767733245755,17.4707593177565
0.00223337893674374,17.4734015174055
0.00173429409757493,17.4759066818348
0.00131884226233018,17.4783166378587
0.00096425520229645,17.4806753684054
0.000654034723973825,17.4830283380862
0.000375095230161473,17.4854320389246
0.000112296315215209,17.4880044158317
-0.000176467467795935,17.4912549478888
-0.000330774249526449,17.4932089278962
-0.000473005435257491,17.4951629079035
-0.000592985825102953,17.4969355950638
-0.000699091358373665,17.4986046597605
-0.000799680465805349,17.5002791919146
-0.000901286398733,17.5020650350119
-0.00101287588075727,17.5041381591085
-0.00116232476740704,17.5070994256361
-0.00133801191602693,17.510847816564
-0.00147538286535725,17.5139758345071
-0.00160257015554159,17.5170233847049
-0.0017407096607898,17.5205022448705
-0.00190504736715511,17.52490429849
-0.00209758264065071,17.530652217965
-0.00222724096931008,17.5355694845247
-0.00229433866867165,17.5400124841732
-0.00228708118554769,17.5439893002294
-0.00219721193096571,17.5475630513523
-0.00201812308055473,17.5508094286748
-0.00174336150851167,17.5537989738848
-0.00136515403235975,17.5565945896161
-0.000872818897126339,17.5592528499251
-0.000247987196868827,17.5618391509166
0.000553399818062315,17.5644690074525
0.00165401540111152,17.5673934006583
0.00308197027739974,17.5705392694698
0.00486668965691264,17.5738947124734
0.00619276359675596,17.5761072672549
0.00765835097771775,17.5783198220364
0.00909149071063,17.580260512853
0.0105619548582075,17.582036725563
0.0121044637850667,17.5836868550117
0.013782366513322,17.5852649921586
0.0156185830097928,17.5867732716663
0.017656321249112,17.5882276396222
0.0199179738299907,17.5896248785593
0.0224420214133659,17.5909714115848
0.0252596771562968,17.5922674068006
0.0284072864524953,17.593514682046
0.0319297890967137,17.5947168761082
0.03587526107915,17.5958766012093
0.040296880469984,17.5969961937768
0.0452628113461992,17.5980797182627
0.0508502570271425,17.5991305985236
0.0571507614325124,17.6001524096301
0.0642742434878071,17.6011489551864
0.07235358765261,17.6021242553595
0.0815535007758737,17.6030828583314
0.0920809421069565,17.6040299343293
0.104200753404058,17.6049714969707
0.118262164232169,17.6059149380896
0.134742856752772,17.6068698542149
0.154330946645882,17.6078496539378
0.177203829445482,17.6088391121935
0.203754022792365,17.609837645221
0.234743526005944,17.6108582923736
0.271250130474944,17.6119210268369
0.314804321502832,17.6130571881421
0.349405240155836,17.6138957687721
0.385208123431034,17.6147343494021
0.41707088257288,17.6154818672949
0.444966048063769,17.6161643413292
0.469266825126452,17.6168132878865
0.489906282576663,17.6174522607484
0.506414796158747,17.618103328566
0.517785300996975,17.6187935992931
0.521925736180144,17.6195676167126
0.51571369987159,17.620381351262
0.497742917590627,17.6212201984562
0.466537174373513,17.622098703294
0.420293377692903,17.6230270121451
0.373228452547518,17.6237815331994
0.318572352664494,17.6245360542538
0.270112228993096,17.6251444357833
0.229574289971029,17.6256311720064
0.194535225695796,17.6260471088728
0.163423304347519,17.6264207111888
0.135366915793046,17.6267678246224
0.109817817131526,17.6270987982336
0.0863715621595303,17.6274217715289
0.0646662610287942,17.6277447872749
0.0442662576552296,17.6280787349767
0.0243092064769021,17.6284470132795
0.00866758320395173,17.6287779556363
2.47081218785501e-05,17.6289833518563
-0.00783544959778765,17.6291887480763
-0.0142989448895641,17.629374490984
-0.0202501884863527,17.6295625208848
-0.0262192838209676,17.6297719667162
-0.031966354112942,17.6299993200627
-0.0373392375365807,17.630242479629
-0.0422539512892253,17.6305007331941
-0.0466671874991301,17.6307742904808
-0.0505601011748278,17.6310640247786
-0.0541379148087776,17.6313941384856
-0.0569033878149011,17.6317197960978
-0.0591541747043029,17.6320669974406
-0.0609069704019135,17.6324390929556
-0.0621760991314088,17.6328398095165
-0.0629750528195424,17.6332737502152
-0.0633149942908915,17.6337466627615
-0.0632030623968651,17.6342658371479
-0.062639912874947,17.6348409481809
-0.0616141396199955,17.635486058442
-0.0600985936875108,17.6362197414714
-0.0580383006860618,17.6370703696427
-0.055317936566945,17.6380877529465
-0.0516328228273716,17.6393891108923
-0.0476022020397754,17.6407793623915
-0.0437121463871813,17.6421243389469
-0.0400081560219689,17.643428378814
-0.0365121872368676,17.6446936802326
-0.0332352260907549,17.6459210513011
-0.030181685246669,17.6471105955199
-0.0273514410482323,17.6482620775428
-0.0247409752946579,17.6493751154548
-0.0223441488033907,17.6504492792241
-0.0201528089775199,17.6514841360746
-0.0181573095388955,17.6524792640823
-0.0163469699548321,17.6534342455024
-0.0147104827628903,17.6543486461367
-0.0131533741480389,17.6552726903091
-0.0116568339730251,17.6562205146501
-0.010225117251807,17.657193886861
-0.00886212594909208,17.6581949972605
-0.00757155332086684,17.6592264222418
-0.0063568324707027,17.6602912216843
-0.00522108404895652,17.6613930668815
-0.00416706170471984,17.6625364137027
-0.00319709514114818,17.6637267426782
-0.00231303015587353,17.6649709014269
-0.00151616427478655,17.6662776097849
-0.000807175201929395,17.6676582360005
-0.000186036641233383,17.6691280514141
0.000348089561010492,17.6707083940982
0.000778252095173976,17.672348051476
0.00111319704976555,17.6740394916279
0.00136857697761143,17.675801183056
0.00155868952673388,17.6776560225299
0.00169704256931231,17.6796350455179
0.00179681628510424,17.6817831556916
0.00187159305433764,17.6841714969454
0.00193689989765403,17.6869297356014
0.00201525622472895,17.690365317847
0.00211731595377925,17.6941300220428
0.00224740210046292,17.6980139380613
0.00239636077675651,17.701805869312
0.00256045192554971,17.7055784563424
0.00273643149668421,17.7093840500903
0.0029223029097934,17.7132625281094
0.00311745497527422,17.7172476995011
0.00332252517351767,17.7213707636397
0.00353918712716283,17.7256623866382
0.00376995074352286,17.7301542148624
0.00401804324239588,17.7348802310612
0.00428745632524433,17.7398782167895
0.00458323818052238,17.745191051946
0.00490771452812262,17.7507924892992
0.00523640946063283,17.7562010245061
0.00557950889709024,17.7615510864588
0.00593650447981957,17.7667874741362
0.0063120071197734,17.771934414903
0.0067097087293029,17.7769973154139
0.00713398739002344,17.7819865290704
0.00758932333333664,17.786908139622
0.00808053512635799,17.7917661649917
0.00861283141076332,17.7965622449025
0.00919194197149449,17.8012962285279
0.0098242257184038,17.8059665287004
0.010516791308564,17.8105706598338
0.0112940036621608,17.8151985069909
0.0121708512005607,17.8198473373413
0.0131686214891035,17.8245303281325
0.0143170791536723,17.8292757728204
0.0156642174144328,17.8341513122547
0.0173067770183069,17.8393333891007
0.0195571411760143,17.845482565293
0.0213003077502022,17.8497581815987
0.0231392879063927,17.8540337979044
0.0247045177340239,17.857659378822
0.0260143075694011,17.8608542429316
0.0271133891717207,17.8638556287853
0.0279871858883908,17.8667578686155
0.0285914712373135,17.8695293006099
0.0289267777189192,17.8722872696806
0.0289660347006452,17.8751789562748
0.0286108328156254,17.8785025951389
0.0278435035328112,17.8818743540588
0.0267294057870334,17.8852461129787
0.0256367277918339,17.8879563909676
0.0245654922334232,17.8903464167973
0.0234950092110141,17.8925900138599
0.0224230876163785,17.8947554411987
0.0213524924382833,17.896877647574
0.0202869022154828,17.8989785883656
0.019229996422746,17.9010737752036
0.0181852296594948,17.9031750546937
0.0171557755487717,17.9052920325723
0.0161445215004782,17.9074328932238
0.0151540793359063,17.909604913144
0.01418679655155,17.91181481466
0.013244771954855,17.9140690146433
0.0123298655643465,17.9163738278369
0.0114437082448218,17.9187356376592
0.0105877173974524,17.9211610324838
0.00976309923283351,17.9236569715889
0.00896647383766045,17.9262457258256
0.00818039646662613,17.9290058353959
0.0074086546638378,17.9319568296278
0.00665502640777422,17.9351221897835
0.00592353782932403,17.9385290858831
0.00521843866109672,17.9422090696645
0.00454415151859635,17.9461989518262
0.00390518819684302,17.9505419467492
0.00330599541486086,17.9552894941769
0.00275070418816249,17.9605045909061
0.00224281619380866,17.9662678648996
0.00178493959804267,17.9726878132394
0.00139358719227169,17.97961764737
0.00107423164912834,17.9870925433672
0.00082198557359227,17.9953988951497
0.000647852405382471,18.0032379455342
0.00049415755362579,18.0125980142466
0.000378498068346657,18.0225980142466
0.000299141871033129,18.0325980142466
0.000245603487343742,18.0425980142466
0.000210230368305192,18.0525980142467
0.000187540455685064,18.0625980142467
0.000173726438882809,18.0725980142467
0.00016620476146759,18.0825980142467
0.000163241973607173,18.0925980142467
0.000163681938307273,18.1025980142467
0.000166763323061451,18.1125980142467
0.000172002073637877,18.1225980142467
0.000179115788830011,18.1325980142467
0.000187974733568844,18.1425980142467
0.000198570912022248,18.1525980142467
0.000211000665164932,18.1625980142467
0.000225458451905647,18.1725980142467
0.000242240871571681,18.1825980142467
0.000261761262373748,18.1925980142467
0.000284576735316774,18.2025980142467
0.000311431594675865,18.2125980142467
0.000343324253381024,18.2225980142467
0.000381609900524506,18.2325980142467
0.00042816009685742,18.2425980142467
0.000483766277171998,18.2523034938412
0.000547341466625437,18.2612746012193
0.000619816433626465,18.2695505408395
0.000702389504505715,18.2771853043277
0.000796445054421297,18.2842296089361
0.000903557221838711,18.2907305089308
0.00102550900511911,18.29673166716
0.00116431857239212,18.3022736153687
0.0013222708332537,18.3073939836328
0.00150195333775226,18.3121277134715
0.00170629858321511,18.3165072625575
0.00193863403734346,18.3205628022454
0.00220274306543452,18.3243224050061
0.0025029387543022,18.3278122288835
0.00284415798856722,18.3310567080203
0.00323208137302908,18.3340787529336
0.00367329149402792,18.3368999658009
0.0041754880823543,18.3395408884008
0.00474779021610236,18.3420213060793
0.00540117944496037,18.3443606455529
0.00613498494292102,18.3465400877641
0.0069469043749591,18.3485552326785
0.00784877496517787,18.3504415068698
0.00885872474903508,18.3522353018312
0.010006673737549,18.3539787378692
0.0113509463258808,18.3557344921418
0.0131152010400433,18.3577163489235
0.0148675777733182,18.3594446150806
0.0167891479824153,18.3611728812377
0.0184572726882403,18.3626034374384
0.0198994799503138,18.363838990656
0.0211878822144747,18.3649880639774
0.022337423301418,18.3661045750926
0.0233386329383316,18.3672276808591
0.0241652911904121,18.3683997710619
0.0247671080137412,18.3696863347446
0.0250293250004484,18.3712429875207
0.0246909783090661,18.3730933953962
0.0237444025516317,18.3749438032716
0.0226406188252083,18.376437593439
0.0214076497745819,18.3778457543697
0.0200387258179826,18.3792708014817
0.0185417834963141,18.3807578625048
0.0169242724673355,18.3823442163992
0.0152176533561696,18.3840754380454
0.0138513088337304,18.3855670249167
0.0114702715964422,18.3884696888521
0.00950031126260806,18.3912692439836
0.00793712661433514,18.3938576341754
0.00663896500107337,18.3963529476346
0.00550357406665905,18.3988907057377
0.00450526713743339,18.4014996600983
0.00362590145544823,18.404203091863
0.00285474058295473,18.4070087585584
0.00223988777236059,18.4096487240997
0.00174026685269052,18.4121519331716
0.00132432683949576,18.4145600596085
0.000969276601404889,18.4169171815239
0.000658544278370173,18.4192693324268
0.000378905282974909,18.4216744677271
0.000114899009896714,18.4242545484798
-0.000178024643280395,18.4275509789596
-0.000331187678724886,18.429491460066
-0.000472443823516373,18.4314319411725
-0.000591900984585135,18.4331961115493
-0.00069794721207071,18.4348632872308
-0.000798767726111279,18.4365408667824
-0.000900922190062945,18.4383359738164
-0.00101370192752773,18.4404318690732
-0.00116777696245202,18.4434902954883
-0.00133911337042436,18.4471531064138
-0.00147411433809715,18.4502295674159
-0.00160097471379512,18.4532710292248
-0.00173938825292821,18.4567601886245
-0.0019043352850173,18.461186644985
-0.0020956541916871,18.466917768701
-0.00222428856602745,18.4718271034936
-0.00229024311495646,18.4762623818531
-0.002281803596489,18.4802328208882
-0.00219074460705317,18.483801177783
-0.00201047890569203,18.4870428315985
-0.00173455635862511,18.490028181005
-0.00135515179817803,18.4928203192226
-0.000861417819964673,18.4954763223259
-0.000234786885501503,18.4980617316721
0.000570084885508679,18.5006951762838
0.00167771917210997,18.5036295225546
0.00311137258718783,18.5067794472444
0.00490186135407443,18.5101379240029
0.00622203958844214,18.512336073947
0.00768064768110266,18.514534223891
0.00911846713094644,18.5164777626352
0.0105873883437047,18.5182483742037
0.012133031781789,18.5198981251573
0.0138131897312384,18.5214744675538
0.0156529127298228,18.5229816779538
0.0176945873216001,18.5244348840539
0.0199609411880582,18.5258311088308
0.0224902226868211,18.5271765909348
0.0253141272296709,18.5284717196178
0.0284684534415395,18.5297180327684
0.0319985392940144,18.5309193179541
0.0359525976606034,18.5320781965618
0.040384103247746,18.5331970436756
0.0453611487281064,18.5342798550167
0.0509612918952699,18.5353300877548
0.0572763847227963,18.536351320825
0.0644167306664636,18.5373473615045
0.0725158590997087,18.5383222524818
0.0817388933069891,18.5392805196085
0.0922937805721657,18.540227357128
0.104446617942695,18.5411687966525
0.11854846774186,18.5421122576479
0.135079890275274,18.5430673843403
0.154733716141858,18.544047663361
0.177670409482279,18.5450370941205
0.204296532268083,18.5460357817153
0.235378134732621,18.5470568415896
0.272000669869902,18.5481204175137
0.315638356618367,18.5492564735491
0.350178859958867,18.5500924342094
0.385893762417402,18.5509283948696
0.417681287857502,18.5516741855095
0.445513725035931,18.5523556715517
0.469754088894171,18.5530041200515
0.49032815182027,18.5536430024365
0.506758477962517,18.5542944207775
0.518024909061209,18.5549856665796
0.522003451723276,18.5557618674703
0.515579117088096,18.5565758487749
0.497370350257727,18.5574152834362
0.465892442085354,18.5582946399146
0.419337272480379,18.5592239948123
0.372334450217011,18.5599746351508
0.317839542924044,18.5607252754893
0.269520928222098,18.561331192238
0.229071748689217,18.5618166059547
0.194091468747524,18.5622317834974
0.16302336119352,18.5626049108916
0.1350021705254,18.5629517202861
0.109482389105173,18.5632825130625
0.0860606572212304,18.5636054138053
0.0643749005997532,18.5639284803568
0.0439869279870976,18.5642626802323
0.0240213738534846,18.5646317770526
0.00856171887116682,18.5649593737605
-3.93096948411982e-05,18.5651639275505
-0.00786409807680097,18.5653684813405
-0.0143228123506616,18.5655541233474
-0.0202750175607748,18.5657422229147
-0.0262440739252365,18.5659517226244
-0.0319903910581889,18.5661791179431
-0.0373621087282717,18.5664223139065
-0.0422754238601897,18.5666806023497
-0.0466871355525861,18.5669541957134
-0.0505784641412616,18.5672439693278
-0.05415510775471,18.5675741891308
-0.0569188983401427,18.567899902735
-0.0591680204233018,18.5682471684343
-0.0609191811207823,18.568619339668
-0.0621867061399748,18.5690201461477
-0.0629840831835439,18.5694541946127
-0.0633224648286185,18.5699272376428
-0.0632089723187138,18.5704465719789
-0.0626442267179854,18.5710218870745
-0.0616167728113703,18.5716672577296
-0.060099383706492,18.5724012843853
-0.0580369334551476,18.5732523918388
-0.0553137270922985,18.574270519325
-0.0516236267907476,18.575573398218
-0.0475931774542582,18.5769634780453
-0.0437035211092597,18.5783083155869
-0.0400000389331347,18.579612233091
-0.0365046338285071,18.5808774203865
-0.0332282633936294,18.582104681136
-0.0301753226471116,18.5832941165019
-0.027345675698328,18.5844454899218
-0.0247357953135143,18.5855584188688
-0.022339535490207,18.5866324730193
-0.0201487385435102,18.5876672194616
-0.0181537545646492,18.5886622361926
-0.0163439006471295,18.5896171053819
-0.0147078680473915,18.5905313926943
-0.0131509065216502,18.5914554993898
-0.0116545272519376,18.5924033894895
-0.0102229821786255,18.5933768329704
-0.00886017276528966,18.5943780210671
-0.00756979161698396,18.5954095313295
-0.00635527104958881,18.5964744250921
-0.00521973078199967,18.5975763755035
-0.00416592338087865,18.5987198408334
-0.00319617730793166,18.5999103047793
-0.0023123369496452,18.6011546192363
-0.00151569823429029,18.6024615099818
-0.00080693705429264,18.6038423538198
-0.000186025038854457,18.6053124349879
0.000347878398149683,18.6068931122064
0.000777765649335935,18.6085328834482
0.00111248194763091,18.6102244893123
0.00136767363952715,18.6119864010005
0.001557635763501,18.6138415327878
0.00169587463257481,18.6158209484607
0.00179557039543893,18.617969602021
0.00187030809998547,18.6203587384306
0.00193562409995898,18.6231182726269
0.00201407469489774,18.6265565672798
0.00211621970616725,18.6303216765104
0.00224634228848084,18.634204447862
0.00239533823850143,18.6379959897809
0.00255946679338776,18.6417686933254
0.00273548466567855,18.6455747669704
0.00292139669557719,18.6494540200102
0.00311659319764053,18.6534402296488
0.00332171314215162,18.6575645844639
0.00353843156313062,18.6618577539794
0.00376925972125611,18.6663513991288
0.00401742657911947,18.6710795293503
0.00428692687783221,18.6760799645556
0.00458281478766001,18.6813956350426
0.00490722048100317,18.6869968094465
0.00523589087334369,18.6924058796483
0.00557893548003982,18.6977559282465
0.0059358846218109,18.7029923758523
0.00631134191413921,18.708139344526
0.00670900258783342,18.7132023059089
0.00713324205756834,18.7181915973832
0.00758853873262685,18.7231133003266
0.00807970878351435,18.7279714244796
0.00861195878603671,18.7327676057049
0.00919101671073145,18.7375016918023
0.00982323983661349,18.7421720955365
0.0105157352270323,18.7467763311719
0.0112928378534494,18.7514041354798
0.0121695559037476,18.7560529370707
0.0131671640132881,18.7607358717953
0.014315412305455,18.7654812065629
0.0156622591839348,18.7703565054908
0.0173043386219322,18.7755379721954
0.0195533839763108,18.7816847071789
0.0212971973015217,18.7859625114931
0.0231370342503098,18.7902403158072
0.0247026978700713,18.7938667900833
0.0260127680905198,18.7970620200981
0.0271121043955214,18.8000635461708
0.0279862390297112,18.8029660255483
0.0285908482841172,18.8057375517351
0.0289264903602386,18.8084954622305
0.0289661423018083,18.8113868669621
0.0286115561395334,18.8147096129719
0.0278443193140316,18.8180828925499
0.0267299371146788,18.8214561721278
0.0256371861540021,18.8241668259653
0.0245659435063231,18.8265569618199
0.0234954613234313,18.8288006115634
0.0224235396635618,18.8309660703606
0.0213529423433785,18.8330882965353
0.0202873477846696,18.8351892496422
0.0192304355348485,18.8372844436517
0.0181856603058242,18.839385726665
0.0171561958339897,18.8415027054767
0.0161449296381088,18.8436435652812
0.0151544736365971,18.8458155832589
0.0141871754146885,18.8480254823608
0.0132451338721208,18.8502796800463
0.0123302090981722,18.8525844917117
0.0114440320436386,18.8549463014448
0.0105880201848933,18.8573716984067
0.00976337981395315,18.859867642778
0.00896675127587126,18.8624563380476
0.00818066910804826,18.8652163826438
0.00740892098302203,18.8681673041814
0.00665528475365574,18.8713325828317
0.00592378642642497,18.8747393873668
0.0052186756292103,18.8784192680429
0.00454437488841671,18.8824090338728
0.00390539595802707,18.8867518971852
0.00330618559800629,18.8914992949821
0.00275087499221235,18.8967142198338
0.00224296612701551,18.9024772926206
0.00178506749699196,18.9088969996356
0.00139368789204921,18.9158266525662
0.001074356383635,18.9233013297253
0.000821044475509249,18.9316476984972
0.000647413263591292,18.9394746840608
0.000493823156990092,18.9488382275917
0.000378294982779482,18.9588382275917
0.000299032036541708,18.9688382275917
0.00024556037656503,18.9788382275917
0.000210235049038925,18.9888382275917
0.000187579524376541,18.9988382275917
0.000173790584499602,19.0088382275917
0.000166287621268943,19.0188382275917
0.000163339248110949,19.0288382275917
0.000163790757627072,19.0388382275917
0.000166881821556381,19.0488382275917
0.000172129115731962,19.0588382275917
0.000179250797346753,19.0688382275917
0.000188117588254116,19.0788382275917
0.000198721900021934,19.0888382275918
0.000211160474832529,19.0988382275918
0.000225628207920091,19.1088382275918
0.000242422215075389,19.1188382275918
0.000261956486486811,19.1288382275918
0.000284788995646505,19.1388382275918
0.00031166522868465,19.1488382275918
0.000343585265815059,19.1588382275918
0.000381906712280695,19.1688382275918
0.00042850472684671,19.1788382275918
0.000484140911914023,19.1885384305006
0.000547748545703772,19.197504513757
0.000620260211243558,19.2057758589876
0.000702875135522966,19.2134064266835
0.000796978489694813,19.2204468988422
0.00090414523278056,19.2269442978513
0.00102615926760809,19.2329422577813
0.00116503977496677,19.238481284236
0.00132307280417463,19.2435989834329
0.00150284717958141,19.2483302751067
0.00170729684301715,19.2527075970243
0.00193975089336287,19.2567611023193
0.00220399456235812,19.2605188467567
0.00250434308687957,19.2640069731009
0.00284573585524224,19.267249901568
0.00323385643661773,19.270270530011
0.00367529097293721,19.2730904491641
0.00417774355864992,19.2757301905932
0.0047503387681607,19.278209530709
0.00540406529199207,19.2805478887203
0.00613815178197468,19.282726176496
0.00695037930765503,19.2847403149143
0.00785259762093076,19.2866257170085
0.00886295208515349,19.2884187601574
0.0100113979029259,19.2901615648541
0.0113563501201278,19.2919168469392
0.0131222003594902,19.2938989547919
0.0148738014772301,19.2956252363648
0.0167942779889929,19.2973515179378
0.0184625542391435,19.2987814554236
0.0199050976642995,19.3000166677092
0.0211938326550392,19.3011654648725
0.0223436833499545,19.302281732443
0.0233451720301088,19.303404619385
0.0241720675448883,19.3045765162936
0.024774055941949,19.3058629284903
0.0250362968512477,19.3074195660675
0.0246978031303987,19.3092694927699
0.0237511092491061,19.3111194194724
0.0226471865555692,19.3126129155662
0.0214140030555487,19.3140208932956
0.020044799537284,19.3154458119988
0.018547513631372,19.3169327894481
0.0169295900071615,19.318519109799
0.0152224475284882,19.3202503654463
0.0138565939195888,19.3217409405182
0.0114743223621456,19.3246441288574
0.00950338524406211,19.327444190195
0.00793955822286765,19.330032886333
0.00664107491914297,19.3325281076176
0.00550542494830722,19.3350657106741
0.00450689933595664,19.3376744651449
0.00362734648186755,19.3403776527191
0.00285496151268729,19.3431872457702
0.00223934579633379,19.3458306003281
0.00173928019671965,19.3483366220916
0.00132309589638645,19.3507470885916
0.000967949158121662,19.3531060216488
0.000657281027808563,19.3554589953835
0.000377962006562369,19.3578626281165
0.000114839834385566,19.3604347442959
-0.000174081955242672,19.3636828193568
-0.000328681495781463,19.3656380845749
-0.00047116414608592,19.3675933497931
-0.000591325923288273,19.3693669543474
-0.000697554306923065,19.3710364456387
-0.000798231215160205,19.3727110531755
-0.000899895243066724,19.3744965545714
-0.00101149713771332,19.3765684431028
-0.00116074538188085,19.3795236921296
-0.00133688774798266,19.3832797661545
-0.00147451367118494,19.3864126639552
-0.00160177701753909,19.3894615727217
-0.00173993856482358,19.3929408013057
-0.00190426624576771,19.3973427831166
-0.00209675788503587,19.4030903195343
-0.00222637492743953,19.4080074497729
-0.00229343745294836,19.4124504779881
-0.00228615251209344,19.416427403918
-0.00219626182326989,19.4200013068689
-0.0020171599872621,19.4232477411744
-0.00174240024437058,19.4262372270005
-0.00136419780526625,19.4290328074998
-0.000871851147114484,19.4316911267524
-0.000246960845233866,19.4342776375618
0.000554460889003764,19.4369075552946
0.00165518650284314,19.4398321664695
0.00308323658739364,19.4429781174035
0.00486793270455812,19.4463332848967
0.00619400130420598,19.4485455912426
0.00765963530722662,19.4507578975886
0.00909245505718639,19.4526978364529
0.0105632868741274,19.4544741857971
0.0121059705838327,19.4561241857692
0.0137841721375249,19.4577022906116
0.0156206876487617,19.4592105079885
0.0176587540197534,19.4606648109969
0.0199207664513954,19.4620619849949
0.0224452070210616,19.4634084523161
0.0252633076684151,19.4647043890726
0.0284114036722835,19.4659516059386
0.0319344517212209,19.4671537460345
0.0358805388642135,19.468313422162
0.0403028590768977,19.4694329718796
0.0452695871324105,19.4705164583569
0.0508579474971463,19.4715673061711
0.057159508473051,19.4725890907106
0.0642842202360547,19.4735856160249
0.0723650115463741,19.4745609033246
0.0815666395549354,19.4755195011114
0.0920961433593138,19.4764665813703
0.10421847723093,19.4774081599691
0.118283041549963,19.4783516322682
0.134767795465384,19.479306600696
0.154361340699355,19.4802864843401
0.177239193773827,19.4812759717291
0.203795395140605,19.482274555508
0.23479236321526,19.4832952852109
0.271308709313839,19.4843581552797
0.314867521192901,19.4854943268751
0.349460608927105,19.4863326926286
0.385252764646138,19.4871710583821
0.417106438614253,19.487918450102
0.444994042736708,19.4886008698776
0.469287596332647,19.4892498070835
0.48991938897936,19.4898888062395
0.506419037492221,19.490539937628
0.517778295906456,19.4912303228958
0.521902409581481,19.4920045488363
0.515669960093329,19.4928183299189
0.497676858207862,19.4936572479661
0.466446265546616,19.4945358387917
0.420174920243211,19.4954642410967
0.373120414574727,19.4962183508627
0.318485307958752,19.4969724606287
0.270042865699794,19.4975805864934
0.229516162577606,19.4980671894679
0.194484659336218,19.4984830530525
0.16337842074022,19.49885661196
0.135326613709789,19.4992036996578
0.109781343981656,19.4995346600882
0.0863383211335552,19.4998576310822
0.0646356737800162,19.5001806567434
0.0442375355044562,19.5005146340135
0.0242803694758012,19.5008829963267
0.00865684809293854,19.501213620737
1.82390111256381e-05,19.5014189400546
-0.00783830048466544,19.5016242593722
-0.0143012422636514,19.5018099987735
-0.0202524713966594,19.501998041178
-0.0262214381448678,19.5022074982311
-0.0319683032047714,19.502434861884
-0.0373409405828075,19.5026780314565
-0.0422553890876957,19.5029362951434
-0.0466683537483597,19.503209862964
-0.0505609973364438,19.5034996084444
-0.0541397053192679,19.5038298596667
-0.0569047185499918,19.5041555403893
-0.0591550458887981,19.5045027656123
-0.0609073983132569,19.504874887938
-0.0621760997582265,19.5052756349047
-0.0629746404912031,19.5057096104207
-0.0633141804405973,19.5061825632644
-0.0632018541287412,19.5067017848784
-0.0626383093298348,19.5072769533599
-0.0616121294428316,19.5079221337211
-0.0600961499157774,19.5086559050192
-0.0580353669251698,19.5095066502233
-0.0553143852777741,19.5105242051226
-0.0516282460768952,19.5118258902643
-0.0475977658460656,19.5132160908868
-0.0437079101942975,19.5145610221257
-0.0400041497107413,19.5158650188366
-0.0365084264062778,19.5171302776895
-0.0332317181122815,19.5183576060215
-0.0301784319102986,19.51954710699
-0.0273484399550676,19.5206985451223
-0.0247382207619056,19.521811538485
-0.0223416325660558,19.5228856570772
-0.0201505207931082,19.5239204681667
-0.0181552377306173,19.5249155498651
-0.0163451019019561,19.5258704844388
-0.0147088053380718,19.5267848376656
-0.0131517573348962,19.5277089086855
-0.0116552835182944,19.5286567612143
-0.0102236376102624,19.5296301639208
-0.00886072136613657,19.5306313075166
-0.00757022776531568,19.5316627688889
-0.00635558957338159,19.5327276085369
-0.0052199270381783,19.5338294985431
-0.00416599333841711,19.5349728957965
-0.00319611763492085,19.5361632821716
-0.00231214510539103,19.5374075071011
-0.00151537256945198,19.5387142929399
-0.000806476924115889,19.5400950115628
-0.000185430940084354,19.5415649397752
0.00034860464378274,19.543145424397
0.000778654613640042,19.5447851304371
0.00111350700903351,19.5464766412008
0.00136881184454903,19.5482384263554
0.00155886577452773,19.5500933901015
0.00169717616374863,19.5520725799215
0.00179692340432578,19.5542209208315
0.00187169137007999,19.5566095995748
0.00193701170458159,19.5593683878418
0.00201542102145033,19.5628051200161
0.00211753271832611,19.5665699966161
0.00224763185811864,19.5704528685693
0.00239661489069794,19.5742444366142
0.00256074244235025,19.57801711341
0.00273676997019855,19.5818231217372
0.00292270042843748,19.5857022776524
0.00311792255304099,19.5896883613525
0.00332307437299312,19.5938125620742
0.0035398307254135,19.5981055484754
0.00377070342346419,19.6025989793215
0.00401892266747651,19.6073268603887
0.00428848503416253,19.6123270063541
0.00458444704013508,19.6176423404779
0.00490892043860232,19.6232427862383
0.00523767663543737,19.6286513274848
0.00558081716175253,19.6340008513483
0.00593787607401486,19.6392368455355
0.00631345672631062,19.6443833959241
0.0067112562915673,19.6494459713126
0.00713565217017059,19.654434897729
0.00759112545643947,19.6593562499884
0.00808249541418385,19.6642140313553
0.00861497209794507,19.6690098715019
0.00919428725856991,19.6737436118226
0.00982680232347854,19.6784136597469
0.0105196290772466,19.6830175273059
0.0112972157510306,19.6876455073501
0.0121744984872424,19.6922944336274
0.0131728024694367,19.6969776009595
0.0143219375092519,19.7017233886823
0.0156700049980043,19.7065996771049
0.017314078486952,19.711783654458
0.0195685723248754,19.7179404489899
0.0213097471279582,19.7222092934916
0.0231460821217811,19.7264781379934
0.0247099704440233,19.7301009493829
0.0260188929819532,19.7332946802831
0.0271171867466724,19.736295634664
0.0279899391974714,19.7391971413688
0.0285932229193005,19.7419682918045
0.0289274906210103,19.744726454417
0.0289655233946309,19.7476190304541
0.0286084082510652,19.7509454669653
0.0278407980785382,19.7543125278387
0.0267275905826126,19.7576795887122
0.0256351451379606,19.760388709853
0.0245639348537095,19.7627784060143
0.0234934502679713,19.7650218539932
0.0224215281293864,19.7671872005347
0.0213509372421172,19.769309364904
0.0202853565614019,19.7714102899212
0.0192284653322896,19.773505480488
0.0181837177607481,19.7756067792465
0.0171542870558161,19.7777237894665
0.0161430602054457,19.7798646940227
0.0151526486412315,19.7820367684867
0.0141853994868402,19.7842467347078
0.0132434111632767,19.7865010095004
0.0123285433816401,19.788805907694
0.0114424266517544,19.7911678132135
0.010586478074176,19.7935933151028
0.00976190356047845,19.7960893736188
0.00896529139670222,19.7986783688753
0.00817923265722991,19.801438746457
0.00740751485126818,19.8043900411535
0.00665391632240608,19.8075557392906
0.00592246354783243,19.8109630168728
0.00521740652768333,19.8146434329158
0.00454316807849343,19.8186338067568
0.00390426002798863,19.8229773635075
0.00330512883834292,19.8277255571672
0.0027499048380568,19.8329414053544
0.00224208849347005,19.838705569247
0.00178428661053916,19.8451265965654
0.00139303423593092,19.8520571871088
0.00107381272815689,19.8595329864747
0.000820575992333397,19.8678813596348
0.000647019400063939,19.8757096729448
0.000493506725836835,19.8850745807765
0.000378057402593812,19.8950745807765
0.000298848741350435,19.9050745807765
0.000245413952000141,19.9150745807765
0.000210113311105172,19.9250745807765
0.00018747407807829,19.9350745807765
0.00017369569405328,19.9450745807765
0.000166199369688243,19.9550745807765
0.000163254949304126,19.9650745807765
0.000163708559595647,19.9750745807765
0.000166800439464213,19.9850745807765
0.000170671748535081,19.9925372903883
0.0001755312993394,20
