ecg,time
0.00272774222430658,15.0025169257267
0.0022247789198841,15.008275205603
0.00177143809915912,15.0146844609017
0.00138179992980744,15.0216403444642
0.00112403040238218,15.0273998229146
0.000921957027668571,15.033159301365
0.000715743418996231,15.0410055485901
0.000548804413977527,15.0496522644619
0.000415164015113252,15.0592142481188
0.000317004987509834,15.0692142481188
0.000249450526145714,15.0792142481188
0.000203619031246755,15.0892142481188
0.000173032345888026,15.0992142481188
0.00015306037334262,15.1092142481188
0.000140489686603927,15.1192142481188
0.000133134356507594,15.1292142481188
0.000129518389861321,15.1392142481188
0.000128645994201086,15.1492142481188
0.000129847990520749,15.1592142481188
0.000132682044784137,15.1692142481188
0.000136867224921958,15.1792142481188
0.000142240136669324,15.1892142481188
0.000148725346925108,15.1992142481188
0.000156315969194517,15.2092142481188
0.000165061891996238,15.2192142481188
0.000175064016181534,15.2292142481188
0.000186473505695993,15.2392142481188
0.000199495631899393,15.2492142481188
0.000214398370387994,15.2592142481188
0.000231526550897795,15.2692142481188
0.000251323165044095,15.2792142481188
0.000274360569810326,15.2892142481188
0.000301386063932481,15.2992142481188
0.000333389141339713,15.3092142481188
0.000371702521061118,15.3192142481188
0.000418157499597051,15.3292142481188
0.000473558411810819,15.3389305398576
0.00053675731907942,15.3479145977913
0.000608647542624424,15.3562047877238
0.000690384494792475,15.3638546156239
0.000783304708600862,15.3709144105933
0.000888929218188473,15.3774309034574
0.00100898189539337,15.3834474842412
0.00114541467150223,15.3890044520918
0.00130043800420917,15.3941392328999
0.00147655520350091,15.3988865834972
0.00167660288002676,15.403278791864
0.00190379851343116,15.4073458717792
0.00216179823992139,15.4111157443381
0.00245476577047676,15.4146144141862
0.0027874604013575,15.4178661529133
0.00316534774540315,15.4208936906382
0.0035947445640184,15.4237184161691
0.00408301354855431,15.4263606042169
0.00463883309971826,15.4288396887089
0.00527258665278759,15.4311746088066
0.00598979151798107,15.4333643581243
0.0067821329583467,15.4353821870209
0.0076597753016624,15.4372622972487
0.00863813410185286,15.4390391760719
0.00974143813135923,15.4407501016008
0.011013216146139,15.4424444155088
0.0125934289649693,15.4442575363203
0.0149737435499125,15.4465912510115
0.0165777926001311,15.4479970226307
0.0182697657811552,15.44940279425
0.0198122536019136,15.4506635132502
0.0211894538631224,15.4518164050618
0.022424443541,15.4529210033077
0.0235149577227082,15.4540184451242
0.0244411713961089,15.4551477648205
0.025163504760775,15.4563618813861
0.0256007182993699,15.4577658155134
0.025472227316312,15.4597740250861
0.0248279891772216,15.4613140610038
0.0238084788113775,15.4628540969215
0.0226366557300689,15.4642589152707
0.021318494746831,15.4656553423013
0.0198621219300965,15.4670981213166
0.0182767098716215,15.468625019789
0.0172641374132341,15.4695989671955
0.0162726522090736,15.4705729146019
0.0151329443190386,15.4717474616585
0.0126733224922728,15.4745400462442
0.0104604810605555,15.4774596330318
0.00872331555676881,15.4801415789952
0.00733137630795772,15.482642361555
0.00612991257122425,15.4851516193756
0.00508785622188192,15.4876917589707
0.00423657480426978,15.4901119491023
0.0035310004255635,15.492438135089
0.00293461713920734,15.4947080144682
0.00241707128191957,15.4969771758633
0.00194797189098229,15.4993519562503
0.00147296582861535,15.5021703811073
0.00118549565547326,15.504143649523
0.00092987615004263,15.5061169179387
0.00072571165914689,15.507875174634
0.000554953242249571,15.5094960977827
0.000400800475266514,15.5110991607559
0.000253013991435685,15.5127829089461
0.000101238772938695,15.514689476967
-7.67504876186666e-05,15.517203089906
-0.000329028904614615,15.5214324649805
-0.000508862177130241,15.5251061793571
-0.000644591295241143,15.5283945747782
-0.000772244007156989,15.532062934548
-0.000906697440174147,15.5368733469362
-0.00101631753534473,15.5423454943411
-0.00106840667494548,15.5471514147446
-0.00106783683609506,15.5515075258391
-0.00101181804403136,15.5554320352491
-0.000896347801509749,15.5589708672733
-0.000716403000761591,15.5621764235523
-0.000466131783943253,15.5650997374475
-0.000138044524252891,15.5677947665028
0.000279175657545989,15.5703219304198
0.00080359814061404,15.572747393178
0.00146941027005815,15.5751616165601
0.00234956945136262,15.5777110583939
0.00360023150294023,15.5806360533665
0.00519440671534441,15.5837019353248
0.00657874934902065,15.5859858221799
0.00815609220949368,15.588269709035
0.0096796000522835,15.5902024363879
0.0112403606424411,15.5919412066143
0.0129072730309562,15.5935668533565
0.0146968191107387,15.5950878450969
0.0166790930337009,15.5965503827868
0.018867412766687,15.5979467318055
0.0213122392406224,15.5992927417044
0.0240409930148698,15.6005867069726
0.0270963851117419,15.6018335455513
0.030520516393423,15.6030355416233
0.0343560521460536,15.6041937964552
0.0386610531085563,15.6053124709079
0.0434983630257167,15.6063945156955
0.0489413472185971,15.6074430500476
0.0550754290809432,15.6084611915371
0.0620050167614368,15.6094526776119
0.069855963952572,15.6104214312051
0.0787811251600908,15.6113715838521
0.0889699705835636,15.6123077287426
0.100661668535811,15.6132351245466
0.114164029997647,15.6141599523325
0.129887499852306,15.6150900011025
0.148397195048602,15.6160354186487
0.170401858737675,15.617005904491
0.195873201516067,15.6179788369202
0.225466730235525,15.6189640130968
0.260057364561569,15.6199754403749
0.300944342251173,15.6210366758845
0.349118193035819,15.6221671811487
0.390130338376671,15.6230746452736
0.424065889455977,15.6238188745824
0.453474294184592,15.6244857236825
0.479180529005249,15.6251156661799
0.501247788749053,15.6257339944425
0.519286775474213,15.6263632838699
0.532372548895086,15.6270310347181
0.538513889443169,15.6277834616137
0.534333367060169,15.6285802984688
0.518308195985214,15.6294039463554
0.488937074151595,15.6302708704464
0.44427632321493,15.6311928466199
0.382568996615256,15.6321728144594
0.3376166402627,15.6327810338135
0.288493339077795,15.6333892531675
0.244855777974513,15.6339017616885
0.207389544909365,15.6343336688591
0.174437782117045,15.6347159115662
0.144908080991174,15.6350672929383
0.118132367268826,15.6353995778985
0.0936454317700583,15.6357214472233
0.0710609859440016,15.6360408265885
0.0499630557104564,15.6363673835085
0.02966080839436,15.6367189667538
0.00756101850799242,15.637165221707
-0.00119255402945557,15.6373689582986
-0.00914745018076315,15.6375726948903
-0.0155989572374179,15.6377544221261
-0.0216197135849345,15.6379408794762
-0.0276477101628184,15.6381483242982
-0.0334443594086147,15.6383733488949
-0.0388596805514513,15.6386139635131
-0.0438108442923634,15.6388695164238
-0.0482552046247863,15.639140249289
-0.0521743703715077,15.6394270524217
-0.05556040083658,15.6397313501533
-0.0584983143915376,15.6400666714477
-0.0607852809264943,15.6404101276841
-0.0625687563422131,15.640778124266
-0.063864609435999,15.6411745427735
-0.0646865952991026,15.6416039802173
-0.0650460860717992,15.6420721822411
-0.0649503451619358,15.6425864480953
-0.0644000906225348,15.6431564171883
-0.0633836903354411,15.6437962457059
-0.0618732490139579,15.6445246502211
-0.0598120448341893,15.6453703447187
-0.057080297658223,15.6463841126319
-0.0533566674262817,15.6476875011368
-0.0492710253243861,15.6490830551984
-0.0453225362998744,15.6504339818871
-0.0415580995084015,15.6517445700336
-0.0380006987848022,15.6530169080506
-0.0346621204942371,15.6542517198045
-0.0315474708562074,15.6554490411889
-0.0286572396704836,15.6566085809903
-0.0259884411810683,15.6577299107964
-0.0235353813799027,15.6588125624324
-0.0212902616112533,15.6598560731005
-0.019243698121473,15.6608599992031
-0.0173851852568154,15.6618239101725
-0.0157035095704633,15.6627473685507
-0.0141267724522878,15.6636661368802
-0.0126093731630997,15.6646084364177
-0.011155813593926,15.6655758459986
-0.00977002502177238,15.666570480099
-0.00845574178329042,15.6675948201406
-0.00721644810068957,15.6686518072831
-0.00605532574905325,15.6697449623003
-0.00497519932251646,15.6708785470779
-0.00397847896007446,15.672057787268
-0.00306709991889896,15.6732891877329
-0.00224245761718523,15.674580994141
-0.0015053353977503,15.6759438953213
-0.000855819664910879,15.6773921446674
-0.000293191642755271,15.6789454633386
0.000170218188755124,15.6805759829087
0.000534482620847523,15.6822540820835
0.000815861761352306,15.6839980723045
0.00102894574101556,15.6858294742721
0.0011874678135443,15.6877771212701
0.00130474096192266,15.6898820466797
0.00139432674243028,15.6922077516094
0.00147135872842099,15.694865632543
0.00155642109189237,15.6980998299668
0.00166581883938461,15.7018400284695
0.00180689239272771,15.7058556217141
0.00199878316222544,15.7105025489537
0.00218675728299272,15.714613871548
0.00237346542806905,15.7184952867931
0.00256056422272007,15.7222886385445
0.00274945912096884,15.7260697695681
0.00294187722285103,15.7298891853329
0.00313992082847172,15.7337858667514
0.00334602257884787,15.73779324215
0.00356289628613157,15.7419422702983
0.00379353062769682,15.7462636054955
0.00404122290220727,15.7507890025271
0.00430971135245754,15.755552704536
0.00460346163857223,15.7605928363503
0.00492818066071402,15.7659526011172
0.00527187044043843,15.7713732389305
0.00562617964138924,15.7766801370088
0.00599592868469349,15.7819075714014
0.00638317755649133,15.7870400731716
0.00679226425889409,15.7920902486178
0.00722750335490281,15.7970647743593
0.00769372151595401,15.8019710700329
0.00819602951692094,15.8068135784488
0.00873995812036842,15.811594553455
0.00933153642866955,15.8163141354564
0.00997741516682571,15.8209709115703
0.0106878331263906,15.8255800682544
0.0114869875040672,15.8302212073518
0.0123898766164282,15.834886439206
0.0134197300119051,15.8395934249072
0.0146096418212887,15.8443777373089
0.016015546643317,15.849325449833
0.0177602793727305,15.8546736531278
0.0202138540812508,15.8611911169079
0.0218423435634901,15.865121330975
0.0235287984691808,15.869051545042
0.0250006499161566,15.8725256958672
0.0262424388919252,15.8756629944258
0.0272775314353694,15.8786528232718
0.0280700576844318,15.8815227965522
0.0285955190749245,15.8842938292887
0.0288481800557418,15.8870874706357
0.0287884128023597,15.8900730089224
0.0282680922052256,15.8936734347334
0.0274646647515648,15.8967708498877
0.0263880013050659,15.899868265042
0.0253070799141258,15.9024963351085
0.0242359008928713,15.9048650073467
0.0231640460791338,15.9071048097193
0.0220914015301608,15.9092741727549
0.0210210542792491,15.9114049939689
0.0199567028162099,15.9135178872078
0.0189019885530833,15.9156276584381
0.0178603171035138,15.9177457517587
0.0168348142555438,15.9198815358357
0.0158283230303612,15.9220430581485
0.0148434150302606,15.9242375217773
0.0138824008443777,15.9264716192443
0.0129473438275245,15.9287517713484
0.0120400721391752,15.9310843157172
0.0111621843782559,15.9334756804236
0.0103150658082278,15.935932514056
0.00949989237233955,15.9384618426559
0.00871011937142454,15.9410972837837
0.00793196817464348,15.9439084867167
0.00716922910354144,15.9469156728266
0.0064257152026456,15.9501429892008
0.00570547438217061,15.9536183662911
0.00501275709761879,15.9573742335059
0.00435195905371756,15.9614484143374
0.00372752089838923,15.9658853637124
0.0031437471677405,15.9707382666742
0.00260454761986768,15.9760727794172
0.00211312317683862,15.9819738988351
0.0016717897375723,15.9885564249718
0.00129795679555804,15.9956359996729
0.000989654593221806,16.0032896093472
0.000800417835104529,16.0097493336726
0.000609891331414681,16.0184193910998
0.000463362281854098,16.0276239523905
0.000350402704016118,16.0376239523905
0.000272322560178213,16.0476239523905
0.000219055039516724,16.0576239523905
0.000183271435996604,16.0676239523905
0.00015968369240594,16.0776239523905
0.000144584865633686,16.0876239523905
0.000135438693276601,16.0976239523905
0.000130529798125479,16.1076239523905
0.00012870045656656,16.1176239523905
0.000129170572397887,16.1276239523905
0.000131420105076239,16.1376239523905
0.0001351124129624,16.1476239523905
0.000140043225674488,16.1576239523905
0.000146106193710246,16.1676239523905
0.000153269932905425,16.1776239523905
0.000161563554422734,16.1876239523905
0.000171068750063544,16.1976239523905
0.000181917203154096,16.2076239523905
0.000194292685833717,16.2176239523906
0.000208437776192449,16.2276239523906
0.000224665737419933,16.2376239523906
0.000243378827415895,16.2476239523906
0.000265095288755917,16.2576239523906
0.000290488732621849,16.2676239523906
0.000320445963520701,16.2776239523906
0.000356153188966193,16.2876239523906
0.000399227325760319,16.2976239523906
0.000451921314959533,16.3076239523906
0.000512134991265976,16.3168823509406
0.000580650560504525,16.3254260110137
0.000658555959569857,16.3333094796279
0.000747122436450095,16.3405845037539
0.000847801149751764,16.3472991362076
0.000962237590337666,16.3534979870246
0.00109229508182839,16.359222485187
0.00124008335461175,16.3645111085859
0.0014079919157833,16.3693995896117
0.00159872718993227,16.3739211173674
0.00181535820583526,16.3781065349887
0.00206136934000723,16.3819845266677
0.00234072520059296,16.3855817935383
0.00265795073006717,16.3889232339702
0.00301823202575359,16.3920321324911
0.00342754781397365,16.3949303553867
0.0038928424330015,16.3976385654299
0.0044222637195534,16.4001764756744
0.0050255012530392,16.4025631633748
0.0057142867900327,16.4048174902534
0.00647769824007773,16.4068954302225
0.00732207907643058,16.4088228067608
0.0082606958171089,16.4106340610444
0.00931377083469635,16.4123647495636
0.0105156003166532,16.4140579789765
0.0119496872259718,16.4157979298011
0.0139110506832303,16.4178420079379
0.0155631295936555,16.4193660571503
0.0173478147550318,16.4208901063626
0.0190119062463793,16.4222555844146
0.0204739203622435,16.4234579306056
0.0217836365496151,16.4245824312501
0.0229525684297875,16.4256790303376
0.0239698036457551,16.4267861101789
0.0248073310360483,16.4279467494728
0.0254111525238584,16.429230016196
0.025652919761741,16.4308100432526
0.0252775399590574,16.4326042480124
0.0243140701326029,16.4343984527723
0.0231966507331004,16.4358627827773
0.0219432696905129,16.4372560743774
0.0205489224287461,16.438672725846
0.0190218232980261,16.4401564112481
0.0173688971849975,16.4417449702064
0.015620124553208,16.443486077376
0.0141976018284385,16.4450121517991
0.0117483549186081,16.4479529282048
0.00973542575764889,16.4507776265083
0.00814751756518303,16.4533797241775
0.00684082945430373,16.455869329753
0.00570064582129439,16.45839837179
0.0047385665207696,16.4608890815045
0.00394854744929292,16.4632689382989
0.00328909289307809,16.4655681512772
0.00272658080894674,16.4678296056135
0.00223164843462492,16.4701221487613
0.00177021854178046,16.4725981266137
0.00136540184660864,16.475128846184
0.00109947992091522,16.4770293536641
0.000861857243476252,16.4789298611443
0.000670629620777411,16.4806285572761
0.000506296662876449,16.4822332589432
0.000355060714616263,16.4838502067927
0.00020729271748285,16.485583141867
5.10936551458215e-05,16.4876107478911
-0.000149766836790344,16.4905829477971
-0.000353540795943706,16.4941430624326
-0.000500163979341435,16.497160414445
-0.000625593854663285,16.5001493998157
-0.000749204789804906,16.5035968876698
-0.000879383096127709,16.5080336869025
-0.00100159824247845,16.5136827478467
-0.00106292291619756,16.518566588916
-0.00107194500313842,16.5230057816095
-0.00102611285561384,16.5270031172797
-0.000921562809341985,16.5306090636494
-0.000753543095125793,16.5338703538697
-0.000516446015082563,16.5368389761928
-0.000202842429510916,16.5395717818868
0.000197830009359636,16.542126940641
0.000702826237249299,16.5445711817661
0.00134291931668491,16.546988307081
0.00217939141950227,16.5495034814379
0.00337197803525008,16.5523899617186
0.00490667679704928,16.5554329060744
0.00633260006082179,16.5578453167821
0.00796781768170173,16.5602577274899
0.00952351173472258,16.5622612715018
0.0110610684981429,16.5639992136182
0.0127084138528555,16.5656311581976
0.0144769173980465,16.5671592420086
0.0164319025242866,16.56862643468
0.0185938934405052,16.570030223428
0.0210079352851941,16.571382817587
0.0237010742242825,16.5726826209558
0.0267171907456596,16.5739353897539
0.0300956028202547,16.5751424848183
0.0338805421471481,16.5763058093639
0.0381283210992842,16.5774292046205
0.0429003824915187,16.578515538155
0.0482674470356367,16.5795676865996
0.0543148026634222,16.5805890974583
0.0611452295064131,16.5815835449153
0.0688810860460997,16.582554796343
0.0776715541948947,16.5835069376478
0.0877012412422094,16.5844445010195
0.0992015759062421,16.5853725724814
0.112472452069575,16.5862973298027
0.127909627656547,16.5872262988895
0.146055965659622,16.588169273443
0.167696222303029,16.5891400006743
0.192737441400129,16.5901122127848
0.221815714853495,16.5910953597466
0.255774558901083,16.5921028167022
0.295843613797196,16.5931564878655
0.343419414520811,16.5942841950482
0.385506823231528,16.5952195417655
0.420131918195684,16.5959779164001
0.450034145250515,16.5966516209236
0.476186368223556,16.5972846214353
0.498717887808461,16.5979031768801
0.51729403964391,16.5985297897126
0.531071948626172,16.5991908518215
0.538253958724641,16.5999288409565
0.535503804609424,16.6007235972971
0.521062403378759,16.6015428171811
0.493494754182047,16.6024034572746
0.450901895398648,16.6033179304231
0.391173087016916,16.6042944505235
0.345401776713057,16.6049261073313
0.29495105752849,16.605557764139
0.250225592634195,16.606085623035
0.212032871993232,16.6065262815464
0.178560751808556,16.6069137812251
0.148625064831712,16.6072684506455
0.121516311030247,16.6076027121224
0.0967509082730445,16.6079255027661
0.0739378176030614,16.6082447284836
0.0526732416277505,16.6085696177316
0.0323324943612662,16.6089161408866
0.0109091362823323,16.609338086154
0.000573172994092281,16.6095724024687
-0.0067917800531157,16.6097563485687
-0.0135259764459977,16.6099402946688
-0.0194554989089949,16.6101178367731
-0.025509928458477,16.6103181366161
-0.0314110138185616,16.6105371938119
-0.0369748769238599,16.61077237021
-0.0420984482471473,16.6110225969772
-0.0467270204967827,16.6112878336143
-0.0508348732738414,16.6115687571959
-0.0544132231393256,16.61186660864
-0.0576643503056248,16.612208253887
-0.0601152605182794,16.6125447008971
-0.0620565685546734,16.6129044894445
-0.0635056327540943,16.6132914339888
-0.064476647918219,16.6137098292127
-0.0649819135573918,16.6141650197018
-0.0650302075658876,16.6146637566506
-0.0646247530004039,16.6152147425942
-0.0637583595794451,16.6158306980299
-0.0624090770186451,16.6165284946273
-0.0605314850640271,16.617332916357
-0.0580323689485844,16.6182854328053
-0.0546875081595301,16.6194734941656
-0.0505712299774159,16.6208863410301
-0.046571577030456,16.6222510495861
-0.0427447829017978,16.6235742595436
-0.0391192193847101,16.6248587441842
-0.0357095708325114,16.6261055709609
-0.0325227895314692,16.6273149452566
-0.0295606937295913,16.6284866537169
-0.0268213173747999,16.6296202977791
-0.0242997642198436,16.6307154150275
-0.0219888512148244,16.6317715381415
-0.0198796503892865,16.6327882171804
-0.0179619686941878,16.6337650189568
-0.0162247776458326,16.6347015110497
-0.0146299644561643,16.6356129169142
-0.013092805869241,16.6365475058964
-0.0116181838692709,16.6375065877023
-0.0102100814073009,16.6384921750092
-0.0088723028431993,16.6395066212584
-0.00760841879458716,16.6405527075951
-0.00642171460601163,16.6416337522116
-0.00531513638415737,16.6427537566811
-0.00429123458638697,16.6439176061169
-0.00335210471741445,16.645131350124
-0.00249932405287821,16.6464026093855
-0.00173388217608543,16.6477411860388
-0.00105610102325405,16.6491600220401
-0.000465535913775227,16.650676791141
3.3487837653472e-05,16.6522957682924
0.000427568609090498,16.6539564901457
0.0007338563240659,16.6556773042658
0.000967285743376686,16.6574779911554
0.00114182482509419,16.6593846631776
0.00127086338905397,16.6614336829469
0.00136778570945211,16.6636796572654
0.00144699661464165,16.6662139994597
0.00152652498492923,16.6692200187012
0.00163077340855611,16.6729551031367
0.00175975994315245,16.6768369625418
0.00193503029334321,16.6812718611968
0.0021234824183751,16.6855058190376
0.00231036297370874,16.6894431108172
0.00249718061239862,16.6932557746309
0.00268529207299711,16.6970345420039
0.00287630024380595,16.700836266745
0.00307218409614279,16.7047029137613
0.00327527120405261,16.7086693500588
0.00348818273529834,16.7127670823742
0.00371381405373873,16.7170267017974
0.00395534932100512,16.721479445327
0.00421635394997256,16.7261585473611
0.00450100400785129,16.7311006872428
0.00481450886560662,16.7363471934422
0.00515671788309848,16.7418324433156
0.00550563548956147,16.7471522060351
0.00587050273293795,16.7524154660207
0.00625129834358405,16.7575764068795
0.00665266256206125,16.762654003826
0.00707861153915761,16.7676527231203
0.00753391402644182,16.7725812900406
0.00802354707779616,16.7774447666045
0.00855290137689415,16.7822462320461
0.00912782375432842,16.7869864539988
0.00975474362674596,16.791664480796
0.0104407994953962,16.7962782303022
0.0112088593850989,16.8009104928371
0.0120747551785934,16.8055661353693
0.0130590802814002,16.8102565850368
0.0141907225303855,16.8150088708087
0.0155156094904922,16.8198867202591
0.0171243080227159,16.8250542454457
0.0192940107839051,16.8310983435839
0.0210669502605656,16.8355212919339
0.0229465174992171,16.839944240284
0.0245269202161622,16.8436358660914
0.0258437814519986,16.8468653906798
0.0269488764143281,16.8498886751151
0.0278338328703459,16.8528195061606
0.0284487760123917,16.8556115121009
0.0287953486192765,16.8583825121887
0.0288485703421605,16.861277582867
0.0285169281655961,16.8645798056469
0.027505265411221,16.8688850966906
0.0266124079404051,16.8715219489999
0.025558316058487,16.8741588013092
0.0244892255710482,16.876565763904
0.0234179853904099,16.8788286654936
0.0223453210526878,16.8810110996427
0.0212741093357261,16.8831488183337
0.0202080080625442,16.8852643975029
0.0191506982646191,16.8873737265349
0.0181056486450069,16.8894888979329
0.0170760520822457,16.8916196890543
0.0160648184816092,16.893774407338
0.0150745823233494,16.895960421873
0.0141077146103334,16.8981845219598
0.0131663376701338,16.9004531703139
0.0122523326283427,16.9027727129807
0.0113673526256822,16.9051495402606
0.0105128328068471,16.9075902350375
0.00968999750682862,16.9101017218554
0.00889795600503527,16.912697924478
0.00811664561852321,16.9154655366594
0.0073498736802232,16.9184238603709
0.00660139373254511,16.9215962342637
0.00587519988314255,16.9250096276106
0.00517549991327125,16.9286953165987
0.00450666188486351,16.9326897429391
0.00387312768939071,16.937035640038
0.00327925888414986,16.941783821764
0.00272908301591837,16.9469965209471
0.00222599637686998,16.9527532951423
0.0017725269277765,16.9591607290377
0.00138271729345818,16.966115319579
0.00112400159418638,16.9718940400302
0.000921339127838841,16.9776727604814
0.00071496985906362,16.9855329165501
0.000548240918225937,16.9941796855162
0.000414729459767095,17.0037446928468
0.000316704495779595,17.0137446928468
0.000249244914523062,17.0237446928468
0.000203480196030921,17.0337446928468
0.000172940138630895,17.0437446928468
0.000153000661994201,17.0537446928468
0.000140452766737572,17.0637446928468
0.000133113641653161,17.0737446928468
0.000129509426298244,17.0837446928468
0.000128645779043627,17.0937446928468
0.000129854520476339,17.1037446928468
0.000132694019666524,17.1137446928468
0.000136883850058058,17.1237446928468
0.000142260989741012,17.1337446928468
0.000148750289236401,17.1437446928468
0.000156345089373238,17.1537446928468
0.000165095474493841,17.1637446928468
0.000175102529728708,17.1737446928468
0.000186517609124011,17.1837446928468
0.000199546196846564,17.1937446928468
0.000214456522606759,17.2037446928468
0.000231593734457899,17.2137446928468
0.000251401237167665,17.2237446928468
0.000274451939152852,17.2337446928468
0.000301493893155427,17.2437446928468
0.000333517648150028,17.2537446928468
0.000371857434897262,17.2637446928468
0.000418346772347417,17.2737446928468
0.000473774896905882,17.2834582609207
0.000537003889817599,17.2924396979842
0.000608928135396931,17.3007274663997
0.000690703711220795,17.3083750618437
0.000783667802543827,17.3154328000086
0.000889342146850421,17.3219473992164
0.00100945140449221,17.327962237935
0.00114594839832224,17.3335176045903
0.00130104459964927,17.3386509150846
0.00147724446431402,17.3433969169878
0.00167738591561562,17.3477878897294
0.0019046879325458,17.3518538392191
0.00216280838668258,17.3556226793151
0.00245591300856817,17.3591204080743
0.00278876347399823,17.3623712911805
0.00316682824508017,17.3653980535531
0.00359642754169353,17.3682220795692
0.00408492835329673,17.3708636404142
0.00464101456504358,17.3733421676061
0.00527507683388939,17.3756765993722
0.0059925411702056,17.3778656622929
0.00678517257220352,17.379882931724
0.00766315121164573,17.381762609153
0.00864191553605408,17.3835391830462
0.00974573968173886,17.385249954054
0.0110182613408038,17.3869443407366
0.0126001095706867,17.3887583509122
0.0149837524791029,17.3910940452007
0.0165872355993417,17.3924987419356
0.0182782347898729,17.3939034386706
0.0198196980009618,17.3951633563206
0.021196119198133,17.3963158700789
0.0224303780236249,17.397420337329
0.0235201011730779,17.3985178431036
0.0244453774752658,17.3996474479985
0.0251664952094957,17.400862203272
0.025601854404879,17.4022676336492
0.025467982235837,17.4042828402437
0.0248207169018682,17.4058207953358
0.0238000349782195,17.4073587504278
0.0226271135005721,17.4087631434879
0.0213078676531698,17.4101597589222
0.0198504843837846,17.4116030420166
0.0182641191494604,17.4131307258636
0.017256939956452,17.4140995461891
0.0162708193615969,17.4150683665146
0.0151206086204456,17.4162541547855
0.0126598262446372,17.4190501456948
0.0104498722301226,17.4219684463779
0.00871494870081873,17.4246491807853
0.00732457398820952,17.4271491722006
0.00612397550322789,17.4296586507176
0.00508306630729629,17.4321980379387
0.00423265772473392,17.4346176080649
0.00352773523833879,17.4369433641846
0.00293182750924892,17.4392130672598
0.00241459962111144,17.4414824647345
0.00194562565173392,17.4438584037756
0.00147017123348929,17.4466821339414
0.00118350128606151,17.4486518482091
0.000928536053438237,17.4506215624767
0.00072468137088773,17.4523781975306
0.000554061110197954,17.4539986616519
0.000399967434375392,17.4556019277416
0.000252180079945003,17.4572865808689
0.000100320036548335,17.459195367886
-7.80314210425997e-05,17.4617161945444
-0.000330025156312116,17.4659449409821
-0.000509460469522012,17.4696135355706
-0.000645063611931893,17.4729010817353
-0.000772712514128437,17.4765720243793
-0.000907214725169883,17.4813893980898
-0.00101656910669001,17.4868579291708
-0.00106844995864962,17.4916620814117
-0.00106766192537394,17.4960163303386
-0.00101141079753331,17.4999391948108
-0.000895690070703783,17.5034765743099
-0.000715473579301442,17.5066808862001
-0.000464904467134919,17.5096031777481
-0.000136483609872469,17.5122974137244
0.000281124324070559,17.5148240268495
0.000806021930197825,17.5172492084948
0.00147252704901666,17.5196636977299
0.0023538073842216,17.5222141552192
0.00360566341906989,17.5251396321616
0.00520120630689326,17.5282060318494
0.00658461562495311,17.5304870657252
0.00816067905346249,17.532768099601
0.00968443791584222,17.5347004073249
0.0112450830322721,17.5364383622885
0.0129129306574848,17.5380642438458
0.0147029055224572,17.5395849133581
0.0166856912998292,17.5410471581618
0.0188747189895322,17.5424433116001
0.0213203627827827,17.543789139813
0.0240501216659553,17.5450829687241
0.0271065909136668,17.5463296523163
0.0305319407482885,17.5475315029166
0.0343688830507988,17.5486896307748
0.0386754479092662,17.5498081796882
0.0435145370551674,17.5508901095716
0.0489595542202881,17.5519385401832
0.0550960408023133,17.5529566008181
0.0620283333851043,17.5539480073148
0.0698824185586302,17.5549166936052
0.0788112524946141,17.555866792675
0.089004438708278,17.5568028993895
0.100701328006923,17.5577302748652
0.114210000901204,17.5586551045379
0.129941279297438,17.5595851823952
0.148460894207744,17.5605306660303
0.170475483665113,17.5615011450332
0.195958546843114,17.5624740966923
0.225566121254588,17.5634593275655
0.260173999177998,17.564470862668
0.301083388112696,17.5655323060627
0.34927377078186,17.5666628959045
0.390257971008681,17.567569637109
0.424175160270116,17.5683134926206
0.453570123314687,17.5689801579756
0.479264077483082,17.5696100189962
0.501318454545352,17.5702283438822
0.51934242667742,17.5708577116258
0.532408680001275,17.5715256559485
0.538520224412042,17.5722785045056
0.534299297658559,17.5730754029056
0.518229259834331,17.573899178223
0.48880695196237,17.5747662813486
0.444087489192004,17.5756884703274
0.382352807138904,17.576668130232
0.337420619055446,17.5772757825293
0.28832964300727,17.5778834348266
0.244718985438473,17.5783955658351
0.207270912045367,17.5788272554434
0.174332264155342,17.5792093665378
0.144812843137202,17.5795606654271
0.118045581010523,17.5798929010609
0.0935657124528311,17.580214748122
0.0709870471046724,17.5805341333174
0.0498932500087759,17.5808607366756
0.0295915727692929,17.5812124609826
0.0074700634026207,17.5816594575456
-0.00124890841879099,17.5818625462118
-0.00917449543568261,17.582065634878
-0.0156212877338535,17.5822472923994
-0.0216426498593561,17.5824338367398
-0.0276701833152083,17.5826413536236
-0.0334656293545048,17.5828664394333
-0.0388793299729066,17.5831071106281
-0.0438286495847895,17.5833627195444
-0.0482710580674827,17.5836335106445
-0.0521882349021195,17.5839203764068
-0.055572238403544,17.5842247430686
-0.0585064697784781,17.5845599343313
-0.0607918093847217,17.584903460698
-0.0625737237190494,17.5852715404628
-0.0638680611169458,17.5856680551806
-0.0646885715018697,17.5860976049911
-0.0650466169506407,17.5865659397226
-0.0649494447318443,17.5870803643805
-0.0643977424506156,17.5876505310228
-0.0633798354932926,17.5882906060429
-0.0618677630411051,17.5890193286504
-0.0598046766988962,17.5898654569241
-0.0570704845822098,17.5908798836247
-0.0533425855589373,17.5921845985097
-0.049257295517054,17.5935799821253
-0.0453093746358921,17.594930764058
-0.0415456137790584,17.5962412184701
-0.0379889450182794,17.5975134271958
-0.0346511261501726,17.5987481107694
-0.0315372447803222,17.5999453034475
-0.0286477771423947,17.6011047132734
-0.0259797270170148,17.6022259115588
-0.0235273922189741,17.6033084300849
-0.0212829678154754,17.6043518061048
-0.0192370654515642,17.6053555960817
-0.0173791763723593,17.6063193694625
-0.0156980853644007,17.6072426887173
-0.0141215408110545,17.6081615354236
-0.0126043516721098,17.6091039171502
-0.0111510158966838,17.6100714155843
-0.00976546418954622,17.6110661463119
-0.00845143012164599,17.6120905921512
-0.00721239697564946,17.6131476960113
-0.00605154540487748,17.6142409808856
-0.00497169869128892,17.6153747115198
-0.00397526546189973,17.6165541173189
-0.00306417924952104,17.6177857081826
-0.0022398335164529,17.6190777367274
-0.00150300938613372,17.620440901699
-0.000853790722915541,17.6218894712703
-0.000291455781254033,17.623443189907
0.000171585720250297,17.6250738403462
0.000535542077991807,17.6267521333386
0.000816664677243178,17.6284963815166
0.00102954015316312,17.6303281253625
0.00118789949880842,17.632276229529
0.00130505521803655,17.6343817819788
0.0013945713756455,17.6367083898994
0.00147159089750985,17.6393676963599
0.00155673195494486,17.6426046454669
0.00166619941441064,17.6463450795629
0.00180741678497911,17.6503623025049
0.00199927925773875,17.6550066988851
0.00218724631727847,17.6591170558588
0.00237395401907646,17.6629980839742
0.00256105575832199,17.6667913161982
0.00274995763055356,17.6705724911333
0.00294238784845303,17.6743920694079
0.00314044974247925,17.6782890108033
0.0033465767605289,17.682296732833
0.0035634834723433,17.6864461913109
0.00379415929865956,17.6907680417333
0.00404190247384523,17.6952940437281
0.00431045271999796,17.7000584492631
0.00460427821304565,17.705099395394
0.00492909019513771,17.7104601010481
0.00527279116218222,17.7158802074114
0.00562714391175997,17.7211869956607
0.00599693283337082,17.7264141435007
0.00638423483794986,17.7315464240975
0.00679338477534197,17.7365963837732
0.00722869990272261,17.74157072021
0.00769500721394047,17.7464768407722
0.00819741860032058,17.7513191836168
0.00874146595638883,17.7560999959589
0.00933317987616251,17.760819413387
0.00997921289535999,17.7654760196085
0.0106898503825423,17.770085268473
0.0114892576069217,17.7747264584583
0.0123924533585266,17.7793917764255
0.0134226851180535,17.7840989079649
0.0146130859991215,17.7888835095432
0.0160196847638898,17.7938318654949
0.0177656431480687,17.7991818060938
0.0202192802735941,17.8056973980382
0.0218470799070157,17.8096252783067
0.0235325932346156,17.8135531585752
0.0250037979297066,17.8170261066786
0.0262450896143188,17.8201628653501
0.0272796998474066,17.8231525197912
0.0280715932625484,17.826022126347
0.0285964331773436,17.828793062167
0.0288484297623865,17.8315869202856
0.0287878368586096,17.8345732087704
0.0282659859416709,17.8381762926834
0.0274622378633483,17.8412715493228
0.0263857863329043,17.8443668059623
0.025304953810328,17.8469940113147
0.0242337834920517,17.8493623260546
0.0231619256037582,17.8516019442902
0.0220892821697373,17.8537712049263
0.0210189430940289,17.8559019729678
0.0199546071532839,17.8580148469192
0.0188999153987113,17.8601246242433
0.0178582729086151,17.8622427439205
0.016832804913381,17.8643785713733
0.0158263538811448,17.8665401520172
0.0148414908878863,17.8687346876336
0.013880526026514,17.8709688699841
0.0129455221593421,17.8732491195728
0.0120383070048217,17.8755817740027
0.0111604787267697,17.8779732616547
0.010313422146839,17.8804302317816
0.00949831283023442,17.8829597112487
0.00870855937904612,17.8855954833963
0.00793043521262433,17.8884070541801
0.00716773050516348,17.8914146527956
0.00642425878403848,17.8946424332474
0.00570406841396285,17.8981183341101
0.00501141018910249,17.9018747946322
0.0043506800266613,17.9059496500797
0.00372631852374734,17.9103873701839
0.00314262970183925,17.9152411603978
0.00260352223401351,17.9205767071564
0.00211219534674368,17.9264790553833
0.00167096323900814,17.9330630762181
0.00129726221045529,17.9401437221789
0.000989113938310884,17.9477986148306
0.000799668729087995,17.9542711484316
0.000609281245737533,17.9629447243406
0.000462929669778858,17.9721489396872
0.000350102806076476,17.9821489396872
0.000272116953152964,17.9921489396872
0.00021891610833498,18.0021489396872
0.000183179146923241,18.0121489396872
0.00015962384998063,18.0221489396872
0.000144547675580586,18.0321489396872
0.000135417505087737,18.0421489396872
0.000130520117150426,18.0521489396872
0.000128699246577365,18.0621489396872
0.00012917579363772,18.0721489396872
0.000131430413403722,18.0821489396872
0.000135126961003254,18.0921489396872
0.000140061528830671,18.1021489396872
0.000146128039872204,18.1121489396872
0.000153295323624474,18.1221489396872
0.000161592669860686,18.1321489396872
0.00017110193270381,18.1421489396872
0.000181954957290803,18.1521489396873
0.000194335691713499,18.1621489396873
0.000208486919555249,18.1721489396873
0.000224722157277476,18.1821489396873
0.000243443987565036,18.1921489396873
0.00026517108231376,18.2021489396873
0.000290577634728774,18.2121489396873
0.000320551256923752,18.2221489396873
0.000356279303473228,18.2321489396873
0.000399380361306035,18.2421489396873
0.00045210408718422,18.2521479335242
0.000512343369670462,18.2614039669224
0.000580887470410095,18.2699453896014
0.000658825203803249,18.2778267939319
0.000747428407751056,18.2850999164251
0.000848148844352207,18.2918127982268
0.000962632670686673,18.298010038548
0.00109274395949534,18.3037330563543
0.00124059329092385,18.3090203202196
0.00140857113326118,18.3139075538886
0.00159938500720106,18.3184279384732
0.00181610519228585,18.3226123097531
0.00206221750995084,18.3264893451511
0.00234168823803886,18.3300857396081
0.00265904428254374,18.3334263859029
0.00301947407257594,18.3365345635986
0.00342895914695869,18.3394321346716
0.00389444730975889,18.3421397583352
0.0044240907667111,18.3446771449892
0.00502758477513377,18.3470633703847
0.00571666875835924,18.3493172963516
0.00648033072215968,18.3513946864454
0.00732499607820016,18.3533216226754
0.00826394991406105,18.3551325493072
0.00931744529908981,18.3568630337548
0.0105198462017758,18.3585562260586
0.0119550717835981,18.3602966982754
0.0139192480956043,18.3623426285383
0.0155768819460116,18.363870884179
0.017367503105385,18.3653991398196
0.0190294280539843,18.3667625545216
0.0204895508003215,18.3679636495532
0.0217976725946943,18.3690875963847
0.0229649868497982,18.3701841021918
0.0239803862434389,18.3712915216712
0.0248156460530436,18.3724530769883
0.0254163400941179,18.3737383572764
0.0256524560682503,18.3753240225152
0.025271321782586,18.377113059125
0.0243066914872027,18.3789020957347
0.0231886489312505,18.3803649913947
0.0219343411856602,18.3817581929064
0.020539075708569,18.3831751629221
0.0190111149307051,18.3846594216677
0.017357354168599,18.3862488269095
0.015608128212122,18.3879911704868
0.0141652205714624,18.3895409422328
0.0117213762102936,18.3924806916081
0.00971456868055636,18.3953020651679
0.00813087127704124,18.3979019063035
0.00682636301932455,18.4003917809073
0.00568797075936639,18.4029215023261
0.00472821206526297,18.4054107884195
0.00393997234706725,18.4077895048354
0.0032818572022853,18.4100879992689
0.00272032446757605,18.4123493361259
0.00222602776917141,18.4146428453089
0.00176471598861027,18.4171227409978
0.00136301899331384,18.419637658793
0.00109754681384619,18.4215366951381
0.000860302037130958,18.4234357314832
0.000669339663655261,18.4251333067978
0.000505143038140697,18.4267377614804
0.000353969298576713,18.4283551243739
0.000206197064829851,18.4300893229428
4.98801946207009e-05,18.4321200837085
-0.000151696795430833,18.4351065109561
-0.000354690874433632,18.4386577333929
-0.00050090916003504,18.4416695829777
-0.000626246752617865,18.4446587437341
-0.000749856143713306,18.4481092195425
-0.000880076213046954,18.4525527622965
-0.00100199405171589,18.4581978910943
-0.00106310063191751,18.4630798603049
-0.00107189740402733,18.4675170584247
-0.00102582667926577,18.4715126554534
-0.000921019643222605,18.4751170221747
-0.000752718243337106,18.4783769988073
-0.000515315529213438,18.4813444789056
-0.000201372299196728,18.4840763701683
0.000199696489331501,18.4866308938249
0.000705183286416051,18.4890748129896
0.00134587849883381,18.4914918137869
0.00218339153898652,18.4940078167611
0.00337811499658453,18.4968968607161
0.00491443947525242,18.4999404350306
0.00633898592054266,18.5023488699706
0.00797229019554244,18.5047573049106
0.00952731739249614,18.5067592793227
0.0110649925005397,18.5084967953034
0.0127122638759483,18.5101281461106
0.0144811144040153,18.5116560487489
0.0164364483601876,18.5131230322479
0.0185989065125196,18.5145266702713
0.0210135008786592,18.5158791330783
0.023707289311691,18.5171788243668
0.0267241287492464,18.5184314822122
0.0301034578292757,18.5196385073509
0.0338893331542765,18.5208017355437
0.0381381729342551,18.5219250419155
0.0429114435753226,18.5230112948545
0.0482799857710617,18.5240633887252
0.0543289416755695,18.5250847359245
0.0611612091172774,18.5260791274662
0.0688992010396001,18.5270503317439
0.0776921668148803,18.5280024354394
0.0877248029338376,18.5289399718537
0.0992286850722133,18.529868030583
0.112503847769255,18.5307927889608
0.127946319615465,18.5317217778497
0.146099370500496,18.5326647974385
0.167746446104261,18.533635522905
0.192795638745644,18.5346077482099
0.221883457064289,18.535590932619
0.255853987679877,18.5365984626841
0.295938110698337,18.5376522719291
0.343524870402875,18.5387800252805
0.385591486639725,18.5397148305764
0.420203557649876,18.5404729353346
0.450096658163232,18.541146510696
0.476240731176804,18.5417794531216
0.498763828367733,18.5423980022571
0.517330300580845,18.5430246609264
0.531095838245372,18.5436858395543
0.538259499548278,18.5444240784335
0.535483790646058,18.5452188700035
0.521014167842535,18.5460381674001
0.493414435355002,18.546898918761
0.450784795949355,18.5478135254914
0.391014371647133,18.5487901976317
0.345258290035027,18.5494214076631
0.294832622060615,18.5500526176945
0.250127550949153,18.550580186847
0.21194832574061,18.5510206816676
0.178485795847169,18.5514080836402
0.148557557125798,18.5517626920511
0.121454900041519,18.5520969166643
0.0966945939049175,18.5524196896146
0.073885701355374,18.5527389168242
0.0526242345090166,18.5530638339255
0.0322844407646795,18.5534104418081
0.0108512636220115,18.553832761692
0.000549345718282466,18.5540664021395
-0.0068124552439437,18.5542503183167
-0.0135437883036342,18.5544342344939
-0.0194743637225185,18.5546118590348
-0.025528722783278,18.5548122241971
-0.0314289844246539,18.555031335088
-0.0369915958848025,18.5552665597288
-0.0421136820431145,18.5555168332305
-0.0467406510837686,18.5557821177202
-0.0508468525505414,18.5560630922153
-0.0544235236368087,18.5563609992672
-0.0576729492412378,18.5567027245325
-0.0601222138935636,18.5570392427984
-0.0620619228788262,18.5573991124587
-0.0635094348699565,18.55778615044
-0.0644789411220656,18.5582046543714
-0.0649827326226684,18.5586599726983
-0.0650295730315901,18.5591588618565
-0.0646226636418708,18.5597100318023
-0.0637547702951692,18.560326219338
-0.0624038877037395,18.5610243117052
-0.0605244940527529,18.5618291281266
-0.0580231468313742,18.5627822179825
-0.0546748745894917,18.5639712951774
-0.0505588602102151,18.5653839653112
-0.0465596682666273,18.5667485416009
-0.0427334519994498,18.5680716315155
-0.0391085266647012,18.5693560012137
-0.0356995470059579,18.5706027145861
-0.0325134468627812,18.5718119752502
-0.0295520313889837,18.5729835690314
-0.0268133245349987,18.5741170970427
-0.0242924222311044,18.5752120967952
-0.0219821353627492,18.5762681010065
-0.0198735314298593,18.5772846598003
-0.0179564142280691,18.5782613400242
-0.0162197533466158,18.5791977092247
-0.0146251107722062,18.5801091846798
-0.013088139001781,18.5810438464508
-0.0116137163345898,18.5820030067994
-0.0102058252525616,18.5829886793424
-0.00886826947149051,18.5840032187018
-0.0076046188097424,18.5850494074957
-0.00641815764972508,18.5861305657776
-0.00531183096582187,18.5872506975056
-0.00428818790495681,18.5884146909034
-0.00334932247309767,18.5896285997181
-0.00249681024393573,18.5909000502921
-0.0017316388713955,18.5922388527446
-0.00105412809240633,18.5936579607483
-0.000463830677815415,18.5951750661638
3.48470181726881e-05,18.5967941455484
0.000428637858978927,18.598455024148
0.000734682670839444,18.6001760478153
0.000967912811689771,18.601977012479
0.00114229382008463,18.603884054267
0.00127121450950679,18.6059335760429
0.00136806033166202,18.6081802597038
0.00144724177447312,18.6107156816221
0.00152680698261173,18.6137236142415
0.00163109151705557,18.6174585907249
0.00176018043710967,18.6213415579254
0.0019356048986979,18.6257784895614
0.00212405079788747,18.630011196776
0.00231092881935233,18.6339479197723
0.00249774818691897,18.6377603730198
0.0026858657080262,18.6415391344182
0.00287688531174878,18.6453409942972
0.00307278706486673,18.6492078880086
0.00327589948706467,18.6531746682022
0.003488844570869,18.6572728356756
0.0037145184977665,18.6615329813563
0.00395610638342891,18.6659863461168
0.00421717505209289,18.6706661724843
0.00450190291669526,18.6756091519389
0.00481550336062646,18.680856628734
0.00515772565039258,18.6863413241987
0.00550669022912724,18.6916609869976
0.00587159904451364,18.6969239304832
0.00625244970223953,18.7020846186261
0.00665387982986386,18.7071619702146
0.00707990830351447,18.7121604731104
0.00753530440380479,18.7170888415475
0.00802504633499415,18.7219521321828
0.00855452597613016,18.7267534169033
0.00912959171353645,18.7314934576366
0.00975667485343565,18.7361712983667
0.01044291622294,18.740784854884
0.0112112444456412,18.7454172205699
0.0120774526878349,18.7500729368038
0.0130621616294167,18.7547635180787
0.014194290540018,18.7595160518916
0.0155198414366146,18.7643944315067
0.0171296035683597,18.7695632715245
0.0193020199387895,18.7756123061087
0.0210734104343522,18.7800299693802
0.022950936048043,18.7844476326518
0.0245304131548824,18.7881372878811
0.0258467144768081,18.7913660446804
0.026951310752038,18.7943890320316
0.027835605338792,18.7973193756052
0.0284499167793356,18.8001111846355
0.0287958380658867,18.8028822873176
0.0288482991560643,18.8057778863458
0.0285154982871502,18.8090817526218
0.0275027963522553,18.8133863722346
0.0266097015484561,18.8160223578981
0.0255555886069183,18.8186583435615
0.0244865015460353,18.8210648011326
0.0234152563284674,18.8233274319972
0.0223425915034554,18.8255097145984
0.0212713880785026,18.8276473519738
0.0202053046020433,18.8297628970511
0.0191480217433222,18.8318722267592
0.0181030075482315,18.8339874261976
0.0170734541742755,18.8361182680855
0.0160622708082681,18.838273056903
0.0150720912521898,18.8404591598442
0.0141052858507315,18.8426833651022
0.0131639763109523,18.8449521348403
0.0122500431731563,18.8472718149922
0.0113651389822878,18.8496487962363
0.0105106983706075,18.8520896620458
0.00968794512788026,18.8546013380713
0.00889592694783004,18.857197958668
0.00811464941647767,18.8599660350624
0.00734791968165408,18.8629248789826
0.0065994919401494,18.8660978376137
0.00587336087915413,18.8695118904557
0.00517373477578823,18.87319832581
0.00450498201255553,18.8771935999987
0.00387154451471023,18.8815404645017
0.00327778333132993,18.886289757549
0.00272772481073515,18.8915037472519
0.00222476319423598,18.8972620470477
0.00177142413770755,18.9036713264709
0.00138178830497087,18.9106272271888
0.00112401184634071,18.9163869335745
0.000921934868640969,18.9221466399602
0.000715721044725766,18.929993126366
0.000548786974803024,18.9386398860973
0.000415150260114645,18.9482019569871
0.000316995067026625,18.9582019569871
0.000249443297610887,18.9682019569871
0.000203613682913591,18.9782019569871
0.000173028306007499,18.9882019569871
0.000153057246770395,18.9982019569871
0.000140487204542331,19.0082019569871
0.000133132337791698,19.0182019569871
0.000129516713157842,19.0282019569871
0.000128644579110207,19.0382019569871
0.000129846785027904,19.0482019569871
0.000132681016906551,19.0582019569872
0.000136866357080806,19.0682019569872
0.000142239421887099,19.0782019569872
0.00014872478630439,19.0882019569872
0.00015631557033513,19.0982019569872
0.000165061668125737,19.1082019569872
0.000175063985855572,19.1182019569872
0.000186473692991162,19.1282019569872
0.000199496067080826,19.1382019569872
0.000214399091093765,19.1482019569872
0.000231527603950459,19.1582019569872
0.000251324609089099,19.1682019569872
0.000274362479111074,19.1782019569872
0.000301388533855266,19.1882019569872
0.000333392296395961,19.1982019569872
0.000371706526946227,19.2082019569872
0.000418162581681058,19.2182019569872
0.000473564508725367,19.2279181955262
0.000536764548920176,19.2369022012603
0.000608656050375065,19.2451923420765
0.000690394446940695,19.2528421239511
0.000783316294307097,19.2599018758973
0.000888942651671915,19.2664183286394
0.00100899741914939,19.2724348720961
0.00114543256009888,19.277991805306
0.00130045856879578,19.2831265540498
0.00147657879686804,19.2878738750511
0.0016766299028657,19.2922660561862
0.00190382942159889,19.2963331111362
0.00216183355356417,19.3001029609064
0.00245480608512265,19.303601610062
0.00278750640210629,19.3068533301252
0.00316540022545203,19.3098808511637
0.00359480444907618,19.3127055619555
0.00408308193062585,19.3153477372099
0.00463891128524921,19.317826810893
0.00527267623402292,19.3201617222637
0.00598989072273218,19.3223514550669
0.00678224305979298,19.324369271802
0.0076598982698204,19.3262493744823
0.00863827295374614,19.3280262507707
0.00974159798059234,19.3297371801898
0.0110134071908567,19.3314315084891
0.0125936901930617,19.3332446803882
0.0149741508858202,19.335578499971
0.016578164568512,19.3369842267788
0.0182700823771739,19.3383899535865
0.0198125128780984,19.3396506399754
0.021189668187868,19.3408035187718
0.0224246157067426,19.3419081154221
0.0235150853206189,19.3430055647075
0.024441247965678,19.3441349022635
0.0251635177143067,19.345349053391
0.0256006383355941,19.3467530625297
0.0254718915340779,19.3487616036413
0.0248275112949733,19.3503015460055
0.0238079478560129,19.3518414883698
0.0226360762497442,19.3532462903666
0.0213178686267463,19.3546427291532
0.0198614539755905,19.3560855340708
0.0182760041560315,19.3576124709163
0.0172637821917753,19.3585860888712
0.0162726397491637,19.3595597068262
0.0151326670355812,19.3607345367702
0.0126730352854323,19.3635271812842
0.0104602585431703,19.3664467390984
0.00872314174203005,19.3691286595735
0.00733123627667309,19.3716294258245
0.00612979110047112,19.3741386892796
0.00508779280022118,19.3766787253845
0.00423654806396608,19.3790988336289
0.00353099313040285,19.3814249672419
0.00293461508824643,19.3836948334043
0.00241705998803681,19.3859640446143
0.00194792843250456,19.3883390149873
0.00147280432621978,19.3911582568713
0.0011854269500114,19.3931309887614
0.000929881764846598,19.3951037206515
0.000725744780190643,19.3968617336742
0.00055499139615892,19.3984825892416
0.000400833522191593,19.4000856855579
0.000253033692937028,19.4017695748947
0.000101232291325627,19.4036764867033
-7.68273299851825e-05,19.4061912113976
-0.000329080533844536,19.4104204856506
-0.000508864549943096,19.4140934143264
-0.000644582479233848,19.4173816873718
-0.000772241321973546,19.421050458168
-0.000906708014658388,19.4258619697531
-0.00101628920078988,19.4313335454874
-0.00106834619766177,19.4361391869505
-0.00106774167939242,19.440495006247
-0.00101168579293595,19.4444192599681
-0.000896175930418614,19.4479578684909
-0.000716188825140575,19.4511632356327
-0.000465872042082418,19.45408639621
-0.000137734533466371,19.4567813088544
0.000279543420861706,19.459308394947
0.000804036255631781,19.4617338222343
0.00146995108684846,19.4641480946041
0.00235027923898033,19.4666977070677
0.00360111508148953,19.4696227829788
0.00519548862214693,19.4726887552709
0.00657966578115076,19.4749721936104
0.0081567861256463,19.4772556319498
0.00968030953344323,19.4791882887683
0.0112410354548917,19.4809269347475
0.0129080725505912,19.4825526164712
0.0146976687097411,19.4840735604255
0.0166800055426627,19.4855360549356
0.0188684180036141,19.4869323755272
0.0213133537145405,19.4882783591641
0.0240422444092512,19.4895723047961
0.0270977838175407,19.4908191209224
0.0305220827185213,19.4920210958436
0.0343578129311283,19.4931793321267
0.0386630304421379,19.4942979881434
0.0435005871700653,19.4953800159548
0.0489438536663757,19.4964285348619
0.055078270389574,19.4974466641876
0.0620082338854158,19.4984381381155
0.0698596166813414,19.4994068812055
0.0787852870368078,19.5003570251754
0.0889747330494671,19.5012931634152
0.100667147350893,19.5022205548868
0.114170376712647,19.5031453812005
0.12989491524047,19.5040754319321
0.148405959289703,19.5050208560413
0.170411989600787,19.5059913391458
0.195884942046541,19.5069642720741
0.225480392167739,19.507949453098
0.260073371395565,19.5089608917027
0.300963368983048,19.51002215085
0.349139616255695,19.5111526660246
0.390148262926156,19.5120600334323
0.424081499409068,19.5128042111012
0.453488215630971,19.5134710335751
0.479192909606148,19.5141009630915
0.501258548288694,19.5147192888722
0.519295632977226,19.5153485868431
0.532378908079778,19.5160163618386
0.538516379113885,19.5167688439925
0.534330544540717,19.5175656875312
0.518299445568171,19.5183893512342
0.48892152556732,19.5192562985193
0.444252928316947,19.5201783030253
0.38254205997007,19.5211582275859
0.337592120385245,19.5217663743912
0.288472792443059,19.5223745211965
0.244838556339316,19.5228869812324
0.20737456402597,19.5233188602913
0.17442441652143,19.5237010858588
0.144895980296746,19.5240524563786
0.118121305798664,19.5243847347395
0.0936352381468574,19.5247066009434
0.0710514994328357,19.5250259808055
0.0499540672512062,19.5253525434596
0.0296518593346297,19.5257041446541
0.00754922952033743,19.5261504949839
-0.0011998586674063,19.5263541470932
-0.00915095827060874,19.5265577992024
-0.0156018640485581,19.5267395171273
-0.0216227034378662,19.5269259853011
-0.0276506473025935,19.5271334390268
-0.0334471495576802,19.5273584711271
-0.0388622703755225,19.5275990926433
-0.0438132050172183,19.527854652365
-0.0482573221653476,19.5281253923104
-0.0521762396034729,19.5284122030673
-0.0555620172748574,19.5287165092083
-0.058499494773459,19.5290518171635
-0.0607862533612688,19.5293952822144
-0.0625695286349964,19.5297632892418
-0.0638651871420098,19.5301597198711
-0.0646869833312767,19.5305891715201
-0.0650462880569752,19.5310573903766
-0.064950362643205,19.5315716764407
-0.0643999211937093,19.5321416707633
-0.0633833260479506,19.5327815308667
-0.0618726733362973,19.5335099762811
-0.0598112246278927,19.534355726757
-0.0570791588720725,19.5353695800292
-0.0533549707400557,19.5366731411526
-0.0492693700472399,19.5380686735163
-0.0453209501808288,19.5394195819229
-0.0415565963527272,19.5407301532787
-0.0379992857560354,19.5420024751296
-0.0346608011133456,19.5432372709
-0.0315462462877637,19.5444345762641
-0.0286561093724965,19.5455940999066
-0.0259874033012971,19.5467154133746
-0.0235344330453015,19.5477980484842
-0.0212893991666505,19.5488415424414
-0.0192429173390455,19.5498454516543
-0.0173844815230028,19.550809345556
-0.0157028780519413,19.5517327866786
-0.014126164541739,19.5526515647133
-0.0126087910364195,19.5535938744289
-0.0111552589378831,19.5545612950144
-0.00976949945182026,19.5555559410832
-0.0084552468195919,19.55658029423
-0.00721598514655356,19.5576372958311
-0.00605489606830375,19.5587304669353
-0.00497480401582753,19.5598640697826
-0.00397811894009853,19.5610433304899
-0.00306677588379347,19.5622747545436
-0.00224217002170808,19.5635665884729
-0.00150508442030538,19.5649295223348
-0.000855605167375866,19.5663778113538
-0.000293013116561165,19.5679311795757
0.000170351415371634,19.5695617153455
0.000534578015354521,19.5712398385206
0.000815925711137006,19.5729838606879
0.00102898420180957,19.5748153049974
0.00118748646278419,19.5767630086172
0.00130474542003244,19.5788680116861
0.00139432294389361,19.5811938284439
0.00147135377129247,19.5838518858877
0.00155642629274045,19.5870864238748
0.00166583308340042,19.5908266513395
0.0018069247991001,19.5948424462498
0.00199881337578481,19.5994890830911
0.00218678726036846,19.6036002949886
0.00237349563113844,19.6074816661622
0.00256059484022657,19.6112750046667
0.00274949047325931,19.6150561412805
0.00294190979037302,19.6188755763157
0.00313995522435979,19.622772288262
0.00334605950929589,19.6267797042091
0.00356293653382676,19.6309287825963
0.00379357504098081,19.6352501778733
0.00404127240875536,19.6397756453989
0.00430976701307129,19.6445394293538
0.00460352475570379,19.6495796560014
0.00492825297405238,19.6549395303438
0.00527194293321585,19.6603601188998
0.00562625558353649,19.6656670120954
0.0059960074724461,19.6708944218881
0.00638326040779737,19.6760269055313
0.00679235203452234,19.6810770630137
0.00722759718232916,19.6860515733794
0.00769382252022746,19.6909578550325
0.0081961389002349,19.6958003503728
0.00874007715652505,19.700581312609
0.00933166649686218,19.7053008817011
0.00997755778049015,19.7099576444573
0.0106879935017627,19.7145668086119
0.0114871683241926,19.7192079518813
0.0123900821972285,19.7238731907078
0.0134199661081833,19.7285801881593
0.0146099173166236,19.7333645238072
0.0160158779803392,19.73831228801
0.0177607092173739,19.743660630759
0.0202142890557645,19.7501779441432
0.0218427231044351,19.7541079705171
0.0235291023348858,19.758037996891
0.0250009018484453,19.7615120510458
0.0262426509164299,19.7646493062214
0.0272777047642226,19.7676391210429
0.0280701802394086,19.7705090648865
0.0285955917703427,19.7732800898457
0.0288481994520214,19.7760737485875
0.0287883659732894,19.7790593470494
0.0282679227139711,19.7826599858649
0.027464469551209,19.7857572277316
0.0263878231632824,19.7888544695983
0.025306908926877,19.7914824703164
0.0242357306126037,19.7938511139267
0.0231638755669425,19.7960909015807
0.0220912311276275,19.7982602564558
0.0210208845447546,19.8003910734614
0.0199565343318873,19.8025039652155
0.0189018218725563,19.8046137370045
0.0178601527376787,19.8067318325191
0.016834652670669,19.8088676201676
0.015828164648344,19.8110291472671
0.0148432602307212,19.813223616797
0.0138822499670358,19.8154577212226
0.0129471971724463,19.8177378813243
0.0120399299709638,19.8200704347335
0.0111620469264934,19.8224618095553
0.0103149332669702,19.8249186544399
0.00949976490531809,19.8274479955057
0.00870999348680084,19.8300834633109
0.0079318444721315,19.8328946958946
0.00716910817209626,19.8359019152551
0.00642559766986001,19.8391292690384
0.00570536091197572,19.8426046883521
0.00501264838097463,19.8463606033991
0.00435185579848431,19.8504348386228
0.0037274238081974,19.8548718501449
0.0031436569048019,19.859724824655
0.00260446475918238,19.8650594207834
0.00211304815704408,19.8709606392894
0.00167172286041906,19.8775432859363
0.00129790052574913,19.8846229469908
0.000989611202240266,19.8922766600678
0.000800354226950158,19.8987375561116
0.000609839644182119,19.9074079171279
0.000463326060988514,19.9166124305525
0.0003503777840465,19.9266124305525
0.000272305681621814,19.9366124305525
0.000219043856225771,19.9466124305525
0.000183264239967976,19.9566124305525
0.000159679269870254,19.9666124305525
0.000144582377689495,19.9766124305525
0.000135437569683587,19.9866124305525
0.000131922444622641,19.9933062152762
0.000129837887374529,20
