ecg,time
0.000127838229258288,15.0070830495989
0.000136571791822099,15.0170830495989
0.000146252939015265,15.0270830495989
0.000157022121140579,15.0370830495989
0.00016904897013941,15.0470830495989
0.000182539718844564,15.0570830495989
0.000197747093578945,15.0670830495989
0.00021498363267471,15.0770830495989
0.000234639841135341,15.0870830495989
0.000257209301819557,15.0970830495989
0.00028332399203547,15.1070830495989
0.000313804892834766,15.1170830495989
0.000349736054546178,15.1270830495989
0.000392575583794244,15.1370830495989
0.000444326459377233,15.1470830495989
0.00050422873978647,15.1565643212253
0.000571975695884476,15.1653278587258
0.000648479209326187,15.1734195919621
0.000734864720123566,15.1808911860044
0.000832425654601823,15.1877909250548
0.000942630469324522,15.1941636468292
0.00106714237035041,15.2000510216275
0.00120784427467686,15.2054917942705
0.00136686994649593,15.2105219464519
0.00154663449882493,15.2151748831217
0.00174987680006663,15.2194816396248
0.00197970330671925,15.2234710932674
0.00223964602283288,15.227170111826
0.00253372437761,15.2306037026928
0.00286652884358394,15.2337951991913
0.00324332661310192,15.2367664484207
0.00367019010264838,15.2395379703376
0.00415417482876675,15.2421291621623
0.00470356184450045,15.2445585466617
0.00532819439148976,15.2468440465999
0.00603892609940069,15.249000451685
0.0068218167496044,15.2509809775553
0.00768542604801783,15.2528177886325
0.00864266453027583,15.254542857696
0.0097127757617764,15.2561885193512
0.0109275666135785,15.2577928573079
0.0123729783510877,15.2594388323812
0.0142919035534497,15.2613192960943
0.0161993049811368,15.2629607685812
0.0182884405202025,15.2646022410681
0.020064503914307,15.2659359084396
0.0216066372747014,15.2670951457744
0.0229900164061473,15.268179301513
0.0242287785777599,15.2692377928144
0.025312301648188,15.2703081259536
0.0262122289286913,15.271432822409
0.0268733810122247,15.2726810172088
0.0271626612103254,15.2742312767387
0.0268234081096584,15.2759406144432
0.0258990636987214,15.2776499521476
0.0247895703075158,15.2790741887343
0.0235273725788504,15.2804384425469
0.0221124739047345,15.281830553158
0.0205539587508389,15.2832937598399
0.0190006315593375,15.2847343763584
0.0179420421412163,15.2857251893142
0.0169228977671366,15.28671600227
0.0153497366021986,15.288344420523
0.0136471780250248,15.2902739506854
0.0114338933597906,15.2931305194623
0.00964271890276067,15.2958482329345
0.00823055873450355,15.2983633224007
0.00703814083222011,15.3008550152049
0.00600777658949565,15.3033985633876
0.00511849503306244,15.3060195067506
0.00435543943032813,15.3087408024347
0.00370765096600666,15.311586186307
0.00316760352953298,15.3145816471235
0.00273141100583655,15.3177568618794
0.00239976666701436,15.3211468902708
0.00218013177701314,15.3247944008626
0.00209151065064743,15.3287528158053
0.00214582351327915,15.3323058521307
0.00231310822222687,15.3355035846598
0.00257647893775545,15.3383921396852
0.00292773945967799,15.3410200099662
0.00336543564521271,15.343436076348
0.00389458777016358,15.3456900407761
0.00452842108021246,15.3478354481777
0.00529255586662195,15.34993407997
0.0062366019784079,15.3520700522994
0.00746534049287191,15.3543825189273
0.00917828317639931,15.3570716752723
0.0112642504835552,15.3598245218586
0.0128351064861823,15.361626532307
0.0146054172596871,15.3634285427555
0.0164476488665918,15.3650790329688
0.0183663052215714,15.3665862199059
0.0204376097229266,15.3680070142258
0.0227115985886397,15.3693622352245
0.0252273013336287,15.3706593848124
0.0280352504805243,15.371908057916
0.0311738646216283,15.3731091241465
0.0346952142359587,15.374267264667
0.0386484364085472,15.3753840072104
0.0430944813624479,15.37646264993
0.0480998782823533,15.3775057516826
0.0537424025339698,15.378516221709
0.0601138528561637,15.3794972399973
0.0673214644968635,15.380451945057
0.0754946049183742,15.3813838320089
0.0847888552053894,15.3822965461235
0.0953939751952993,15.3831940132925
0.107545411709307,15.3840806164387
0.121538803924681,15.3849612840375
0.137752486613396,15.3858417500562
0.156682332756396,15.3867289660607
0.179000811019694,15.3876318742383
0.205336038828566,15.3885521952134
0.235810309106881,15.3894755611782
0.271194153050059,15.3904113544139
0.31256431376591,15.3913751079712
0.361774890014525,15.392399888827
0.398303090119589,15.3931082981609
0.435868052149798,15.3938167074949
0.469283866785496,15.3944527837764
0.498656797248062,15.395041314694
0.524397451477421,15.3956111722694
0.546377820451215,15.3961856159926
0.563960954741636,15.3967906199445
0.575664144771009,15.3974682733387
0.57791789162402,15.3982186172186
0.568311460357738,15.3989949659492
0.545483580232844,15.3998185978507
0.50850316182748,15.4006846397555
0.457744117044482,15.4015740137843
0.39269477065126,15.4024934029021
0.344471169565825,15.4030888622342
0.292399224306872,15.4036843215664
0.246728658609457,15.4041842776379
0.207843272555233,15.4046049539335
0.173812916145881,15.4049773909034
0.143412631072787,15.405320217942
0.11590392431575,15.4056450650787
0.0907740193832798,15.4059606187585
0.0675917370697601,15.4062750738125
0.0458717985060525,15.4065990712771
0.0247171283934394,15.4069545736605
0.00747671346581685,15.4072873899821
-0.00189071600193905,15.4074913098094
-0.010387396776631,15.4076952296366
-0.0170517684435539,15.4078712282917
-0.0231846166885438,15.4080489490256
-0.0293767787624794,15.4082477931198
-0.0353687765555467,15.4084642451623
-0.0409939712552447,15.4086961522567
-0.0461591636732246,15.4089427306448
-0.0508154203108786,15.4092041108548
-0.0549406294932921,15.4094810817429
-0.0585291893257624,15.4097749672609
-0.0615856921034454,15.4100875855241
-0.0641138745515915,15.4104212647963
-0.0661270690627211,15.4107805868735
-0.0676117545051745,15.4111623095923
-0.0686142369992638,15.4115755658528
-0.0691475290477157,15.4120258887829
-0.0692205597680363,15.4125202341547
-0.068836235206804,15.4130676276212
-0.0679862681512082,15.4136813347513
-0.0666461710808883,15.4143791556579
-0.0647647774140082,15.415187794809
-0.0622344083020035,15.4161534078646
-0.0587791156912212,15.4173805063305
-0.0546463265677832,15.418797464817
-0.0506184117123719,15.4201690371599
-0.0467527300170144,15.421500862578
-0.0430790104444138,15.4227952052447
-0.0396135221239931,15.4240528191245
-0.0363648723710108,15.4252737008974
-0.03333650085444,15.4264574887113
-0.0305279589167847,15.4276036728876
-0.0279357183578083,15.4287117054782
-0.0255537882600104,15.4297810532433
-0.0233742451311768,15.4308112171364
-0.0213877129312159,15.4318017306315
-0.0195838011161309,15.4327521437136
-0.0179515002305157,15.433661996299
-0.0163854097907371,15.434588115109
-0.0148786023775999,15.4355381530186
-0.013435185811305,15.436513959049
-0.0120590042799351,15.437517754502
-0.0107536797361714,15.4385521561087
-0.00952255778216203,15.4396202755107
-0.00836865112477616,15.4407258508715
-0.00729457957923493,15.4418734254539
-0.00630250582237504,15.4430685958926
-0.00539406523536519,15.4443183674186
-0.00457028664885686,15.4456316798294
-0.00383149797932495,15.4470202194021
-0.0031772050577603,15.4484997388308
-0.00260591938733459,15.4500923503651
-0.00213854197109791,15.4517359965774
-0.00176280977494907,15.4534333511353
-0.00146296642866356,15.4552029814504
-0.0012243596695767,15.4570684313371
-0.0010328935813303,15.4590617911935
-0.000874422676179359,15.4612298528092
-0.000733695111168601,15.4636475855669
-0.000591888595747818,15.4664542037664
-0.000417681065124937,15.4699935057475
-0.000219280757276883,15.4737742444283
2.17171365017809e-05,15.4779715008924
0.000315089771979806,15.4827335439038
0.000636960073756713,15.4877876653428
0.00093179041218067,15.4924086529222
0.00120570825193772,15.4967673968696
0.00147330931251818,15.5011159194412
0.00175333405786785,15.5057660527081
0.00204945798997077,15.5107751661925
0.00233697940053919,15.515691994873
0.00262965200094596,15.5207151446931
0.0028772268266591,15.5249415200387
0.0031096066881556,15.5288745231134
0.00333807940952063,15.5326926655637
0.00356865354382222,15.5364825879372
0.00380562798090801,15.5402991614805
0.00405271761251118,15.5441835696674
0.00431352284372358,15.5481701686742
0.00459180629937285,15.55228993204
0.00489174300120152,15.5565730219336
0.00521814257236843,15.5610501605867
0.0055767562148722,15.5657539005152
0.00597475879098459,15.5707198833096
0.00640836947831263,15.575835744437
0.00685977297251234,15.5808450945807
0.00733772872062426,15.5858114582528
0.00784352110316367,15.5907032471981
0.00838255264727807,15.5955256942042
0.00896062986283232,15.6002796194333
0.00958469412799255,15.6049682331433
0.0102624921894605,15.6095935694168
0.0110154277858031,15.6142317753664
0.0118605120238239,15.6188987898537
0.0128174569388643,15.6236046248516
0.013913714172701,15.6283745861836
0.0151915322922749,15.6332656335508
0.0167304599567531,15.6384203102387
0.0187511991617206,15.6443094310028
0.0205856762722705,15.6490783056043
0.0225479988671771,15.6538471802058
0.0241463378359284,15.6576816542604
0.0254643230860837,15.6609892802534
0.0265686054130959,15.6640681870549
0.0274612116216717,15.6670665211328
0.0280832076224704,15.6699129999225
0.0284375822123511,15.6727276148791
0.0285018440996337,15.6756548458592
0.0281921457712915,15.6789634192688
0.0272072110614349,15.6833290634174
0.0263157269088823,15.6860400982696
0.0252572817265468,15.6887511331217
0.0241843936440583,15.6912173918005
0.0231107425138493,15.6935302242461
0.0220364059101489,15.6957581481083
0.0209640464211483,15.6979391581488
0.0198972872469838,15.7000970090079
0.0188398309441368,15.7022483080911
0.0177951870808057,15.7044056392761
0.0167666017958865,15.7065791321857
0.0157570412090951,15.7087773635527
0.0147691982770925,15.7110079091675
0.0138055043961395,15.7132777114523
0.0128681365582061,15.7155933526323
0.0119590316870798,15.7179612466096
0.0110798934354423,15.7203878088079
0.0102322000391784,15.722879601647
0.00941721480894161,15.7254434612542
0.00863599212369805,15.7280866350771
0.00786946727943411,15.7308928623633
0.00711832618656602,15.7338915142577
0.00638631594226118,15.7371057031758
0.00567735681253679,15.740562231962
0.00499563285222705,15.7442921131184
0.00434538762071521,15.7483313989329
0.00373084302398423,15.7527223610339
0.00315607073869439,15.7575154124437
0.00262476871336165,15.762772373741
0.00213995574854463,15.7685727679825
0.00170384716392213,15.7750225071169
0.00132575551248114,15.7820988768042
0.00100986317945629,15.7897471106334
0.000749508462488072,15.798088366452
0.000540497536498187,15.8072839680153
0.000411545463101998,15.8155678334109
0.000301522121548888,15.825513168002
0.000224600224325196,15.835513168002
0.000171008740464897,15.845513168002
0.000134030961037396,15.855513168002
0.000108909838933014,15.865513168002
9.21505175422471e-05,15.875513168002
8.12278945323774e-05,15.885513168002
7.43734977102461e-05,15.895513168002
7.03766443374625e-05,15.905513168002
6.84154209150466e-05,15.915513168002
6.79310149641146e-05,15.925513168002
6.85424938687684e-05,15.935513168002
6.99911482395685e-05,15.945513168002
7.21038547614369e-05,15.955513168002
7.47682558553431e-05,15.965513168002
7.79155658477732e-05,15.975513168002
8.15086243463779e-05,15.985513168002
8.55337181814455e-05,15.995513168002
8.99951440142411e-05,16.005513168002
9.49117639708817e-05,16.015513168002
0.000100315022183779,16.025513168002
0.000106248064240999,16.035513168002
0.000112765737790418,16.045513168002
0.000119935357050368,16.055513168002
0.000127838197046042,16.065513168002
0.000136571756267918,16.075513168002
0.000146252899632134,16.085513168002
0.000157022077342366,16.095513168002
0.000169048921216441,16.105513168002
0.000182539663931188,16.115513168002
0.000197747031610124,16.125513168002
0.000214983562327242,16.135513168002
0.000234639760747209,16.145513168002
0.000257209209277519,16.155513168002
0.000283323884615588,16.165513168002
0.000313804766971671,16.175513168002
0.000349735905491742,16.185513168002
0.000392575405099886,16.195513168002
0.000444326242086262,16.205513168002
0.000504228493502661,16.2149944424431
0.000571975417797744,16.2237579826519
0.000648478895459513,16.2318497183913
0.000734864365826375,16.2393213147421
0.000832425254567639,16.2462210559205
0.000942630017535508,16.2525937796551
0.00106714185999231,16.2584811562577
0.00120784369803165,16.2639219305602
0.00136686929481832,16.2689520842666
0.00154663376221288,16.2736050223366
0.0017498759672851,16.2779117801239
0.00197970236500629,16.2819012349427
0.00223964495768359,16.2856002545772
0.00253372317247653,16.2890338464263
0.00286652747954032,16.2922253438197
0.00324332506838171,16.2951965938621
0.00367018835206739,16.2979681165149
0.00415417284294388,16.3005593090023
0.00470355958875475,16.3029886940941
0.00532819182427775,16.3052741945561
0.00603892327309995,16.3074306003798
0.00682181363691508,16.3094111268611
0.00768542260802429,16.3112479384244
0.00864266070449467,16.3129730078544
0.00971277145952173,16.3146186697476
0.0109275616754097,16.3162230077749
0.0123729721732681,16.3178689823631
0.014291894656378,16.3197494445227
0.0161992982458851,16.3213909196113
0.0182884366966362,16.3230323946998
0.0200645009464493,16.3243660627701
0.0216066346457027,16.3255253003188
0.0229900140355511,16.3266094561423
0.0242287764670797,16.3276679474568
0.0253122998319532,16.3287382805422
0.0262122274761884,16.3298629768534
0.0268733800623893,16.3311111713351
0.0271626611785826,16.3326614299559
0.0268234090581278,16.3343707684092
0.0258990649126812,16.3360801068626
0.0247895716647662,16.3375043436639
0.0235273741142571,16.3388685974854
0.0221124756143444,16.3402607080373
0.020553960624857,16.3417239146155
0.0190006334374628,16.3431645311294
0.0179420449189302,16.3441553432129
0.0169229012974326,16.3451461552965
0.0153497400972328,16.3467745732957
0.0136471817638057,16.3487041027672
0.0114338962741871,16.3515606719266
0.00964272116709727,16.3542783857559
0.00823056063401127,16.3567934752975
0.00703814247700562,16.3592851680455
0.0060077780165253,16.3618287161318
0.00511849626802157,16.3644496593643
0.0043554404925586,16.3671709548841
0.00370765186992061,16.3700163385559
0.00316760428494849,16.3730117991314
0.0027314116174318,16.3761870135991
0.00239976713259477,16.379577041646
0.00218013208357961,16.3832245518236
0.00209151076564225,16.3871829662635
0.00214582345144585,16.3907360030929
0.00231310801731989,16.3939337360343
0.00257647860795576,16.3968222914046
0.00292773901343938,16.3994501619731
0.00336543508211811,16.4018662285817
0.00389458708065566,16.4041201931742
0.00452842024438572,16.4062656006775
0.00529255484653371,16.4083642324957
0.00623660069066184,16.4105002047238
0.0074653387737658,16.4128126710639
0.00917828103440735,16.4155018273152
0.0112642479452569,16.418254673927
0.0128351039492237,16.4200566847291
0.0146054147322965,16.4218586955312
0.0164476462568637,16.423509185987
0.018366302420145,16.4250163730698
0.0204376066476724,16.4264371674914
0.022711595180817,16.4277923885768
0.0252272975276585,16.4290895382386
0.0280352462182295,16.4303382114123
0.0311738598351637,16.4315392777073
0.0346952088555157,16.4326974182891
0.0386484303517251,16.4338141608893
0.0430944745396385,16.4348928036621
0.0480998705856803,16.4359359054631
0.053742393842416,16.436946375534
0.0601138430248974,16.437927393862
0.0673214533525593,16.4388820989564
0.0754945922543344,16.4398139859379
0.0847888407696163,16.4407267000763
0.0953939586771241,16.4416241672629
0.107545392721691,16.4425107704198
0.121538781975735,16.4433914380213
0.137752461065028,16.4442719040334
0.156682302759069,16.4451591200192
0.179000775390672,16.4460620281623
0.205335997627741,16.446982349136
0.235810261343527,16.4479057150877
0.271194097414564,16.4488415082927
0.312564248291873,16.4498052617876
0.361774810772013,16.4508300425041
0.398303017890168,16.4515384520349
0.435867989841316,16.4522468615657
0.469283812703429,16.452882937966
0.498656749875796,16.4534714689373
0.524397410588,16.4540413265226
0.546377786696407,16.454615770215
0.56396092981027,16.4552207740818
0.575664132607717,16.4558984272859
0.577917899538103,16.4566487711376
0.568311490109704,16.4574251198019
0.545483634827217,16.4582487516021
0.508503237533457,16.4591147935256
0.4577442192823,16.4600041674635
0.392694890305565,16.4609235566238
0.344471275870082,16.4615190162453
0.292399311237368,16.4621144758669
0.246728730326569,16.4626144321264
0.207843334295164,16.4630351085281
0.173812970799823,16.4634075455613
0.143412680233922,16.4637503726388
0.115903969003296,16.464075219798
0.0907740603710508,16.4643907734866
0.0675917750910691,16.4647052285345
0.0458718345570836,16.4650292259699
0.0247171649437334,16.4653847282622
0.00747672539811844,16.4657175449938
-0.00189070876314644,16.4659214649032
-0.0103873934972097,16.4661253848127
-0.0170517657555988,16.4663013834759
-0.0231846139029358,16.4664791041992
-0.0293767760188556,16.4666779482845
-0.0353687739511867,16.4668944003195
-0.0409939688455347,16.467126307407
-0.0461591614880673,16.4673728857883
-0.050815418365004,16.4676342659913
-0.0549406277920737,16.4679112368719
-0.0585291878688305,16.4682051223817
-0.0615856908868795,16.4685177406358
-0.0641138735763472,16.4688514198976
-0.0661270684613817,16.4692107419919
-0.0676117540922785,16.4695924646997
-0.0686142367679053,16.4700057209472
-0.0691475289936505,16.4704560438619
-0.0692205598888757,16.4709503892153
-0.068836235502967,16.4714977826596
-0.0679862686286592,16.4721114897616
-0.0666461717528384,16.4728093106321
-0.0647647783073342,16.4736179497347
-0.062234409475716,16.4745835627179
-0.0587791173222903,16.4758106610471
-0.0546463281750393,16.477227619554
-0.0506184132695513,16.4785991919128
-0.0467527315086225,16.4799310173455
-0.0430790118618979,16.4812253600264
-0.0396135234624664,16.4824829739204
-0.0363648736279225,16.4837038557076
-0.0333365020289442,16.4848876435359
-0.0305279600093774,16.4860338277269
-0.0279357193700759,16.4871418603323
-0.0255537891944059,16.4882112081125
-0.0233742459908281,16.4892413720209
-0.0213877137197519,16.4902318855314
-0.0195838018375196,16.4911822986292
-0.0179515008889121,16.4920921512305
-0.0163854104291801,16.4930182700315
-0.0148786029940984,16.4939683079318
-0.0134351864042925,16.4949441139521
-0.0120590048479137,16.4959479093941
-0.0107536802777373,16.4969823109886
-0.00952255829602698,16.4980504303772
-0.00836865160978709,16.4991560057231
-0.00729458003439828,16.5003035802886
-0.00630250624688073,16.5014987507082
-0.00539406562861544,16.502748522212
-0.00457028701049657,16.5040618345968
-0.00383149830928161,16.5054503741384
-0.00317720535629586,16.5069298935291
-0.00260591965512293,16.5085225050154
-0.00213854220010214,16.5101661512109
-0.00176280997169227,16.5118635057447
-0.0014629665988478,16.5136331360279
-0.00122435981860544,16.5154985858721
-0.00103289371448789,16.5174919456715
-0.000874422798918046,16.5196600072078
-0.000733695229670104,16.5220777398486
-0.000591888718449615,16.5248843578547
-0.000417681209790357,16.5284236594129
-0.000219280911874057,16.5322043980216
2.17169599957701e-05,16.5364016542326
0.000315089579600262,16.5411636970683
0.000636959868541085,16.5462178183137
0.000931790225187841,16.5508388061418
0.00120570807421686,16.5551975501836
0.00147330913291338,16.5595460726687
0.00175333385880147,16.5641962055555
0.00204945780311972,16.5692053192079
0.00233697921388186,16.5741221478742
0.00262965186496874,16.5791452985788
0.00287722670489928,16.5833716741817
0.00310960657084739,16.5873046773548
0.00333807929246548,16.5911228198399
0.00356865342437179,16.5949127422119
0.00380562785695438,16.598729315728
0.00405271748209525,16.602613723867
0.00431352270489562,16.6066003228084
0.0045918061500183,16.610720086092
0.00489174283893172,16.6150031758866
0.00521814239438507,16.6194803144233
0.00557675601776535,16.6241840542167
0.00597475857040228,16.6291500368553
0.00640836925095243,16.6342658980589
0.00685977273127785,16.6392752482109
0.00733772846621932,16.6442416119219
0.00784352083288396,16.6491334009022
0.0083825523584876,16.6539558479446
0.00896062955218088,16.6587097732085
0.009584693791635,16.6633983869517
0.0102624918231449,16.6680237232576
0.0110154273752202,16.6726619291872
0.0118605115613608,16.6773289436592
0.0128174564124066,16.6820347786318
0.0139137135652818,16.68680473992
0.0151915315756653,16.6916957871995
0.0167304590708428,16.696850463682
0.0187511978910266,16.7027395837608
0.0205856753122244,16.7075084594284
0.022547998310515,16.7122773350959
0.0241463374170601,16.7161118094619
0.0254643227367003,16.7194194355589
0.0265686051229917,16.7224983424004
0.0274612114102586,16.725496676541
0.0280832074856627,16.7283431553574
0.028437582151911,16.7311577703048
0.0285018441274454,16.7340850012266
0.0281921459297361,16.7373935744564
0.0272072113391674,16.7417592186898
0.0263157272124894,16.7444702536517
0.0252572820296736,16.7471812886137
0.0241843939459553,16.749647547353
0.0231107428159957,16.7519603798304
0.0220364062121915,16.7541883037102
0.0209640467221419,16.7563693137601
0.0198972875458795,16.7585271646231
0.018839831239915,16.7606784637063
0.0177951873725161,16.762835794888
0.0167666020826573,16.7650092877918
0.0157570414901312,16.7672075191507
0.0147691985516761,16.7694380647554
0.013805504663623,16.7717078670282
0.0128681368180122,16.7740235081944
0.0119590319387019,16.7763914021561
0.0110798936784315,16.7788179643369
0.0102322002731528,16.7813097571566
0.00941721503357551,16.7838736167426
0.00863599233872514,16.7865167905419
0.00786946749076529,16.7893230177772
0.00711832639310431,16.7923216696151
0.00638631614294499,16.7955358584696
0.00567735700624988,16.7989923871843
0.00499563303776413,16.8027222682598
0.00434538779689933,16.8067615539826
0.00373084318965433,16.8111525159792
0.00315607089276071,16.8159455672691
0.00262476885487842,16.8212025284272
0.00213995587678226,16.8270029225042
0.00170384727837147,16.83345266144
0.00132575560867728,16.8405290309823
0.00100986325929328,16.8481772646375
0.000749508527785766,16.8565185202432
0.000540497584823471,16.865714121542
0.000411545532625852,16.8739979843718
0.000301522171019545,16.8839433188248
0.000224600258809566,16.8939433188248
0.000171008764337286,16.9039433188248
0.000134030977315473,16.9139433188248
0.000108909849832056,16.9239433188248
9.21505246800278e-05,16.9339433188248
8.12278990536123e-05,16.9439433188248
7.43735004027345e-05,16.9539433188248
7.0376645736328e-05,16.9639433188248
6.84154213836224e-05,16.9739433188248
6.79310147500396e-05,16.9839433188248
6.85424931407554e-05,16.9939433188248
6.99911471114025e-05,17.0039433188248
7.2103853308064e-05,17.0139433188248
7.47682541239669e-05,17.0239433188248
7.79155638655856e-05,17.0339433188248
8.15086221258951e-05,17.0439433188248
8.5533715724106e-05,17.0539433188248
8.99951413127389e-05,17.0639433188248
9.49117610105797e-05,17.0739433188248
0.000100315018943441,17.0839433188248
0.000106248060692987,17.0939433188248
0.000112765733900457,17.1039433188248
0.000119935352776894,17.1139433188248
0.000127838192339154,17.1239433188248
0.000136571751067869,17.1339433188248
0.000146252893867294,17.1439433188248
0.000157022070926502,17.1539433188248
0.000169048914045127,17.1639433188248
0.000182539655877031,17.1739433188248
0.000197747022516371,17.1839433188248
0.000214983551999135,17.1939433188248
0.000234639748940112,17.2039433188248
0.000257209195680376,17.2139433188248
0.000283323868827452,17.2239433188248
0.000313804748467754,17.2339433188248
0.000349735883573185,17.2439433188248
0.000392575378817589,17.2539433188248
0.000444326210122052,17.2639433188248
0.000504228457267132,17.2734245936797
0.000571975376876581,17.2821881342868
0.000648478849266734,17.2902798703942
0.000734864313676825,17.2977514670844
0.000832425195679628,17.3046512085757
0.000942629951022637,17.3110239325986
0.00106714178485088,17.3169113094665
0.00120784361312497,17.322352084013
0.00136686919885842,17.3273822379436
0.0015466336537415,17.3320351762195
0.00174987584464782,17.3363419341957
0.00197970222632392,17.3403313891875
0.00223964480082017,17.3440304089802
0.00253372299499562,17.3474640009738
0.0028665272786551,17.3506554984988
0.00324332484088707,17.3536267486607
0.00367018809425533,17.3563982714218
0.00415417255048794,17.3589894640066
0.0047035592565482,17.3614188491855
0.00532819144620373,17.3637043497245
0.00603892285686987,17.3658607556569
0.00682181317850851,17.367841282228
0.00768542210141507,17.3696780938628
0.00864266014106824,17.3714031633466
0.00971277082591799,17.3730488252747
0.0109275609481364,17.3746531633124
0.0123729712633957,17.376299137829
0.0142918933459018,17.3781795997596
0.0161992972532776,17.3798210752307
0.0182884361322926,17.3814625507019
0.020064500508467,17.3827962188752
0.0216066342579123,17.3839554564555
0.0229900136860643,17.3850396122915
0.0242287761561155,17.3860981036079
0.0253122995646106,17.3871684366852
0.0262122272627066,17.3882931329751
0.0268733799233055,17.3895413274097
0.0271626611753118,17.391091585896
0.0268234092007755,17.3928009244575
0.0258990650970453,17.3945102630189
0.0247895718713493,17.3959344998518
0.0235273743478039,17.3972987536745
0.0221124758741592,17.3986908642174
0.0205539609094253,17.4001540707798
0.0190006337197323,17.4015946872956
0.0179420453368701,17.4025854992475
0.0169229018289247,17.4035763111995
0.0153497406351758,17.4052047291477
0.0136471823614002,17.4071342584863
0.0114338967419087,17.4099908277038
0.00964272153040306,17.4127085415901
0.00823056093966855,17.4152236311415
0.00703814274139427,17.4177153238803
0.00600777824555263,17.420258871951
0.0051184964658071,17.4228798151625
0.00435544066218962,17.4256011106557
0.00370765201367121,17.4284464942951
0.00316760440432085,17.4314419548316
0.00273141171305339,17.4346171692527
0.00239976720391452,17.4380071972439
0.00218013212818728,17.4416547073545
0.00209151077776466,17.4456131217133
0.00214582343339326,17.4491661586338
0.0023131079747082,17.45236389165
0.00257647854377567,17.4552524470832
0.00292773892901498,17.4578803177041
0.00336543497723016,17.4602963843542
0.00389458695346808,17.4625503489768
0.00452842009110216,17.4646957564983
0.00529255465995965,17.4667943883205
0.00623660045535979,17.4689303605289
0.00746533845847613,17.4712428268128
0.00917828064191711,17.4739319830457
0.011264247480325,17.47668482966
0.0128351034863242,17.4784868405271
0.0146054142734436,17.4802888513942
0.0164476457846038,17.4819393418938
0.0183663019154705,17.4834465290034
0.0204376060946501,17.484867323443
0.0227115945696312,17.4862225445442
0.0252272968461794,17.4875196942191
0.0280352454562445,17.4887683674054
0.0311738589804173,17.4899694337119
0.0346952078956279,17.4911275743047
0.0386484292719178,17.492244316915
0.043094473324065,17.4933229596973
0.0480998692151101,17.494366061507
0.0537423922954672,17.4953765315859
0.0601138412759018,17.4963575499211
0.0673214513708136,17.4973122550217
0.0754945900032694,17.4982441420085
0.0847888382047147,17.4991568561512
0.0953939557434754,17.5000543233411
0.107545389350999,17.5009409265001
0.121538778081218,17.5018215941022
0.137752456534294,17.5027020601133
0.156682297442712,17.503589276096
0.179000769081085,17.5044921842333
0.205335990333068,17.5054125052069
0.235810252889131,17.5063358711566
0.271194087569857,17.5072716643565
0.312564236711233,17.5082354178406
0.361774796765284,17.5092601985331
0.398303005108505,17.5099686080987
0.435867978794916,17.5106770176643
0.469283803095273,17.5113130940856
0.498656741439795,17.5119016250666
0.524397403284388,17.5124714826538
0.546377780639549,17.5130459263408
0.563960925296785,17.5136509301929
0.575664130330878,17.5143285833636
0.577917900784736,17.5150789272105
0.568311495190937,17.5158552758633
0.545483644273116,17.5166789076459
0.508503250668496,17.5175449495731
0.457744237055766,17.5184343234953
0.392694911131994,17.5193537126631
0.344471294378766,17.5199491723352
0.292399326376722,17.5205446320073
0.246728742819334,17.5210445882995
0.207843345052403,17.5214652647199
0.173812980324661,17.5218377017641
0.1434126888035,17.5221805288484
0.115903976795053,17.5225053760115
0.0907740675195369,17.5228209297017
0.0675917817240933,17.5231353847486
0.0458718408485103,17.5234593821789
0.0247171713251716,17.5238148844552
0.00747672747841,17.5241477012585
-0.00189070750196909,17.5243516211823
-0.0103873929269603,17.5245555411062
-0.017051765288334,17.5247315397709
-0.0231846134182217,17.5249092604923
-0.0293767755409935,17.5251081045761
-0.0353687734971228,17.5253245566098
-0.0409939684249513,17.5255564636961
-0.0461591611061824,17.5258030420762
-0.050815418024422,17.5260644222781
-0.0549406274937351,17.5263413931573
-0.0585291876126861,17.5266352786657
-0.0615856906722649,17.5269478969182
-0.0641138734033682,17.5272815761783
-0.0661270683512988,17.5276408982752
-0.067611754015137,17.5280226209812
-0.0686142367225129,17.5284358772264
-0.0691475289792595,17.5288862001383
-0.0692205599050659,17.5293805454886
-0.0688362355498111,17.5299279389289
-0.0679862687072061,17.530541646026
-0.0666461718654121,17.5312394668902
-0.0647647784586742,17.5320481059841
-0.0622344096762405,17.5330137189547
-0.0587791176033188,17.5342408172596
-0.0546463284516289,17.5356577757702
-0.0506184135371271,17.5370293481318
-0.0467527317644995,17.538361173567
-0.0430790121046112,17.5396555162504
-0.0396135236911939,17.5409131301467
-0.036364873842255,17.5421340119364
-0.0333365022287594,17.5433177997672
-0.0305279601947899,17.5444639839608
-0.02793571954138,17.5455720165688
-0.0255537893520486,17.5466413643516
-0.0233742461353764,17.5476715282626
-0.0213877138518505,17.5486620417758
-0.019583801957871,17.5496124548763
-0.0179515009982491,17.5505223074803
-0.0163854105349588,17.5514484262798
-0.0148786030959795,17.5523984641785
-0.0134351865020119,17.553374270197
-0.0120590049412199,17.5543780656371
-0.0107536803663963,17.5554124672296
-0.00952255837982047,17.5564805866158
-0.00836865168852254,17.5575861619591
-0.00729458010790978,17.5587337365217
-0.00630250631503564,17.559928906938
-0.00539406569131859,17.561178678438
-0.00457028706769426,17.5624919908183
-0.00383149836096958,17.5638805303545
-0.00317720540252692,17.5653600497386
-0.00260591969602172,17.5669526612166
-0.00213854223428809,17.5685963074092
-0.00176281000030298,17.5702936619389
-0.00146296662287844,17.5720632922165
-0.00122435983899976,17.5739287420534
-0.00103289373216907,17.5759221018429
-0.000874422814839441,17.5780901633654
-0.000733695244912782,17.580507895986
-0.000591888734488882,17.5833145139587
-0.000417681229724014,17.5868538154438
-0.000219280933630228,17.59063455404
2.17169343336363e-05,17.5948318102071
0.000315089551365751,17.5995938530173
0.000636959838297919,17.6046479742343
0.000931790197536447,17.6092689620982
0.00120570804791714,17.6136277061535
0.00147330910637653,17.6179762286263
0.00175333382950169,17.6226263614583
0.00204945777561094,17.627635475135
0.00233697918642305,17.6325523037992
0.00262965184481659,17.6375754546311
0.00287722668679804,17.641801830271
0.00310960655338725,17.6457348334584
0.00333807927503893,17.6495529759485
0.00356865340659485,17.6533428983202
0.00380562783852085,17.6571594718325
0.00405271746272035,17.6610438799646
0.0043135226842955,17.6650304788966
0.00459180612788473,17.6691502421684
0.0048917428149164,17.6734333319488
0.00521814236807989,17.6779104704688
0.00557675598867291,17.6826142102428
0.00597475853788771,17.6875801928589
0.00640836921742012,17.6926960540737
0.00685977269569621,17.6977054042269
0.00733772842868365,17.7026717679437
0.00784352079299559,17.7075635569292
0.0083825523158579,17.7123860039769
0.00896062950631649,17.717139929246
0.00958469374196999,17.7218285429941
0.0102624917690538,17.7264538793048
0.0110154273145921,17.7310920852314
0.0118605114930731,17.7357590997012
0.0128174563346728,17.74046493467
0.0139137134755974,17.7452348959518
0.0151915314698626,17.7501259432184
0.0167304589400506,17.7552806196705
0.0187511977034346,17.7611697396482
0.0205856751704907,17.7659386154731
0.022547998228329,17.770707491298
0.0241463373552151,17.7745419657099
0.0254643226851126,17.7778495918222
0.0265686050801557,17.7809284986697
0.02746121137904,17.7839268328195
0.0280832074654586,17.7867733116399
0.0284375821429818,17.7895879265859
0.0285018441315459,17.7925151574991
0.0281921459531235,17.7958237307024
0.0272072113801663,17.8001893749483
0.0263157272573081,17.8029004099264
0.0252572820744215,17.8056114449046
0.0241843939905217,17.8080777036529
0.0231107428605989,17.8103905361349
0.0220364062567786,17.8126184600173
0.0209640467665741,17.8147994700687
0.0198972875900012,17.8169573209323
0.0188398312835766,17.8191086200154
0.017795187415577,17.8212659511967
0.0167666021249894,17.8234394440996
0.0157570415316163,17.8256376754573
0.0147691985922081,17.8278682210605
0.0138055047031056,17.8301380233315
0.012868136856361,17.8324536644957
0.0119590319758418,17.8348215584551
0.011079893714296,17.8372481206333
0.010232200307686,17.8397399134502
0.00941721506672922,17.842303773033
0.00863599237045978,17.8449469468289
0.00786946752195396,17.8477531740567
0.00711832642358609,17.8507518258862
0.0063863161725628,17.8539660147313
0.00567735703483889,17.8574225434354
0.00499563306514709,17.861152424499
0.00434538782290238,17.8651917102083
0.00373084321410591,17.8695826721895
0.00315607091549947,17.8743757234616
0.0026247688757649,17.8796326845992
0.00213995589570866,17.8854330786519
0.00170384729526254,17.8918828175584
0.00132575562287371,17.8989591870793
0.00100986327107475,17.9066074207089
0.000749508537420804,17.9149486762831
0.00054049759196402,17.9241442775428
0.000411545542820864,17.9324281399997
0.000301522178280805,17.9423734744321
0.000224600263874251,17.9523734744321
0.000171008767846681,17.9623734744321
0.000134030979712074,17.9723734744321
0.000108909851440581,17.9823734744321
9.21505257375146e-05,17.9923734744321
8.12278997277549e-05,18.0023734744321
7.43735008089442e-05,18.0123734744321
7.03766459530151e-05,18.0223734744322
6.84154214640409e-05,18.0323734744322
6.79310147305001e-05,18.0423734744322
6.85424930460091e-05,18.0523734744322
6.9991146958156e-05,18.0623734744322
7.21038531073383e-05,18.0723734744322
7.47682538827228e-05,18.0823734744322
7.79155635878576e-05,18.0923734744322
8.1508621813574e-05,18.1023734744322
8.55337153774662e-05,18.1123734744322
8.99951409307815e-05,18.1223734744322
9.49117605912417e-05,18.1323734744322
0.000100315018483703,18.1423734744322
0.000106248060188906,18.1523734744322
0.00011276573334713,18.1623734744322
0.000119935352168374,18.1723734744322
0.000127838191668291,18.1823734744322
0.000136571750326102,18.1923734744322
0.000146252893044353,18.2023734744322
0.000157022070010023,18.2123734744322
0.000169048913020132,18.2223734744322
0.00018253965472525,18.2323734744322
0.00019774702121532,18.2423734744322
0.000214983550520876,18.2523734744322
0.000234639747249552,18.2623734744322
0.000257209193732894,18.2723734744322
0.000283323866565534,18.2823734744322
0.00031380474581612,18.2923734744322
0.00034973588043159,18.3023734744322
0.000392575375049898,18.3123734744322
0.000444326205539201,18.3223734744322
0.000504228452071052,18.3318547493464
0.000571975371007736,18.3406182900105
0.000648478842640988,18.3487100261706
0.000734864306195823,18.3561816229095
0.000832425187231139,18.3630813644456
0.000942629941479403,18.3694540885098
0.00106714177406884,18.3753414654157
0.00120784360094096,18.3807822399972
0.00136686918508748,18.38581239396
0.0015466336381744,18.3904653322654
0.00174987582704717,18.3947720902686
0.00197970220641986,18.3987615452853
0.00223964477830632,18.4024605651006
0.0025337229695221,18.4058941571149
0.00286652724982204,18.4090856546588
0.00324332480823464,18.4120569048378
0.00367018805725131,18.4148284276144
0.00415417250851185,18.4174196202132
0.00470355920886683,18.4198490054045
0.00532819139193907,18.4221345059546
0.00603892279712869,18.4242909119025
0.00682181311271279,18.4262714384866
0.00768542202869953,18.4281082501316
0.00864266006019585,18.4298333196231
0.00971277073497112,18.4314789815562
0.0109275608437406,18.4330833195953
0.012372971132783,18.4347292941016
0.0142918931577627,18.4366097559993
0.0161992971107077,18.4382512315253
0.0182884360511321,18.4398927070514
0.0200645004454934,18.4412263752395
0.0216066342021844,18.4423856128243
0.022990013635869,18.443469768662
0.0242287761114824,18.4445282599787
0.025312299526276,18.4455985930549
0.0262122272321449,18.4467232893417
0.0268733799034748,18.4479714837695
0.0271626611750604,18.4495217422364
0.0268234092216767,18.4512310808131
0.0258990651242727,18.4529404193898
0.02478957190191,18.4543646562272
0.0235273743823285,18.45572891005
0.0221124759125341,18.4571210205916
0.0205539609514222,18.4585842271517
0.0190006337610274,18.4600248436681
0.0179420453980569,18.4610156556007
0.0169229019067635,18.4620064675334
0.0153497407154324,18.4636348854725
0.0136471824532641,18.465564414788
0.0114338968140318,18.4684209840141
0.00964272158641374,18.4711386979092
0.00823056098689678,18.4736537874618
0.00703814278221375,18.4761454801992
0.0060077782808706,18.4786890282675
0.00511849649625871,18.4813099714757
0.00435544068824957,18.4840312669648
0.00370765203568513,18.4868766505991
0.00316760442251185,18.4898721111296
0.00273141172750355,18.4930473255435
0.00239976721451581,18.496437353526
0.00218013213453024,18.5000848636263
0.00209151077889486,18.5040432779724
0.00214582342965929,18.5075963149082
0.00231310796699704,18.5107940479369
0.00257647853255957,18.5136826033807
0.00292773891448676,18.5163104740104
0.00336543495934036,18.5187265406675
0.00389458693189506,18.5209805052951
0.00452842006518699,18.5231259128197
0.00529255462851352,18.5252245446425
0.00623660041572074,18.5273605168475
0.00746533840525483,18.5296729831217
0.00917828057569781,18.5323621393513
0.0112642474018936,18.5351149859657
0.0128351034084341,18.5369169968439
0.0146054141964897,18.538719007722
0.0164476457055597,18.5403694982288
0.0183663018312342,18.541876685343
0.0204376060024463,18.5432974797856
0.0227115944679022,18.5446527008894
0.0252272967328687,18.5459498505666
0.0280352453296738,18.5471985237549
0.0311738588385341,18.5483995900633
0.0346952077363819,18.549557730658
0.0386484290928613,18.5506744732699
0.0430944731225728,18.5517531160538
0.048099868988002,18.552796217865
0.0537423920392019,18.5538066879451
0.0601138409862494,18.5547877062815
0.0673214510426966,18.5557424113832
0.0754945896306512,18.5566742983709
0.0847888377802416,18.5575870125144
0.0953939552581203,18.5584844797048
0.107545388793472,18.5593710828641
0.12153877743724,18.5602517504664
0.137752455785369,18.5611322164773
0.156682296564293,18.5620194324596
0.179000768039017,18.5629223405959
0.205335989128465,18.5638426615695
0.235810251493256,18.5647660275189
0.271194085944803,18.5657018207179
0.312564234800171,18.5666655742004
0.361774794454828,18.5676903548889
0.398303002998635,18.5683987644602
0.435867976969391,18.5691071740316
0.469283801505324,18.5697432504564
0.498656740041794,18.570331781439
0.524397402071746,18.5709016390265
0.546377779631084,18.5714760827127
0.563960924541151,18.5720810865624
0.575664129942015,18.5727587397276
0.577917900974401,18.5735090835738
0.568311496010445,18.5742854322246
0.545483645809742,18.5751090640043
0.508503252809254,18.5759751059322
0.457744239956265,18.5768644798519
0.39269491453339,18.5777838690209
0.344471297402259,18.5783793287012
0.292399328850263,18.5789747883816
0.246728744860778,18.5794747446793
0.207843346810397,18.5798954211026
0.173812981881533,18.5802678581487
0.143412690204565,18.5806106852341
0.115903978069163,18.5809355323979
0.0907740686886851,18.5812510860883
0.0675917828091268,18.581565541135
0.0458718418778208,18.5818895385645
0.0247171723694034,18.5822450408382
0.00747672781848488,18.5825778576532
-0.0018907072958874,18.5827817775794
-0.0103873928339053,18.5829856975056
-0.0170517652121001,18.5831616961705
-0.0231846133391232,18.5833394168916
-0.029376775462997,18.5835382609752
-0.0353687734229934,18.5837547130087
-0.0409939683562628,18.5839866200948
-0.0461591610437852,18.5842331984748
-0.0508154179686938,18.5844945786764
-0.0549406274448538,18.5847715495555
-0.0585291875706365,18.5850654350636
-0.0615856906369656,18.5853780533159
-0.0641138733748031,18.5857117325757
-0.0661270683327513,18.5860710546729
-0.0676117540019783,18.5864527773786
-0.0686142367145551,18.5868660336234
-0.0691475289763789,18.5873163565349
-0.069220559907193,18.5878107018846
-0.0688362355569569,18.5883580953244
-0.067986268719539,18.5889718024206
-0.066646171883313,18.5896696232838
-0.0647647784829208,18.5904782623764
-0.0622344097085548,18.5914438753448
-0.0587791176488593,18.5926709736457
-0.0546463284964124,18.5940879321569
-0.0506184135804048,18.5954595045189
-0.0467527318058433,18.5967913299545
-0.0430790121437848,18.5980856726383
-0.0396135237280668,18.5993432865351
-0.036364873876757,18.6005641683252
-0.0333365022608756,18.6017479561564
-0.0305279602245374,18.6028941403504
-0.0279357195688158,18.6040021729588
-0.0255537893772477,18.605071520742
-0.0233742461584253,18.6061016846535
-0.0213877138728628,18.6070921981671
-0.0195838019769608,18.6080426112681
-0.0179515010155397,18.6089524638725
-0.0163854105516627,18.6098785826717
-0.0148786031120393,18.6108286205702
-0.013435186517385,18.6118044265884
-0.012059004955869,18.6128082220282
-0.010753680380281,18.6138426236203
-0.00952255839290634,18.6149107430062
-0.00836865170077863,18.616016318349
-0.00729458011931183,18.6171638929112
-0.00630250632556135,18.6183590633269
-0.00539406570095264,18.6196088348263
-0.00457028707642818,18.6209221472058
-0.00383149836880347,18.6223106867412
-0.00317720540947141,18.6237902061242
-0.0026059197020982,18.6253828176009
-0.00213854223927177,18.627026463793
-0.00176281000438048,18.628723818322
-0.00146296662621255,18.6304934485987
-0.00122435984174475,18.6323588984344
-0.00103289373447622,18.6343522582223
-0.000874422816864768,18.6365203197426
-0.000733695246833436,18.6389380523599
-0.000591888736546372,18.6417446703271
-0.000417681232424728,18.6452839718003
-0.000219280936638293,18.6490647103945
2.17169306782543e-05,18.6532619665545
0.000315089547310684,18.658024009361
0.000636959833939542,18.663078130574
0.000931790193540254,18.6676991184429
0.00120570804411437,18.6720578625002
0.0014733091025448,18.6764063849712
0.0017533338252846,18.6810565177955
0.00204945777165124,18.6860656314756
0.00233697918247345,18.6909824601396
0.00262965184190091,18.6960056109894
0.00287722668417291,18.7002319866346
0.00310960655085284,18.7041649898239
0.00333807927250908,18.7079831323147
0.003568653404015,18.7117730546864
0.00380562783584743,18.7155896281981
0.00405271745991281,18.7194740363293
0.00431352268131319,18.72346063526
0.00459180612468377,18.7275803985301
0.0048917428114471,18.7318634883085
0.00521814236428388,18.7363406268261
0.00557675598447922,18.7410443665974
0.00597475853320571,18.7460103492104
0.00640836921258908,18.7511262104267
0.00685977269056939,18.7561355605802
0.00733772842327409,18.7611019242978
0.0078435207872451,18.765993713284
0.0083825523097109,18.7708161603325
0.00896062949970303,18.7755700856023
0.00958469373480947,18.7802586993511
0.0102624917612555,18.7848840356625
0.0110154273058508,18.7895222415887
0.0118605114832272,18.7941892560581
0.0128174563234648,18.7988950910265
0.0139137134626664,18.8036650523073
0.015191531454608,18.808556099572
0.0167304589211923,18.8137107760198
0.0187511976763883,18.8195998959828
0.020585675150055,18.8243687718304
0.0225479982164783,18.829137647678
0.0241463373462976,18.8329721220966
0.0254643226776747,18.8362797482111
0.026568605073979,18.8393586550595
0.0274612113745387,18.8423569892106
0.0280832074625451,18.8452034680315
0.0284375821416939,18.8480180829773
0.0285018441321365,18.8509453138893
0.0281921459564946,18.8542538870887
0.0272072113860767,18.8586195313365
0.0263157272637697,18.861330566317
0.025257282080873,18.8640416012975
0.0241843939969471,18.866507860047
0.0231107428670303,18.8688206925297
0.0220364062632078,18.8710486164125
0.0209640467729817,18.8732296264641
0.0198972875963641,18.8753874773277
0.0188398312898738,18.8775387764109
0.0177951874217878,18.8796961075921
0.0167666021310946,18.8818696004949
0.0157570415375986,18.8840678318524
0.014769198598053,18.8862983774554
0.0138055047087998,18.8885681797262
0.0128681368618914,18.8908838208901
0.0119590319811981,18.8932517148491
0.0110798937194685,18.895678277027
0.0102322003126658,18.8981700698434
0.00941721507150963,18.9007339294258
0.00863599237503511,18.9033771032212
0.00786946752645068,18.9061833304479
0.00711832642798084,18.9091819822762
0.0063863161768329,18.91239617112
0.00567735703896033,18.9158526998226
0.00499563306909465,18.9195825808844
0.00434538782665099,18.9236218665918
0.00373084321763087,18.9280128285707
0.00315607091877766,18.9328058798403
0.00262476887877599,18.9380628409749
0.00213995589843718,18.9438632350241
0.00170384729769767,18.9503129739264
0.00132575562492032,18.9573893434443
0.00100986327277309,18.9650375770701
0.000749508538809586,18.9733788326397
0.000540497592994344,18.9825744338939
0.000411545544283334,18.9908582962976
0.000301522179323213,19.0008036307271
0.000224600264601665,19.0108036307271
0.000171008768351076,19.0208036307271
0.000134030980056928,19.0308036307271
0.000108909851672461,19.0408036307271
9.2150525890401e-05,19.0508036307271
8.12278998256846e-05,19.0608036307271
7.4373500868461e-05,19.0708036307271
7.0376645985361e-05,19.0808036307271
6.84154214768527e-05,19.0908036307271
6.79310147289859e-05,19.1008036307271
6.85424930337204e-05,19.1108036307271
6.99911469374916e-05,19.1208036307271
7.2103853079882e-05,19.1308036307271
7.47682538494775e-05,19.1408036307271
7.79155635494069e-05,19.1508036307271
8.15086217701948e-05,19.1608036307271
8.55337153292044e-05,19.1708036307271
8.99951408775017e-05,19.1808036307271
9.49117605326563e-05,19.1908036307271
0.000100315018419388,19.2008036307271
0.000106248060118308,19.2108036307271
0.00011276573326956,19.2208036307271
0.000119935352082991,19.2308036307271
0.000127838191574089,19.2408036307271
0.000136571750221873,19.2508036307271
0.000146252892928647,19.2608036307271
0.000157022069881097,19.2708036307271
0.000169048912875872,19.2808036307271
0.000182539654563075,19.2908036307271
0.000197747021032059,19.3008036307271
0.000214983550312584,19.3108036307271
0.000234639747011277,19.3208036307271
0.000257209193458337,19.3308036307271
0.000283323866246576,19.3408036307271
0.000313804745442135,19.3508036307271
0.00034973587998843,19.3608036307271
0.000392575374518348,19.3708036307271
0.000444326204892578,19.3808036307271
0.000504228451337803,19.3902849056496
0.000571975370179445,19.3990484463218
0.000648478841705753,19.4071401824894
0.000734864305139764,19.4146117792351
0.000832425186038408,19.4215115207776
0.000942629940132017,19.4278842448476
0.00106714177254641,19.4337716217588
0.00120784359922048,19.4392123963453
0.00136686918314289,19.4442425503126
0.00154663363597606,19.4488954886222
0.00174987582456153,19.4532022466292
0.00197970220360895,19.4571917016493
0.00223964477512667,19.4608907214679
0.00253372296592446,19.4643243134851
0.00286652724574989,19.4675158110316
0.00324332480362308,19.4704870612131
0.00367018805202502,19.4732585839918
0.00415417250258305,19.4758497765926
0.00470355920213217,19.4782791617857
0.00532819138427497,19.4805646623373
0.00603892278869081,19.4827210682875
0.00682181310342051,19.4847015948733
0.00768542201843026,19.4865384065198
0.00864266004877519,19.4882634760124
0.00971277072212701,19.4899091379462
0.0109275608289972,19.4915134759855
0.0123729711143374,19.4931594504904
0.0142918931311899,19.4950399123834
0.0161992970905648,19.4966813879172
0.0182884360396572,19.4983228634509
0.0200645004365928,19.4996565316411
0.0216066341943116,19.5008157692266
0.0229900136287833,19.5018999250646
0.0242287761051879,19.5029584163813
0.0253122995208757,19.5040287494573
0.0262122272278472,19.5051534457437
0.0268733799006971,19.5064016401705
0.0271626611750548,19.5079518986347
0.026823409224679,19.5096612372135
0.0258990651282051,19.5113705757923
0.0247895719063288,19.5127948126303
0.0235273743873159,19.5141590664532
0.0221124759180731,19.5155511769946
0.0205539609574796,19.5170143835544
0.0190006337669433,19.5184550000709
0.0179420454068262,19.5194458120008
0.0169229019179227,19.5204366239306
0.0153497407271044,19.5220650418683
0.013647182466925,19.52399457118
0.0114338968247821,19.5268511404074
0.00964272159476168,19.5295688543038
0.00823056099394657,19.5320839438565
0.00703814278830369,19.5345756365937
0.00600777828613565,19.5371191846616
0.00511849650079389,19.5397401278693
0.00435544069212442,19.5424614233578
0.00370765203895132,19.5453068069914
0.00316760442520129,19.548302267521
0.00273141172962715,19.5514774819338
0.00239976721605464,19.5548675099151
0.00218013213541934,19.5585150200138
0.00209151077898495,19.562473434358
0.00214582342900139,19.5660264712962
0.00231310796572807,19.5692242043269
0.00257647853074909,19.5721127597723
0.00292773891216113,19.5747406304034
0.00336543495649897,19.5771566970617
0.00389458692847293,19.5794106616901
0.00452842006107046,19.5815560692151
0.00529255462350528,19.583654701038
0.00623660040940102,19.5857906732424
0.00746533839671963,19.5881031395149
0.00917828056508316,19.5907922957439
0.0112642473893236,19.5935451423584
0.0128351033959694,19.5953471532383
0.0146054141841997,19.5971491641182
0.0164476456929599,19.5987996546262
0.0183663018178304,19.6003068417411
0.020437605987787,19.6017276361842
0.0227115944517446,19.6030828572884
0.0252272967148818,19.6043800069659
0.0280352453095918,19.6056286801545
0.0311738588160348,19.6068297464633
0.0346952077111433,19.6079878870582
0.0386484290644915,19.6091046296704
0.0430944730906556,19.6101832724546
0.0480998689520252,19.611226374266
0.0537423919986179,19.6122368443463
0.0601138409403791,19.6132178626829
0.0673214509907442,19.6141725677847
0.0754945895716704,19.6151044547726
0.0847888377130569,19.6160171689162
0.0953939551812886,19.6169146361067
0.107545388705252,19.6178012392661
0.121538777335384,19.6186819068684
0.137752455666966,19.6195623728792
0.156682296425482,19.6204495888615
0.179000767874427,19.6213524969976
0.205335988938247,19.6222728179713
0.235810251272834,19.6231961839206
0.271194085688196,19.6241319771195
0.312564234498422,19.6250957306017
0.361774794090072,19.6261205112896
0.398303002665364,19.6268289208618
0.435867976680756,19.6275373304341
0.469283801253719,19.6281734068595
0.498656739820344,19.6287619378423
0.524397401879471,19.6293317954299
0.546377779470848,19.629906239116
0.563960924420712,19.6305112429652
0.57566412987929,19.6311888961296
0.577917901002746,19.6319392399756
0.568311496137964,19.6327155886262
0.545483646050194,19.6335392204054
0.508503253144591,19.6344052623334
0.457744240411046,19.6352946362527
0.392694915067032,19.6362140254219
0.344471297876745,19.6368094851036
0.292399329238607,19.6374049447852
0.246728745181328,19.6379049010837
0.207843347086573,19.6383255775076
0.173812982126161,19.6386980145539
0.143412690424735,19.6390408416395
0.115903978269484,19.6393656888034
0.0907740688725972,19.6396812424938
0.0675917829798485,19.6399956975405
0.0458718420398855,19.6403196949699
0.0247171725339848,19.6406751972432
0.00747672787207045,19.64100801406
-0.00189070726342467,19.6412119339866
-0.0103873928193144,19.6414158539131
-0.0170517652001516,19.6415918525781
-0.0231846133266594,19.6417695732992
-0.0293767754506732,19.6419684173827
-0.0353687734112825,19.6421848694162
-0.040993968345409,19.6424167765023
-0.0461591610339338,19.6426633548822
-0.0508154179598937,19.6429247350838
-0.0549406274371467,19.6432017059628
-0.0585291875640229,19.643495591471
-0.0615856906313934,19.6438082097232
-0.0641138733702937,19.6441418889829
-0.0661270683297931,19.6445012110803
-0.0676117539998615,19.6448829337858
-0.068614236713254,19.6452961900306
-0.0691475289758749,19.6457465129421
-0.0692205599074731,19.6462408582917
-0.0688362355580224,19.6467882517313
-0.0679862687214163,19.6474019588274
-0.0666461718860645,19.6480997796904
-0.064764778486673,19.6489084187828
-0.0622344097135685,19.6498740317509
-0.0587791176559473,19.6511011300512
-0.0546463285033786,19.6525180885625
-0.0506184135871328,19.6538896609246
-0.0467527318122649,19.6552214863603
-0.0430790121498597,19.6565158290441
-0.0396135237337797,19.657773442941
-0.0363648738820948,19.6589943247311
-0.0333365022658388,19.6601781125624
-0.0305279602291347,19.6613242967564
-0.0279357195730481,19.6624323293649
-0.0255537893811273,19.6635016771482
-0.0233742461619731,19.6645318410597
-0.0213877138760883,19.6655223545734
-0.0195838019798833,19.6664727676744
-0.017951501018179,19.6673826202789
-0.0163854105542083,19.6683087390782
-0.0148786031144846,19.6692587769765
-0.0134351865197238,19.6702345829947
-0.0120590049580917,19.6712383784344
-0.0107536803823839,19.6722727800265
-0.00952255839488488,19.6733408994123
-0.00836865170262861,19.6744464747551
-0.00729458012102683,19.6755940493172
-0.00630250632714114,19.6767892197328
-0.00539406570239327,19.6780389912321
-0.00457028707772985,19.6793523036116
-0.00383149836996554,19.6807408431467
-0.00317720541049523,19.6822203625296
-0.00260591970298657,19.6838129740061
-0.00213854223999008,19.6854566201982
-0.00176281000495755,19.687153974727
-0.00146296662667437,19.6889236050036
-0.00122435984211517,19.6907890548391
-0.00103289373477895,19.6927824146267
-0.000874422817124071,19.6949504761467
-0.000733695247076994,19.6973682087635
-0.000591888736811905,19.7001748267298
-0.000417681232791474,19.7037141282012
-0.000219280937053971,19.7074948667951
2.17169301607403e-05,19.711692122954
0.000315089546732743,19.7164541657599
0.000636959833316172,19.7215082869724
0.000931790192967494,19.726129274842
0.00120570804356911,19.7304880188995
0.00147330910199599,19.7348365413703
0.00175333382468195,19.7394866741935
0.00204945777108533,19.7444957878741
0.00233697918190941,19.749412616538
0.00262965184148284,19.7544357673904
0.00287722668379587,19.7586621430363
0.00310960655048873,19.7625951462259
0.00333807927214565,19.7664132887168
0.00356865340364447,19.7702032110885
0.0038056278354637,19.7740197846002
0.00405271745951015,19.7779041927312
0.00431352268088583,19.7818907916617
0.00459180612422547,19.7860105549315
0.00489174281095079,19.7902936447097
0.00521814236374129,19.794770783227
0.00557675598388011,19.7994745229978
0.00597475853253738,19.8044405056104
0.0064083692119004,19.809556366827
0.00685977268983921,19.8145657169805
0.00733772842250243,19.8195320806982
0.00784352078642585,19.8244238696845
0.00838255230883542,19.8292463167331
0.00896062949876005,19.834000242003
0.00958469373378657,19.8386888557519
0.010262491760141,19.8433141920634
0.0110154273046025,19.8479523979895
0.0118605114818219,19.8526194124589
0.0128174563218648,19.8573252474272
0.0139137134608207,19.8620952087079
0.0151915314524308,19.8669862559723
0.0167304589185013,19.8721409324195
0.0187511976725292,19.8780300523805
0.0205856751471393,19.8827989282313
0.0225479982147873,19.8875678040821
0.0241463373450247,19.8914022785016
0.0254643226766129,19.8947099046165
0.0265686050730972,19.8977888114649
0.0274612113738958,19.9007871456162
0.0280832074621293,19.9036336244373
0.0284375821415102,19.9064482393831
0.0285018441322207,19.9093754702949
0.0281921459569753,19.9126840434938
0.0272072113869196,19.9170496877417
0.0263157272646908,19.9197607227226
0.0252572820817924,19.9224717577034
0.0241843939978627,19.9249380164531
0.0231107428679464,19.927250848936
0.0220364062641239,19.9294787728188
0.0209640467738944,19.9316597828704
0.0198972875972707,19.9338176337341
0.0188398312907701,19.9359689328172
0.017795187422671,19.9381262639984
0.0167666021319636,19.9402997569012
0.0157570415384509,19.9424979882587
0.0147691985988854,19.9447285338616
0.0138055047096102,19.9469983361324
0.0128681368626785,19.9493139772962
0.0119590319819596,19.9516818712552
0.0110798937202041,19.954108433433
0.010232200313374,19.9566002262494
0.00941721507218999,19.9591640858317
0.00863599237568668,19.961807259627
0.00786946752709151,19.9646134868536
0.00711832642860719,19.9676121386817
0.00638631617744125,19.9708263275253
0.00567735703954757,19.9742828562277
0.00499563306965703,19.9780127372893
0.00434538782718513,19.9820520229964
0.003730843218133,19.986442984975
0.00315607091924466,19.9912360362442
0.00270673517520038,19.9956180181221
0.00232021992958331,20
