ecg,time
0.000132579780516656,15.0055251519728
0.000140956766630184,15.0155251519728
0.000150329414444907,15.0255251519728
0.000160831277214624,15.0355251519728
0.000172629517069442,15.0455251519728
0.000185931794171629,15.0555251519728
0.000200996137289577,15.0655251519728
0.000218144753181689,15.0755251519728
0.000237783272383269,15.0855251519728
0.000260427748096523,15.0955251519728
0.000286743017034325,15.1055251519728
0.000317598136685122,15.1155251519728
0.000354148151244421,15.1255251519728
0.000397957572714322,15.1355251519728
0.000451191968482688,15.1455251519728
0.000512597883309431,15.1549222257866
0.000582268811426173,15.1635975310585
0.00066122751197323,15.1716011730648
0.000750708520288565,15.1789858476492
0.000852126670029345,15.1858006133201
0.000967088053037789,15.1920909609665
0.00109741228189519,15.1978990985221
0.00124516022285167,15.2032642007464
0.00141266737614917,15.2082226167721
0.00160257956477147,15.2128080812557
0.00181789876676772,15.2170519251228
0.00206203393930156,15.2209832763487
0.0023388653032934,15.2246292348989
0.00265282090810929,15.2280150533146
0.00300897466953849,15.2311643317669
0.00341317370068959,15.2340992160477
0.0038722031336488,15.2368406065533
0.00439401392937728,15.2394084090104
0.00498804454916548,15.2418218415863
0.00566569237155,15.2440998357765
0.00642016908900007,15.2462083728318
0.0072540861693527,15.2481610817185
0.00817997127327677,15.249992434593
0.00921686144091215,15.2517377673514
0.0103964622143386,15.2534387392162
0.0117849879038648,15.2551630306719
0.013639647771895,15.2571441410492
0.0153760726533467,15.2587778261354
0.0172696439436944,15.2604115112216
0.0189604148071811,15.2618058809192
0.0204316703529883,15.2630187271988
0.0217481595014195,15.264148859711
0.022924153225129,15.2652484381474
0.0239498997186177,15.2663561097234
0.0247986476751025,15.2675142655034
0.0254188716730867,15.2687893229209
0.0256912870813237,15.270342653092
0.0253518955075877,15.2721638698974
0.0244034123671605,15.2739850867027
0.0232956286149636,15.2754593798269
0.0220536509897011,15.2768549598528
0.0206714853762284,15.2782711624208
0.0191573060544659,15.2797525370183
0.0175184343420107,15.281336762826
0.0157833221673745,15.2830706796834
0.0144644003085813,15.2844865221477
0.0126489023650179,15.2866172049579
0.0110412181369627,15.2887300882794
0.00958398961153262,15.2908887238307
0.00818341301639962,15.2932555932845
0.00691265630051141,15.2957403211227
0.0061385806133534,15.2974644503914
0.00544377888813937,15.2991885796601
0.00487366270477568,15.3007592325071
0.00437944412925781,15.302261593194
0.00392341053291169,15.3037902895347
0.00347739736526907,15.3054484285407
0.00300355931219145,15.3074326462606
0.00239503122189486,15.3104336962969
0.00186850584967357,15.3136275987057
0.00149070321432389,15.3164416308768
0.00116798751411582,15.3193799781277
0.000856814815937872,15.3229676756791
0.000587672102696799,15.327171157844
0.000388924576318193,15.3318225069671
0.000275446324985923,15.3368932406805
0.000263322945353036,15.3413746658725
0.000331315176571927,15.345419998048
0.000470340529683637,15.349057796758
0.000676455620135274,15.3523366632583
0.000949102966230703,15.3553051702583
0.00129056859854411,15.3580131770942
0.00170610136357051,15.3605102997834
0.00220566320380698,15.3628502794859
0.00280657876658887,15.3650921041679
0.00353916131474109,15.367306445644
0.00445959068786274,15.3695906623674
0.00569738089080679,15.3721318681875
0.00734187963400199,15.374943701456
0.00884479299522663,15.3771472784378
0.0105648151474841,15.3793508554195
0.0122293176454868,15.3812121660763
0.0139208666001952,15.3828675243041
0.0157157721361179,15.3844005499972
0.0176667312775108,15.3858482142324
0.0198209922867232,15.3872306962303
0.0222166648898935,15.3885555552411
0.0248987675547382,15.3898305771883
0.027907506814576,15.3910581719676
0.0312856529796396,15.3922403781645
0.0350861835246593,15.393381098036
0.0393622208014808,15.3944821882101
0.0441760940150257,15.3955462691474
0.0496041401785237,15.396576950778
0.0557327463735683,15.3975773080276
0.062663270573963,15.3985504780768
0.070517899412629,15.3994999575427
0.0794461485167246,15.400429668038
0.0896297592042038,15.4013436946954
0.10129457165301,15.4022465847631
0.114725469176997,15.4031435004589
0.130290598955354,15.404040588972
0.148478105470239,15.4049454470406
0.169958102563802,15.4058679623094
0.195248134457253,15.4068064730322
0.224529573812887,15.4077491729052
0.258557721084329,15.4087059378399
0.298376194797117,15.4096923939594
0.345725289782276,15.4107401652756
0.382254713894638,15.4114903287832
0.420014966760965,15.4122404922908
0.453542164474451,15.4129091195954
0.482927850993212,15.4135222902323
0.508659624955905,15.4141110647706
0.53067503569192,15.4146991250082
0.548428287568846,15.4153109210394
0.560659012437377,15.4159821976214
0.564347948770678,15.4167447033061
0.556509395927759,15.4175271159327
0.535921748631016,15.4183499779419
0.500708537653561,15.4192307165159
0.450313047650199,15.4201516113567
0.386410920954454,15.4210811177631
0.33958217680002,15.4216735982416
0.288942225448428,15.4222660787201
0.24431275374286,15.4227653548817
0.206139348603405,15.4231869600031
0.172640134550531,15.4235609276714
0.14266545595599,15.4239054773867
0.115513864476489,15.4242320862412
0.0906943504705263,15.4245493654728
0.0677921275944965,15.4248654373149
0.0463406392109574,15.4251907859276
0.0254872833015244,15.4255467305316
0.00802582113513388,15.4258893359742
-0.00127553486517533,15.4260954860425
-0.00970907341642678,15.4263016361107
-0.016332357729295,15.4264798757915
-0.022414546916595,15.4266595786428
-0.0285480777476891,15.4268605034265
-0.0344771289344583,15.4270791248913
-0.0400375782900572,15.4273132853984
-0.0451378610653893,15.4275622065651
-0.0497300408024562,15.4278260293708
-0.0537925592936216,15.4281055558792
-0.0573200647545002,15.4284021253711
-0.0603143128660929,15.4287175733074
-0.0628972524482097,15.4290738489969
-0.0647938898261716,15.4294330459543
-0.0661940772261785,15.4298196093167
-0.0671137549529148,15.4302382528223
-0.0675650463653681,15.4306945528789
-0.0675560936597297,15.4311955890301
-0.0670888386422877,15.431750554394
-0.0661533406514308,15.4323731287599
-0.0647233809914127,15.433081410866
-0.0627450211286808,15.4339028433706
-0.0601048537873365,15.4348852773748
-0.0565075176710196,15.4361393424006
-0.052340848470517,15.4375490925063
-0.0482961876818505,15.4389139009096
-0.0444267133046406,15.4402387956461
-0.0407592194387753,15.4415259693662
-0.0373079454913831,15.4427761584403
-0.0340798654261123,15.4439893679891
-0.0310770092699659,15.4451652568921
-0.0282976869426831,15.446303340938
-0.0257372808183088,15.4474030980098
-0.0233888577400271,15.4484640182707
-0.0212436959288687,15.4494856216579
-0.0192917590510203,15.4504674546533
-0.017522125800342,15.4514090729466
-0.0159107566137177,15.4523173407564
-0.0143560685678139,15.4532486647557
-0.0128630966522899,15.454204242669
-0.0114358310180982,15.4551860451727
-0.0100780892514971,15.4561963736226
-0.00879345955450633,15.4572379447402
-0.00758524866151176,15.4583139958689
-0.00645642708551162,15.4594284254817
-0.00540957159873652,15.4605859847812
-0.00444680439710142,15.4617925456514
-0.00356972768238355,15.4630554867319
-0.00277935114067975,15.4643842699185
-0.00207600744121556,15.4657913395848
-0.00145924617809368,15.467293603821
-0.000929691749853819,15.4689081268542
-0.000507441416490614,15.4705620474195
-0.000174819855146734,15.4722738033178
8.33661613232539e-05,15.474062517599
0.000281331424354278,15.4759532979819
0.000432698971723945,15.4779808164623
0.000551076350129168,15.4801965519308
0.000651070172059598,15.4826852139702
0.000750767321166361,15.4856115183598
0.000879180742708763,15.4893538973218
0.00102758124033791,15.4931896213449
0.00121961070596932,15.497528546408
0.00142890529424041,15.5018286422284
0.00165857298092088,15.5063189280765
0.00192233729513696,15.5113881925386
0.00217717633306817,15.516285010799
0.00243466035511347,15.5212664854199
0.0026589547126174,15.5256154272018
0.00286422624715732,15.5295871689226
0.00306302437785443,15.5334058125649
0.00326164880844349,15.5371746336769
0.00346427210446606,15.5409550785659
0.00367427050385454,15.544791261391
0.00389474813771986,15.5487189290244
0.00412881159343624,15.5527696329511
0.00437978465811135,15.5569735816431
0.00465137497641231,15.5613612107131
0.0049478740156428,15.5659644663946
0.00527446766406958,15.5708181360194
0.00563774602497988,15.5759610760005
0.00602632395963923,15.5811711730798
0.0064312094075481,15.5862875523716
0.00685781775861343,15.5913428871825
0.00730826722679399,15.5963181338491
0.00778743035205727,15.60122070299
0.00830053844976472,15.6060543833947
0.00885364769294584,15.6108241008966
0.00945335211948815,15.6155323995778
0.0101068643636086,15.6201798704449
0.0108289502725742,15.6248074006889
0.0116406868239316,15.6294673623076
0.0125589224737799,15.6341595483848
0.0136083890573784,15.638904588244
0.014825410278174,15.6437461678604
0.0162739029836866,15.6487905767384
0.0181065437066192,15.6543492594487
0.0205307544669554,15.6607654013807
0.0220957085510001,15.6645779050414
0.0236965027248366,15.6683904087022
0.0250929264677425,15.6718029060476
0.026271006296899,15.674929522618
0.0272436300871854,15.6779406282351
0.0279619600085331,15.6808168806945
0.0284141566858109,15.683619382419
0.0285884634664412,15.6864773826243
0.0284313375552764,15.6895902655415
0.0277192369444208,15.6935805059499
0.0268745216726453,15.6965079358902
0.025809032938555,15.6994353658304
0.0247318176286971,15.7020080451586
0.0236584442569636,15.7043702489041
0.0225842728999974,15.7066219037597
0.0215105720111579,15.7088124675564
0.0204406905606148,15.7109706113382
0.0193783450346359,15.7131154787362
0.0183271370743777,15.7152611175197
0.0172904232057282,15.7174185614551
0.0162712812315831,15.719596965317
0.0152725118274728,15.7218042786184
0.0142966481501103,15.724047683705
0.0133459653366112,15.726333904927
0.0124224943431631,15.7286694286404
0.0115280824494635,15.731060690348
0.0106643066485917,15.7335142318522
0.00983250950468753,15.7360368246034
0.00903382091280782,15.7386356300731
0.00825902317249085,15.7413553808089
0.00749775049299696,15.7442584103962
0.00675380341992168,15.7473659382993
0.00603101865727308,15.7507031400265
0.00533343408730531,15.7542991124213
0.00466524707801359,15.7581875994955
0.00403073420543729,15.7624079825322
0.00343411862143477,15.7670067727958
0.00287936579578048,15.7720401735824
0.00236990786884822,15.7775787753212
0.00190840120726141,15.7837152672786
0.00149801697919863,15.790549969143
0.00115314028729939,15.7979087824758
0.000866972148491855,15.8058971101072
0.000639882688829675,15.8146566991711
0.00046973061998464,15.8242903972981
0.000357197939596146,15.8334193869
0.000269355728076307,15.8434193869
0.000208253585282078,15.8534193869
0.000166298149451495,15.8634193869
0.000138005976726825,15.8734193869
0.000119334324102886,15.8834193869
0.000107379892204671,15.8934193869
0.000100126570091309,15.9034193869
9.62043635127992e-05,15.9134193869
9.46888913385427e-05,15.9234193869
9.49562072816154e-05,15.9334193869
9.65862595786342e-05,15.9434193869
9.93004682156473e-05,15.9534193869
0.000102920751851787,15.9634193869
0.000107341865725582,15.9734193869
0.000112512486034201,15.9834193869
0.000118422477284326,15.9934193869
0.000125094741623186,16.0034193869
0.000132580549175355,16.0134193869
0.000140957593345556,16.0234193869
0.000150330308312718,16.0334193869
0.000160832249339554,16.0434193869
0.000172630581027711,16.0534193869
0.000185932966643211,16.0634193869
0.00020099743892059,16.0734193869
0.000218146209767695,16.0834193869
0.000237784916510429,16.0934193869
0.000260429621450395,16.1034193869
0.00028674517370382,16.1134193869
0.0003176006479846,16.1234193869
0.000354151112910639,16.1334193869
0.000397961115923256,16.1434193869
0.000451196277205294,16.1534193869
0.000512602754594927,16.162816405128
0.000582274301634814,16.1714916570571
0.000661233701694665,16.1794952498988
0.000750715503701583,16.1868798792583
0.000852134554686803,16.1936946033477
0.000967096961044705,16.1999849127828
0.00109742235166237,16.2057930152472
0.00124517161128722,16.2111580852684
0.0014126802611326,16.2161164717644
0.00160259414802147,16.2207019091945
0.00181791527728091,16.2249457283038
0.00206205263752725,16.2288770569016
0.00233888648584381,16.2325229948011
0.00265284491414429,16.235908794406
0.00300900188845868,16.2390580557649
0.00341320458231469,16.2419929245621
0.00387223820192825,16.2447343011029
0.00439405380110653,16.2473020910433
0.00498808996109545,16.249715512504
0.00566574422115841,16.2519934969676
0.00642022633057544,16.2541020208982
0.00725414950272838,16.2560547191176
0.00818004177227629,16.2578860638093
0.00921694077569024,16.259631391023
0.010396553335859,16.2613323607403
0.0117851018313577,16.2630566612816
0.0136398125494569,16.2650378027843
0.0153761911533488,16.2666714297228
0.0172697024888226,16.2683050566613
0.0189604599141706,16.2696994133772
0.0204317113481914,16.2709122559325
0.0217481976118104,16.2720423867822
0.022924188419662,16.2731419646029
0.0239499315209363,16.2742496365021
0.0247986751564813,16.2754077938173
0.0254188930291303,16.2766828550091
0.0256912973102745,16.2782361959766
0.0253518918309953,16.2800574054494
0.0244034020466202,16.2818786149222
0.023295615302634,16.2833529047566
0.0220536345303081,16.2847484843417
0.0206714658045704,16.2861646876135
0.0191572834469412,16.2876460637039
0.0175184086741918,16.2892302918537
0.0157832943840552,16.2909642122509
0.0144643300616285,16.2923801037561
0.0126488342235528,16.2945107926998
0.011041155980528,16.296623677663
0.00958393935516524,16.2987823053676
0.00818338859612405,16.3011491392676
0.00691263531355458,16.3036338663172
0.00613854821626844,16.305358026764
0.00544373763161332,16.3070821872108
0.00487361908256991,16.3086528574445
0.0043794030649531,16.3101552218238
0.00392337511624393,16.311683910754
0.00347737104303563,16.3133420268244
0.00300354944274652,16.3153261831801
0.0023950222256123,16.3183272337783
0.00186847192829657,16.3215213097158
0.0014906628287439,16.3243354354757
0.00116794977232125,16.3272738199895
0.000856781890803808,16.3308615470004
0.000587644292228565,16.3350650648536
0.000388901926345158,16.3397164585712
0.000275430550921637,16.3447871686173
0.000263311724201728,16.3492685807017
0.000331307448778516,16.3533139004829
0.000470335676077753,16.3569516880643
0.000676453341933943,16.3602305454002
0.000949103152320028,16.3631990447992
0.00129057138478082,16.365907046201
0.00170610689157821,16.3684041643574
0.00220567168971151,16.3707441402625
0.00280659074641079,16.3729859625238
0.00353917875802854,16.3752003060106
0.00445961515735002,16.3774845254906
0.00569741297891591,16.3800257311026
0.00734192123484732,16.3828375632973
0.00884482905716026,16.3850411190667
0.0105648439790204,16.387244674836
0.012229352383852,16.3891059822206
0.0139208984080924,16.3907613287405
0.0157158137324226,16.3922943547811
0.0176667798609127,16.3937420164462
0.0198210503739035,16.395124497168
0.0222167332479248,16.3964493548118
0.0248988471000855,16.3977243753614
0.0279075991871607,16.3989519689865
0.0312857590918354,16.4001341739206
0.0350863049940576,16.4012748926324
0.0393623600215369,16.4023759818828
0.044176252693646,16.4034400618761
0.0496043209077315,16.4044707426769
0.0557329522627065,16.405471099219
0.062663505808706,16.4064442687493
0.0705181681578484,16.4073937477765
0.0794464563622082,16.4083234579819
0.089630113154452,16.4092374845187
0.101294980621668,16.4101403746623
0.114725945108864,16.4110372906927
0.13029115706242,16.4119343798158
0.148478767133636,16.4128392388804
0.16995889881519,16.4137617556868
0.195249057627451,16.4147002669136
0.224530647930183,16.4156429676713
0.258558978653106,16.4165997340463
0.298377684914466,16.4175861925443
0.345727108434969,16.4186339683174
0.382256331337026,16.4193841267884
0.42001630549798,16.4201342852595
0.453543272392966,16.4208029096543
0.482928772766249,16.42141607914
0.5086603696712,16.4220048536384
0.530675589996869,16.4225929147947
0.548428614711982,16.4232047129092
0.560659031637315,16.4238759935704
0.564347491160961,16.4246385000299
0.556508428439409,16.425420914254
0.53592021234182,16.4262437785668
0.500706349640345,16.4271245199378
0.450310179521403,16.4280454170191
0.386407660897138,16.4289749216775
0.339579277302391,16.4295673945546
0.288939844731609,16.4301598674318
0.244310786640643,16.4306591386254
0.206137657768313,16.4310807409378
0.172638642558207,16.4314547069442
0.1426641193458,16.4317992556509
0.115512655137474,16.4321258639399
0.0906932470638434,16.4324431429741
0.0677911101689444,16.4327592150149
0.0463396814987723,16.4330845644365
0.0254863228694032,16.4334405114441
0.00802554429961241,16.4337831053621
-0.0012756981130211,16.4339892534895
-0.00970914075114207,16.434195401617
-0.01633240995817,16.4343736411527
-0.0224146004662203,16.4345533443177
-0.0285481290963744,16.4347542693724
-0.0344771756687621,16.4349728910772
-0.0400376190675886,16.435207051812
-0.0451378951938022,16.4354559732061
-0.0497300679803351,16.4357197962474
-0.0537925794575727,16.4359993230066
-0.0573200779863238,16.4362958927703
-0.0603143189786249,16.4366113410051
-0.0628972399256424,16.4369676152324
-0.0647938732192977,16.4373268124097
-0.0661940568360413,16.4377133760428
-0.067113730928384,16.4381320198554
-0.0675650188290931,16.4385883202632
-0.0675560626979686,16.4390893568209
-0.0670888042901628,16.4396443226629
-0.0661533028436519,16.4402668976142
-0.0647233395447949,16.4409751804465
-0.0627449756386244,16.441796613896
-0.0601048033262251,16.442779049251
-0.0565074593166788,16.4440331167399
-0.0523407913933921,16.4454428664032
-0.0482961324213044,16.4468076744228
-0.0444266601751768,16.4481325687856
-0.0407591686182441,16.4494197421313
-0.0373078970790213,16.4506699308248
-0.0340798194667937,16.4518831399849
-0.0310769657664783,16.4530590284909
-0.0282976458635533,16.4541971121317
-0.0257372421040421,16.4552968687912
-0.0233888213086362,16.4563577886332
-0.0212436616810589,16.4573793915956
-0.0192917268749931,16.4583612241607
-0.0175220955762129,16.4593028420184
-0.0159107270356501,16.4602111100784
-0.0143560396980425,16.4611424343388
-0.0128630685396096,16.4620980125335
-0.0114358037097519,16.463079815342
-0.0100780627925393,16.4640901441244
-0.00879343398725362,16.4651317156074
-0.00758522402497327,16.4662077671408
-0.00645640341479369,16.4673221972058
-0.00540954892442882,16.4684797570161
-0.00444678274463571,16.4696863184699
-0.00356970707134998,16.4709492602263
-0.00277933158407754,16.4722780442085
-0.00207598894457335,16.47368511483
-0.00145922873834592,16.4751873802426
-0.000929675680930982,16.4768019036228
-0.000507426514677693,16.478455824728
-0.000174805952297284,16.4801675813492
8.33792204730853e-05,16.4819562965887
0.000281343785415636,16.483847078245
0.00043271077542633,16.4858745984476
0.000551087739565549,16.4880903363324
0.000651081307232809,16.490579002002
0.000750778421571859,16.4935053126441
0.000879191722771948,16.4972476907483
0.00102759238578611,16.5010834183578
0.0012196214711673,16.505422334429
0.00142891613747665,16.5097224323837
0.0016585847921121,16.5142127379631
0.00192234813550672,16.5192819844436
0.00217718697551043,16.5241787993958
0.00243467157965062,16.5291602848758
0.00265896454945145,16.5335091979071
0.00286423557992183,16.5374809276541
0.00306303361069008,16.5412995666397
0.00326165817542709,16.5450683870107
0.00346428177948047,16.5488488337642
0.00367428063969834,16.5526850204655
0.00389475888317199,16.5566126936845
0.00412882310436554,16.5606634047755
0.00437979710599551,16.5648673621872
0.00465138855654272,16.5692550015791
0.00494788895878736,16.5738582692963
0.00527448425646795,16.5787119528568
0.00563776464015764,16.5838549089071
0.00602634301593821,16.5890649976621
0.00643122954323843,16.5941813757141
0.006857838896033,16.5992367062048
0.00730828961985998,16.6042119493353
0.00778745422582197,16.6091145149826
0.00830056408714455,16.6139481922076
0.00885367539994341,16.6187179067076
0.00945338223100628,16.6234262024719
0.0101068972450246,16.628073670413
0.0108289871537416,16.6327012024996
0.0116407283472716,16.637361165344
0.0125589696667121,16.6420533534025
0.0136084433151376,16.6467983965722
0.0148254738153876,16.6516399826401
0.0162739801186098,16.6566844059416
0.0181066469923687,16.6622431301258
0.0205308584078688,16.6686592386041
0.0220958040101095,16.6724717112295
0.0236965852186562,16.6762841838549
0.0250929958158994,16.6796966588766
0.0262710644536972,16.6828232650696
0.0272436769361196,16.6858343681977
0.0279619921805946,16.6887106135324
0.0284141741552175,16.6915131145107
0.0285884647630291,16.6943711220682
0.0284313175716226,16.6974840281168
0.0277191672428938,16.701474368394
0.0268744436423674,16.7044017510333
0.0258089578252672,16.7073291336726
0.0247317439281824,16.7099017909413
0.0236583706450741,16.7122639843514
0.022584199240479,16.7145156336537
0.0215104984904047,16.7167061943875
0.0204406174294275,16.7188643366745
0.0193782725460714,16.7210092036844
0.0183270654673111,16.7231548429239
0.0172903527004812,16.7253122879987
0.0162712120293311,16.7274906935811
0.0152724441105533,16.7296980091189
0.0142965820829911,16.7319414169164
0.0133459010665183,16.7342276413011
0.0124224320006618,16.73656316862
0.0115280221555711,16.7389544343773
0.0106642485020276,16.7414079803879
0.00983245358954416,16.7439305781242
0.00903376729926804,16.7465293890882
0.00825897035850516,16.749249151768
0.0074976987417326,16.752152194625
0.0067537529870984,16.7552597374091
0.00603096981383393,16.758596955875
0.00533338711681548,16.762192947159
0.00466520227270713,16.7660814556229
0.00403069185918734,16.7703018629809
0.00343407901819971,16.7749006810599
0.0028793291938,16.7799341139449
0.00236987447904302,16.7854727532906
0.00190837118321521,16.7916092902133
0.0014979916219216,16.798444024113
0.00115311911589428,16.8058028757996
0.000866954703534526,16.8137912501783
0.000639869395887704,16.8225508968456
0.000469736874084321,16.8321836048959
0.000357197501771127,16.8413130323256
0.000269355331398961,16.8513130323256
0.000208253280093254,16.8613130323256
0.000166297949878537,16.8713130323256
0.000138005864232815,16.8813130323256
0.000119334271795988,16.8913130323256
0.000107379878777091,16.9013130323256
0.000100126582393696,16.9113130323256
9.62043942219193e-05,16.9213130323256
9.46889362817806e-05,16.9313130323256
9.4956263841755e-05,16.9413130323256
9.65863260184617e-05,16.9513130323256
9.9300543439634e-05,16.9613130323256
0.000102920835297464,16.9713130323256
0.000107341957275605,16.9813130323256
0.000112512585938162,16.9913130323256
0.000118422586101885,17.0013130323256
0.000125094860194436,17.0113130323256
0.00013258067861712,17.0213130323256
0.000140957735070215,17.0313130323256
0.000150330464067792,17.0413130323256
0.000160832421269124,17.0513130323256
0.000172630771759751,17.0613130323256
0.000185933179410116,17.0713130323257
0.00020099767772423,17.0813130323257
0.000218146479606133,17.0913130323257
0.000237785223692239,17.1013130323257
0.000260429974036358,17.1113130323257
0.000286745582138097,17.1213130323257
0.000317601126014447,17.1313130323257
0.000354151678956803,17.1413130323257
0.000397961795174235,17.1513130323257
0.000451197104911169,17.1613130323257
0.000512603694544381,17.1707100403059
0.000582275365343177,17.1793852823851
0.000661234905271954,17.1873888661347
0.000750716865920949,17.1947734871191
0.000852136096966414,17.2015882034984
0.000967098707687742,17.2078785058406
0.00109742433020698,17.2136866017846
0.00124517385294156,17.2190516658173
0.00141268280126883,17.2240100468182
0.00160259702674754,17.2285954792114
0.00181791854012954,17.2328392937097
0.00206205633629194,17.236770618093
0.00233889067953048,17.2404165521471
0.00265284967025232,17.2438023482512
0.00300900728453412,17.2469516064321
0.00341321070800789,17.2498864723551
0.00387224516176556,17.25262784631
0.00439406171828546,17.2551956339409
0.00498809898299088,17.2576090533616
0.00566575452761513,17.2598870360546
0.0064202377147601,17.2619955575288
0.00725416210768154,17.2639482537776
0.00818005581827978,17.2657795969955
0.00921695660711447,17.2675249232708
0.0103965715642238,17.2692258927516
0.0117851247107192,17.2709501953578
0.0136398459163842,17.2729313435718
0.0153762146542665,17.2745649584723
0.0172697132402596,17.2761985733729
0.0189604676744907,17.2775929274881
0.0204317180900217,17.2788057693657
0.0217482036033444,17.2799358999604
0.0229241936631644,17.2810354777402
0.023949935925397,17.2821431497919
0.0247986785376544,17.2833013075116
0.0254188950232135,17.2845763695754
0.0256912968964661,17.2861297128764
0.0253518884874956,17.2879509209218
0.024403397344859,17.2897721289672
0.023295610024748,17.2912464181997
0.0220536286680098,17.2926419977577
0.0206714593903812,17.2940582012274
0.0191572765229012,17.2955395776673
0.0175184012633002,17.2971238063288
0.015783286732444,17.2988577274673
0.0144643132480542,17.3002736297207
0.0126488189167761,17.3024043189622
0.011041142159429,17.3045172041695
0.00958392697582151,17.306675832108
0.00818337769630888,17.3090426662263
0.00691262578887207,17.311527393557
0.00613853954580578,17.3132515542268
0.00544372974728599,17.3149757148966
0.00487361186149447,17.3165463853208
0.00437939643313742,17.318048749868
0.00392336903901232,17.319577438958
0.00347736551842628,17.3212355551885
0.003003544518708,17.3232197117075
0.00239501790906849,17.3262207634976
0.00186846820318881,17.3294148405579
0.0014906595586987,17.3322289672913
0.00116794690331451,17.3351673529569
0.000856779422030339,17.3387550816959
0.000587642200859801,17.3429586021943
0.000388900217054022,17.3476099992345
0.000275429359773007,17.3526807072795
0.00026331087660345,17.357162118199
0.000331306866532705,17.361207436881
0.000470335314936339,17.3648452234922
0.000676453181722987,17.3681240800244
0.000949103187639662,17.3710925787624
0.00129057162381954,17.3738005796499
0.00170610735161697,17.376297697412
0.00220567240041144,17.3786376730374
0.00280659176141683,17.3808794951554
0.00353918018109576,17.383093838692
0.00445961712975236,17.3853780583678
0.00569741568224329,17.387919264222
0.00734192474527789,17.3907310964154
0.00884483207762468,17.3929346504315
0.0105648463623155,17.3951382044475
0.0122293549017417,17.3969995112183
0.0139209013841193,17.3986548574812
0.0157158172836768,17.4001878833331
0.0176667841586295,17.4016355448909
0.0198210554578783,17.4030180254749
0.0222167392577232,17.4043428830121
0.0248988541004479,17.4056179034382
0.0279076073390446,17.4068454969652
0.0312857684767708,17.408027701789
0.0350863157579803,17.4091684203988
0.0393623723811221,17.4102695095682
0.0441762668043133,17.4113335894786
0.0496043370025069,17.4123642702066
0.0557329706210049,17.4133646266868
0.0626635268048986,17.4143377961719
0.0705181921686878,17.4152872751614
0.0794464838909702,17.4162169853427
0.0896301448323742,17.4171310118708
0.101295017253078,17.4180339020235
0.114725987770294,17.4189308180866
0.130291207132986,17.4198279072677
0.148478826552461,17.4207327664259
0.169958970402745,17.4216552833756
0.195249140650532,17.4225937946511
0.224530744561298,17.4235364954924
0.258559091836743,17.424493262002
0.298377819107019,17.4254797207207
0.345727272361832,17.4265274969044
0.382256476873093,17.4272776549217
0.420016425590594,17.4280278129391
0.453543371405769,17.4286964370731
0.482928854766549,17.4293096064575
0.508660435485654,17.4298983809552
0.53067563841097,17.4304864421976
0.548428642385931,17.4310982405037
0.56065903123767,17.431769521537
0.564347447387494,17.4325320280692
0.556508338319405,17.4333144424402
0.535920070559189,17.4341373069635
0.500706148716336,17.4350180485891
0.450309916490758,17.4359389458807
0.386407362214646,17.4368684503814
0.339579011754997,17.4374609225638
0.288939626776236,17.4380533947463
0.244310606614916,17.4385526654861
0.20613750307983,17.438974267542
0.172638506108622,17.4393482333969
0.142663997149947,17.4396927820117
0.115512544617291,17.4400193902494
0.090693146263308,17.4403366692658
0.067791017261238,17.440652741325
0.0463395940826257,17.4409780908207
0.0254862352466289,17.4413340380479
0.00802551907357268,17.4416766309149
-0.00127571295458698,17.4418827788654
-0.00970914682334217,17.4420889268159
-0.0163324146462537,17.4422671663387
-0.0224146052692368,17.4424468695327
-0.0285481336916437,17.4426477946124
-0.0344771798353567,17.4428664163396
-0.0400376226828233,17.4431005770954
-0.0451378981945828,17.4433494985107
-0.0497300703393383,17.443613321574
-0.0537925811694212,17.4438928483565
-0.0573200790588963,17.4441894181453
-0.0603143193938976,17.4445048664079
-0.062897238588278,17.4448611404951
-0.0647938715125563,17.4452203376925
-0.0661940547880728,17.4456069013503
-0.0671137285529251,17.4460255451908
-0.0675650161374964,17.4464818456305
-0.0675560596983217,17.4469828822251
-0.0670888009859922,17.4475378481103
-0.0661532992295459,17.4481604231145
-0.0647233356049382,17.4488687060121
-0.0627449713377186,17.4496901395464
-0.0601047985830108,17.450672575022
-0.0565074538746122,17.4519266427297
-0.0523407860707611,17.453336392353
-0.0482961272668458,17.4547012003376
-0.0444266552174083,17.4560260946663
-0.0407591638733463,17.4573132679776
-0.0373078925560437,17.4585634566362
-0.0340798151698381,17.4597766657607
-0.031076961695792,17.4609525542302
-0.0282976420162382,17.4620906378338
-0.0257372384746236,17.4631903944553
-0.023388817889575,17.4642513142588
-0.0212436584632188,17.4652729171821
-0.0192917238480871,17.4662547497077
-0.0175220927292065,17.4671963675254
-0.0159107242484312,17.4681046356084
-0.0143560369763517,17.4690359598928
-0.0128630658879538,17.4699915381134
-0.0114358011324926,17.4709733409499
-0.0100780602938424,17.4719836697629
-0.0087934315710322,17.4730252412795
-0.00758522169483413,17.4741012928501
-0.00645640117398915,17.4752157229568
-0.00540954677579371,17.476373282814
-0.00444678069053473,17.4775798443215
-0.00356970511361452,17.4788427861401
-0.00277932972393382,17.4801715701955
-0.00207598718256397,17.4815786409049
-0.00145922707422993,17.4830809064257
-0.000929674143631012,17.4846954298378
-0.000507425085466781,17.4863493509927
-0.000174804615725706,17.4880611076804
8.33804786647338e-05,17.489849823008
0.000281344978592355,17.4917406047815
0.000432711916495274,17.4937681251425
0.000551088841637846,17.4959838632496
0.000651082384953741,17.4984725292532
0.000750779495018063,17.5013988404704
0.000879192783868107,17.5051412184957
0.00102759346091225,17.5089769464351
0.0012196225005129,17.5133158614738
0.00142891717495636,17.5176159596762
0.00165858594084769,17.5221062675212
0.00192234917388751,17.5271755119447
0.00217718799191258,17.5320723265217
0.00243467266279166,17.537053813251
0.0026589654726512,17.5414027229897
0.00286423644379193,17.5453744513674
0.00306303446090031,17.5491930898226
0.0032616590381282,17.5529619101123
0.00346428267386716,17.5567423570833
0.00367428158246098,17.560578544233
0.00389475989041879,17.5645062180969
0.00412882419285642,17.5685569300141
0.00437979829406875,17.5727608884309
0.00465138986499325,17.5771485290121
0.00494789041212225,17.5817517981162
0.0052744858850881,17.5866054832824
0.00563776648384926,17.5917484411845
0.00602634489567045,17.5969585290633
0.00643123152824674,17.6020749070265
0.00685784097534689,17.6071302370805
0.00730829181949418,17.6121054798589
0.00778745656839156,17.6170080451575
0.00830056660140307,17.6218417220682
0.00885367811682554,17.6266114362738
0.00945338518418301,17.6313197317536
0.0101069004710028,17.6359671994102
0.0108289907736982,17.6405947316801
0.0116407324247759,17.6452546946474
0.0125589743030817,17.6499468829028
0.0136084486478543,17.6546919264
0.0148254800625751,17.6595335131045
0.0162739877055346,17.6645779378275
0.0181066571553117,17.6701366660969
0.020530868636043,17.6765527712816
0.0220958134032822,17.6803652408507
0.0236965933353143,17.6841777104199
0.0250930026382983,17.6875901832434
0.0262710701743012,17.6907167884145
0.027243681543488,17.6937278912975
0.0279619953430819,17.6966041359308
0.0284141758702796,17.6994066368359
0.0285884648859129,17.7022646451174
0.0284313155994539,17.7053775534438
0.0277191603755819,17.7093679035549
0.0268744359551488,17.7122952815373
0.0258089504253565,17.7152226595198
0.0247317366674685,17.7177953146168
0.0236583633931616,17.7201575070095
0.0225841919839294,17.7224091557654
0.0215104912475472,17.7245997161979
0.0204406102249325,17.7267578583381
0.0193782654048306,17.7289027253102
0.0183270584128166,17.7310483645952
0.0172903457543963,17.7332058097827
0.016271205211433,17.7353842155353
0.0152724374387613,17.7375915312941
0.0142965755734621,17.7398349393595
0.0133458947337095,17.7421211640567
0.0124224258573869,17.7444566917319
0.0115280162139139,17.7468479578897
0.0106642427716261,17.7493015043459
0.00983244807859928,17.7518241025754
0.0090337620146139,17.7544229140832
0.00825896515279514,17.7571426779402
0.00749769364086372,17.760045722105
0.00675374801624424,17.7631532663559
0.00603096499966761,17.7664904864715
0.00533338248725349,17.7700864796173
0.00466519785652071,17.7739749901894
0.00403068768531055,17.7781953999445
0.003434075114591,17.782794220765
0.002879325585888,17.7878276568136
0.00236987118759661,17.7933662998655
0.00190836822335765,17.7995028412194
0.0014979891217864,17.8063375782766
0.0011531170280751,17.8136964337434
0.000866952982745022,17.8216848127295
0.000639868087783235,17.8304444650739
0.000469737554295016,17.8400770716664
0.00035719748983514,17.8492065436552
0.000269355314993657,17.8592065436552
0.00020825326693906,17.8692065436552
0.000166297943239362,17.8792065436552
0.000138005863496547,17.8892065436552
0.00011933427510549,17.8992065436552
0.000107379884566911,17.9092065436552
0.000100126589738553,17.9192065436552
9.6204402659855e-05,17.9292065436553
9.46889455829368e-05,17.9392065436553
9.4956273873661e-05,17.9492065436553
9.65863366960377e-05,17.9592065436553
9.93005547138024e-05,17.9692065436553
0.000102920847152995,17.9792065436553
0.000107341969728327,17.9892065436553
0.000112512599031237,17.9992065436553
0.000118422599902911,18.0092065436553
0.000125094874794368,18.0192065436553
0.000132580694131161,18.0292065436553
0.000140957751640534,18.0392065436553
0.000150330481868007,18.0492065436553
0.000160832440510764,18.0592065436553
0.000172630792701146,18.0692065436553
0.000185933202368513,18.0792065436553
0.000200997703092285,18.0892065436553
0.000218146507874543,18.0992065436553
0.000237785255481131,18.1092065436553
0.000260430010139474,18.1192065436553
0.000286745623586074,18.1292065436553
0.000317601174167236,18.1392065436553
0.000354151735641721,18.1492065436553
0.000397961862897445,18.1592065436553
0.000451197187191105,18.1692065436553
0.00051260378737304,18.1786035505534
0.00058227546976452,18.187278791595
0.000661235022795589,18.1952823743888
0.000750716998313514,18.2026669944945
0.000852136246246439,18.2094817100665
0.000967098876147436,18.215772011667
0.00109742452044517,18.2215801069304
0.00124517406790475,18.2269451703385
0.00141268304429772,18.2319035507671
0.00160259730163071,18.2364889826359
0.00181791885116798,18.2407327966545
0.00206205668837683,18.2446641205993
0.00233889107823133,18.2483100542532
0.00265285012193597,18.2516958499927
0.00300900779650819,18.254845107842
0.00341321128871068,18.2577799734646
0.00387224582102066,18.2605213471481
0.00439406246765057,18.2630891345355
0.00498809983626124,18.2655025537393
0.00566575550158031,18.267780536242
0.00642023878972839,18.2698890574624
0.00725416329661268,18.2718417535037
0.00818005714102128,18.2736730965606
0.00921695809445163,18.275418422724
0.010396573270406,18.2771193921554
0.0117851268397188,18.2788436949201
0.0136398489826064,18.2808248436939
0.0153762168829256,18.282458457525
0.0172697143822765,18.2840920713561
0.0189604685792474,18.2854864252285
0.0204317189270639,18.2866992670331
0.0217482043945685,18.287829397593
0.0229241944075888,18.2889289753574
0.0239499366138968,18.290036647411
0.0247986791527621,18.2911948051548
0.0254188955312679,18.2924698672837
0.0256912972047461,18.2940232107788
0.0253518885423484,18.295844418685
0.0244033972766458,18.2976656265912
0.0232956098994371,18.2991399157593
0.0220536284816151,18.3005354953062
0.0206714591423454,18.3019516987864
0.0191572762133889,18.3034330752518
0.0175184008905306,18.3050173039552
0.0157832863114084,18.3067512251584
0.0144643120631808,18.308167128286
0.0126488177207825,18.3102978176854
0.0110411410620338,18.3124107029272
0.00958392614486898,18.3145693306345
0.00818337752068749,18.3169361637457
0.00691262564531165,18.3194208910412
0.00613853904256179,18.3211450525745
0.00544372895903449,18.3228692141078
0.00487361097599906,18.3244398850104
0.0043793955918754,18.3259422496531
0.00392336833021503,18.3274709385277
0.00347736503880725,18.3291290541077
0.00300354447229599,18.3311132088988
0.00239501785879041,18.3341142606489
0.00186846742647435,18.3373083425221
0.00149065857949263,18.3401224718343
0.00116794597951638,18.3430608584912
0.000856778614600954,18.3466485879762
0.000587641519305718,18.3508521093517
0.000388899662461927,18.3555035074871
0.000275428973907831,18.3605742149619
0.00026331060247916,18.3650556255681
0.000331306678088533,18.3691009439538
0.000470335196874008,18.3727387302982
0.000676453126600627,18.3760175866108
0.00094910319258872,18.3789860851664
0.00129057169226223,18.3816940859255
0.0017061074867116,18.3841912035788
0.00220567260682321,18.3865311791106
0.0028065920516745,18.3887730011672
0.00353918060555727,18.3909873447577
0.00445961772565107,18.3932715645015
0.00569741645783246,18.3958127703387
0.00734192575008646,18.398624602502
0.00884483295015798,18.4008281560052
0.0105648470620027,18.4030317095085
0.0122293557608676,18.4048930162162
0.0139209021397088,18.4065483621627
0.0157158182868685,18.4080813880332
0.0176667853228783,18.4095290495239
0.019821056851879,18.4109115300785
0.0222167408964693,18.4122363875823
0.0248988560066035,18.4135114079751
0.0279076095510826,18.4147390014742
0.0312857710164551,18.4159212062678
0.0350863186638513,18.4170619248499
0.0393623757101704,18.4181630139971
0.04417627059716,18.4192270938849
0.0496043413209328,18.420257774593
0.0557329755391335,18.4212581310562
0.0626635324226208,18.4222313005289
0.0705181985851593,18.4231807795078
0.0794464912393931,18.4241104896821
0.0896301532796572,18.4250245162072
0.101295027011522,18.4259274063616
0.114725999124453,18.4268243224325
0.13029122044488,18.427721411628
0.148478842330811,18.4286262708097
0.169958989385571,18.4295487877958
0.195249162657458,18.430487299083
0.224530770164356,18.4314299999452
0.25855912180956,18.4323867664889
0.298377854617643,18.4333732252639
0.345727315693007,18.4344210015533
0.38225651542476,18.4351711594506
0.420016457520207,18.435921317348
0.453543397851575,18.4365899414126
0.48292887679051,18.4372031107694
0.508660453303883,18.437791885266
0.530675651705946,18.4383799465301
0.548428650283568,18.4389917448856
0.560659031816174,18.4396630260159
0.564347436628129,18.4404255325663
0.556508315433844,18.4412079469753
0.535920034143831,18.4420308115533
0.500706096795803,18.4429115532454
0.45030984841125,18.4438324505899
0.386407284816213,18.4447619550489
0.339578942911495,18.4453544270508
0.288939570246216,18.4459468990528
0.244310559903055,18.4464461696745
0.206137462925765,18.4468677716637
0.172638470674343,18.4472417374791
0.142663965403777,18.4475862860699
0.11551251589204,18.4479128942942
0.0906931200523641,18.4482301733059
0.0677909930907381,18.4485462453698
0.0463395713286392,18.4488715948846
0.0254862124255892,18.449227542169
0.00802551249532728,18.4495701347621
-0.00127571683439703,18.4497762826665
-0.00970914842460891,18.4499824305708
-0.0163324158888438,18.4501606700902
-0.022414606543538,18.4503403732916
-0.0285481349140234,18.4505412983777
-0.034477180948517,18.4507599201106
-0.0400376236548305,18.4509940808718
-0.0451378990089912,18.4512430022924
-0.0497300709890016,18.4515068253613
-0.0537925816527764,18.4517863521497
-0.05732007937788,18.452082921945
-0.0603143195441174,18.4523983702147
-0.0628972382985392,18.4527546442675
-0.0647938711255693,18.4531138414701
-0.066194054310964,18.4535004051343
-0.0671137279892233,18.4539190489821
-0.0675650154901076,18.4543753494302
-0.0675560589692851,18.4548763860345
-0.0670888001761243,18.4554313519311
-0.0661532983372654,18.4560539269492
-0.0647233346258407,18.4567622098641
-0.0627449702620975,18.4575836434209
-0.0601047973886395,18.4585660789288
-0.0565074524914899,18.4598201466954
-0.0523407847178327,18.4612298963081
-0.0482961259569591,18.4625947042836
-0.0444266539580463,18.4639195986034
-0.0407591626687406,18.4652067719058
-0.03730789140855,18.4664569605554
-0.0340798140805276,18.4676701696706
-0.0310769606647284,18.4688460581307
-0.0282976410426725,18.4699841417247
-0.0257372375571444,18.4710838983365
-0.0233888170262397,18.47214481813
-0.0212436576516731,18.4731664210433
-0.0192917230856825,18.4741482535586
-0.0175220920131003,18.475089871366
-0.0159107235476433,18.4759981394549
-0.0143560362923583,18.4769294637455
-0.0128630652219144,18.4778850419728
-0.0114358004855256,18.4788668448166
-0.0100780596670142,18.4798771736374
-0.00879343096534706,18.4809187451627
-0.00758522111122046,18.4819947967429
-0.00645640061327657,18.4831092268603
-0.00540954623870993,18.4842667867297
-0.00444678017768225,18.485473348251
-0.00356970462545692,18.4867362900856
-0.00277932926077966,18.4880650741598
-0.00207598674454643,18.489472144892
-0.00145922666127547,18.4909744104407
-0.000929673763186981,18.492588933861
-0.000507424732701331,18.4942428550287
-0.000174804286650259,18.4959546117335
8.33807877322404e-05,18.4977433270839
0.000281345271105188,18.4996341088876
0.000432712195790418,18.5016616292895
0.000551089111108141,18.5038773674538
0.000651082648392496,18.5063660335435
0.000750779757628619,18.509292344909
0.000879193043613904,18.513034722914
0.00102759372456398,18.5168704509385
0.00121962275559749,18.5212093657741
0.00142891743175992,18.5255094640247
0.00165858621941743,18.5299997723152
0.00192234943038052,18.5350690163323
0.00217718824380613,18.5399658308344
0.00243467292774351,18.5449473178089
0.00265896570621707,18.5492962268979
0.00286423666597688,18.5532679550049
0.00306303468087173,18.5570865933547
0.00326165926121081,18.5608554136275
0.00346428290402747,18.5646358606404
0.00367428182319282,18.5684720478776
0.00389476014513055,18.5723997218673
0.00412882446512426,18.5764504339462
0.00437979858783156,18.5806543925597
0.00465139018474122,18.5850420333739
0.0049478907631642,18.5896453027495
0.00527448627400861,18.5944989882302
0.00563776691923517,18.5996419464948
0.0060263453416806,18.6048520341817
0.00643123199949504,18.6099684121143
0.00685784147018473,18.6150237420679
0.00730829234381215,18.6199989847638
0.00778745712743148,18.6249015499809
0.00830056720173917,18.6297352268174
0.00885367876557607,18.6345049409527
0.00945338588914613,18.6392132363643
0.0101069012406974,18.6438607039522
0.0108289916368757,18.6484882362651
0.0116407333964429,18.653148199261
0.0125589754072523,18.6578403875626
0.0136084499171468,18.6625854311372
0.0148254815487668,18.6674270179924
0.0162739895095845,18.6724714430526
0.0181066595707127,18.6780301722916
0.0205308710667048,18.6844462766941
0.0220958156356141,18.6882587455377
0.0236965952644934,18.6920712143813
0.0250930042601166,18.6954836866828
0.0262710715344476,18.6986102916113
0.0272436826392365,18.7016213944361
0.0279619960956615,18.7044976389029
0.0284141762790866,18.7073001397905
0.0285884649165722,18.7101581482439
0.0284313151325444,18.7132710571111
0.0277191587461512,18.7172614095574
0.0268744341309694,18.7201887864339
0.0258089486693591,18.7231161633104
0.0247317349444908,18.7256888178917
0.0236583616722475,18.7280510100427
0.0225841902618957,18.7303026586687
0.0215104895287539,18.7324932190296
0.0204406085152444,18.7346513611348
0.019378263710166,18.7367962280979
0.0183270567387633,18.7389418673935
0.0172903441061075,18.7410993126076
0.0162712035936139,18.7432777184004
0.0152724358556774,18.7454850342114
0.0142965740289603,18.7477284423402
0.0133458932312345,18.7500146671112
0.0124224243999937,18.7523501948707
0.011528014804423,18.7547414611231
0.01066424141235,18.7571950076846
0.00983244677150861,18.7597176060305
0.00903376076135378,18.7623164176667
0.0082589639182176,18.7650361818029
0.0074976924311231,18.7679392262779
0.00675374683731992,18.7710467708767
0.0060309638578948,18.7743839913836
0.00533338138926279,18.7779799849709
0.00466519680914511,18.7818684960431
0.0040306866954211,18.7860889063668
0.00343407418882737,18.7906877278375
0.00287932473028821,18.7957211646365
0.00236987040709238,18.8012598085676
0.00190836752153988,18.8073963509726
0.00149798852907331,18.8142310887788
0.0011531165332252,18.8215899451422
0.000866952575018603,18.8295783252211
0.00063986777694799,18.8383379789122
0.000469737697286506,18.8479705625553
0.000357197478027309,18.857100044709
0.000269355304582786,18.867100044709
0.000208253258960163,18.877100044709
0.000166297937926857,18.887100044709
0.0001380058603552,18.897100044709
0.000119334273466382,18.907100044709
0.000107379883904828,18.917100044709
0.000100126589727311,18.927100044709
9.62044031150898e-05,18.937100044709
9.46889463979218e-05,18.947100044709
9.49562749808769e-05,18.957100044709
9.65863380505406e-05,18.967100044709
9.93005562870356e-05,18.9771000447091
0.000102920848929813,18.9871000447091
0.000107341971704643,18.9971000447091
0.000112512601211992,19.0071000447091
0.000118422602300607,19.0171000447091
0.000125094877428282,19.0271000447091
0.0001325806970272,19.0371000447091
0.000140957754831628,19.0471000447091
0.000150330485395012,19.0571000447091
0.000160832444423875,19.0671000447091
0.000172630797061933,19.0771000447091
0.000185933207252726,19.0871000447091
0.000200997708593713,19.0971000447091
0.000218146514110303,19.1071000447091
0.000237785262599012,19.1171000447091
0.000260430018328244,19.1271000447091
0.000286745633090207,19.1371000447091
0.000317601185308362,19.1471000447091
0.00035415174885056,19.1571000447091
0.000397961878762601,19.1671000447091
0.000451197206535756,19.1771000447091
0.000512603809370712,19.1864970513708
0.000582275494689244,19.195172292185
0.000661235051028356,19.2031758747688
0.000750717030297934,19.210560494681
0.000852136282488466,19.2173752100748
0.000967098917221125,19.2236655115113
0.00109742456700089,19.2294736066239
0.0012451741206795,19.2348386698935
0.00141268310412677,19.2397970501949
0.00160259736946115,19.2443824819472
0.00181791892807493,19.248626295859
0.00206205677558337,19.2525576197062
0.00233889117713084,19.2562035532712
0.00265285023412266,19.2595893489296
0.00300900792381426,19.2627386067054
0.0034132114332541,19.2656734722616
0.00387224598527247,19.2684148458853
0.00439406265452356,19.2709826332194
0.00498810004924121,19.2733960523762
0.00566575574492408,19.2756740348382
0.00642023905855934,19.2777825560017
0.00725416359433493,19.2797352519975
0.00818005747288259,19.2815665950207
0.00921695846866925,19.2833119211631
0.0103965737015914,19.2850128905902
0.0117851273815308,19.2867371934054
0.0136398497746621,19.2887183423413
0.0153762174374302,19.2903519558849
0.0172697146300131,19.2919855694284
0.0189604687541529,19.2933799232392
0.0204317190765339,19.2945927650283
0.0217482045251028,19.2957228955827
0.0229241945192998,19.2968224733467
0.0239499367046599,19.2979301454045
0.0247986792182302,19.2990883031586
0.0254188955628155,19.3003633653089
0.0256912971780872,19.3019167088603
0.0253518884453731,19.303737916733
0.0244033971473406,19.3055591246058
0.0232956097566569,19.3070334137601
0.0220536283253211,19.3084289933067
0.0206714589734798,19.309845196792
0.0191572760331312,19.311326573266
0.0175184006996167,19.3129108019818
0.015783286116052,19.3146447232027
0.0144643116465227,19.316060626591
0.0126488173471949,19.3181913159912
0.0110411407255653,19.3203042012381
0.00958392583608615,19.3224628289633
0.00818337722167323,19.3248296621298
0.00691262538354023,19.327314389435
0.00613853882245859,19.3290385509324
0.00544372877503165,19.3307627124298
0.00487361081546375,19.3323333833145
0.00437939544581344,19.3338357479572
0.00392336819334029,19.3353644368469
0.00347736490634367,19.3370225524632
0.00300354433563736,19.3390067073431
0.00239501773946962,19.3420077591289
0.00186846735931256,19.3452018407988
0.00149065853506444,19.3480159700126
0.00116794594370837,19.3509543566536
0.000856778584416686,19.354542086151
0.000587641493639447,19.3587456075583
0.000388899641394904,19.363397005734
0.000275428959243879,19.3684677131801
0.000263310592071125,19.3729491237687
0.000331306671001495,19.3769944421379
0.00047033519260344,19.3806322284679
0.000676453124939475,19.3839110847685
0.000949103193525447,19.3868795833144
0.0012905716958582,19.3895875840652
0.00170610749330149,19.3920847017127
0.00220567261702179,19.3944246772412
0.0028065920663704,19.3966664992968
0.00353918062523772,19.3988808428861
0.00445961775251749,19.4011650626322
0.00569741649664298,19.4037062684771
0.00734192580051491,19.4065181006419
0.00884483299322558,19.4087216541207
0.0105648470955347,19.4109252075994
0.0122293557904345,19.4127865142929
0.0139209021872617,19.4144418602476
0.0157158183385839,19.4159748861118
0.0176667853878134,19.4174225476028
0.019821056927805,19.4188050281549
0.0222167409865949,19.4201298856574
0.0248988561116504,19.4214049060483
0.0279076096737165,19.422632499546
0.0312857711579112,19.4238147043379
0.0350863188263747,19.4249554229184
0.0393623758970975,19.4260565120645
0.0441762708108853,19.427120591951
0.0496043415650325,19.4281512726581
0.0557329758178816,19.4291516291204
0.0626635327417062,19.4301247985924
0.0705181989503678,19.4310742775708
0.0794464916584589,19.4320039877447
0.0896301537622175,19.4329180142697
0.101295027569943,19.4338209044242
0.114725999775242,19.4347178204957
0.130291221209263,19.4356149096921
0.148478843238707,19.4365197688753
0.169958990480626,19.4374422858636
0.195249163927756,19.4383807971517
0.224530771643348,19.4393234980152
0.258559123542612,19.4402802645611
0.298377856673427,19.4412667233395
0.345727318206547,19.4423144996354
0.38225651765249,19.4430646575257
0.420016459353119,19.4438148154161
0.45354339935715,19.4444834394768
0.48292887803173,19.4450966088321
0.508660454293509,19.4456853833287
0.53067565242517,19.4462734445942
0.548428650680793,19.4468852429527
0.56065903177824,19.4475565240887
0.564347435919215,19.4483190306403
0.556508314008494,19.4491014450516
0.535920031920478,19.4499243096329
0.500706093659785,19.4508050513289
0.450309844310872,19.4517259486768
0.386407280164184,19.4526554531334
0.339578938777026,19.4532479251245
0.28893956685381,19.4538403971156
0.244310557102003,19.4543396677303
0.206137460519733,19.4547612697155
0.172638468552724,19.4551352355286
0.142663963504573,19.455479784118
0.11551251417499,19.4558063923414
0.0906931184870112,19.4561236713529
0.0677909916485918,19.4564397434171
0.0463395699724015,19.4567650929331
0.0254862110668418,19.4571210402208
0.00802551210490664,19.4574636327977
-0.00127571706341137,19.4576697806993
-0.00970914851733237,19.4578759286008
-0.0163324159600024,19.45805416812
-0.0224146066163894,19.4582338713219
-0.0285481349835577,19.4584347964084
-0.0344771810112821,19.4586534181416
-0.040037623708935,19.4588875789032
-0.0451378990534402,19.4591365003242
-0.0497300710233818,19.4594003233934
-0.0537925816770233,19.4596798501822
-0.0573200793921034,19.4599764199779
-0.0603143195480197,19.4602918682479
-0.0628972382744604,19.4606481422985
-0.0647938710958106,19.4610073395014
-0.0661940542759707,19.4613939031661
-0.0671137279492042,19.4618125470143
-0.0675650154452436,19.4622688474628
-0.067556058919704,19.4627698840677
-0.067088800121886,19.463324849965
-0.0661532982782958,19.4639474249839
-0.0647233345619073,19.4646557078998
-0.0627449701926802,19.4654771414579
-0.0601047973125228,19.4664595769676
-0.0565074524048457,19.4677136447375
-0.0523407846330868,19.4691233943496
-0.04829612587486,19.4704882023245
-0.0444266538790305,19.4718130966438
-0.0407591625930614,19.4731002699457
-0.0373078913363529,19.4743504585947
-0.0340798140118683,19.4755636677094
-0.0310769605996131,19.4767395561689
-0.0282976409810628,19.4778776397623
-0.0257372374989537,19.4789773963735
-0.0233888169713448,19.4800383161664
-0.0212436575999309,19.4810599190791
-0.0192917230369306,19.4820417515938
-0.0175220919671665,19.4829833694006
-0.0159107235026525,19.4838916374898
-0.014356036248401,19.4848229617808
-0.0128630651790591,19.4857785400085
-0.0114358004438431,19.4867603428527
-0.0100780596265702,19.4877706716741
-0.00879343092620354,19.4888122431999
-0.00758522107343188,19.4898882947807
-0.00645640057689559,19.4910027248987
-0.00540954620378128,19.4921602847688
-0.00444678014424286,19.4933668462909
-0.00356970459353725,19.4946297881265
-0.00277932923039927,19.4959585722019
-0.00207598671571394,19.4973656429354
-0.00145922663398809,19.4988679084858
-0.000929673737897771,19.5004824319066
-0.000507424709118254,19.5021363530751
-0.000174804264532515,19.503848109781
8.33808086073585e-05,19.5056368251327
0.000281345290945808,19.5075276069383
0.000432712214797601,19.5095551273426
0.000551089129485623,19.5117708655105
0.00065108266636725,19.5142595316054
0.000750779775511512,19.5171858429799
0.00087919306127307,19.5209282209836
0.00102759374241311,19.5247639490133
0.00121962277255678,19.5291028638297
0.0014289174488475,19.5334029620849
0.00165858623856193,19.5378932704176
0.00192234944747122,19.5429625143965
0.00217718826048309,19.5478593288917
0.00243467294564662,19.5528408158894
0.00265896572112713,19.5571897249173
0.0028642366797562,19.5611614529989
0.00306303469436153,19.5649800913389
0.00326165927488922,19.5687489116102
0.00346428291824256,19.5725293586272
0.00367428183824492,19.5763655458727
0.00389476016130771,19.5802932198746
0.00412882448272471,19.5843439319688
0.00437979860718033,19.5885478906011
0.00465139020620565,19.5929355314374
0.0049478907871763,19.5975388008389
0.00527448630110433,19.6023924863495
0.00563776695011742,19.6075354446486
0.00602634537304996,19.6127455323202
0.00643123203259399,19.6178619102518
0.00685784150478348,19.6229172401979
0.00730829238035797,19.627892482888
0.00778745716630644,19.6327950480992
0.00830056724343434,19.6376287249304
0.00885367881061648,19.6423984390609
0.00945338593810101,19.6471067344677
0.0101069012941817,19.651754202051
0.0108289916969042,19.656381734367
0.0116407334640759,19.6610416973649
0.012558975484175,19.6657338856699
0.0136084500056451,19.6704789292499
0.0148254816524646,19.6753205161157
0.01627398963555,19.6803649411995
0.0181066597394851,19.6859236705065
0.0205308712365675,19.6923397748542
0.0220958157916051,19.696152243647
0.0236965953992785,19.6999647124398
0.0250930043734002,19.7033771847048
0.0262710716294282,19.7065037896164
0.0272436827157246,19.7095148924371
0.0279619961481481,19.7123911368922
0.0284141763075296,19.7151936377786
0.0285884649185668,19.7180516462441
0.028431315099737,19.7211645551491
0.0277191586320256,19.7251549077587
0.0268744340032244,19.7280822845579
0.0258089485463879,19.7310096613571
0.0247317348238328,19.7335823159023
0.0236583615517366,19.7359445080364
0.0225841901413077,19.7381961566533
0.0215104894083933,19.7403867170092
0.0204406083955216,19.742544859112
0.0193782635914939,19.7446897260744
0.0183270566215309,19.7468353653708
0.017290343990675,19.7489928105868
0.0162712034803093,19.7511712163824
0.0152724357447973,19.7533785321971
0.0142965739207737,19.7556219403303
0.01334589312598,19.7579081651066
0.0124224242978837,19.7602436928721
0.0115280147056612,19.762634959131
0.0106642413170948,19.7650885057
0.00983244667989459,19.7676111040542
0.00903376067349352,19.7702099156994
0.00825896383167158,19.7729296798552
0.00749769234632101,19.775832724352
0.00675374675467989,19.7789402689751
0.00603096377785994,19.7822774895095
0.00533338131229657,19.7858734831277
0.00466519673572567,19.7897619942349
0.00403068662602946,19.7939824045985
0.00343407412392766,19.7985812261148
0.00287932467030279,19.8036146629663
0.00236987035236622,19.809153306959
0.00190836747232431,19.8152898494378
0.00149798848749719,19.8221245872964
0.0011531164985003,19.8294834437227
0.00086695254639202,19.8374718238782
0.000639867755230403,19.8462314776637
0.000469737709488955,19.8558640595658
0.000357197478266864,19.86499354248
0.000269355304628438,19.87499354248
0.000208253258978959,19.88499354248
0.000166297937999303,19.89499354248
0.000138005860488147,19.90499354248
0.000119334273640076,19.91499354248
0.000107379884100742,19.92499354248
0.000100126589935265,19.93499354248
9.62044033310548e-05,19.94499354248
9.46889466206262e-05,19.95499354248
9.49562752098842e-05,19.96499354248
9.65863382856501e-05,19.97499354248
9.93005565282622e-05,19.98499354248
0.000102033067499285,19.99249677124
0.000105172305178433,20
