ecg,time
0.000875772802852387,15.0047000355317
0.000996457377688899,15.0109164808271
0.00113403259197982,15.0166561361548
0.00129076220352897,15.0219584320367
0.00146922374586704,15.0268598981996
0.00167234801449537,15.0313944169013
0.00190346929184074,15.0355934578184
0.00216638597277547,15.0394862971873
0.00246543719018187,15.0431002257692
0.00280559953634176,15.0464607592915
0.00319261264806254,15.0495918608714
0.00363314706830505,15.052516182699
0.00413503371543034,15.0552553462403
0.00470759175860422,15.0578302940835
0.00536211725642079,15.0602617650031
0.0060987988574874,15.0625320572734
0.00691629168762309,15.0646375997003
0.00782831381835508,15.0666174360422
0.0088567314875455,15.0685136571999
0.0100402594970697,15.0703797737721
0.0114645715479378,15.0723100260764
0.0135367208337106,15.0747133224683
0.0150302222588168,15.0762573244733
0.016616405774801,15.0778013264784
0.018066910318274,15.0791812822973
0.0193532071191486,15.080427475482
0.0205026115818044,15.0816102817944
0.0215160273649481,15.0827753101044
0.0223770976141397,15.0839623121587
0.0230523056233069,15.0852207576451
0.023476123711698,15.0866389530769
0.0234661477893051,15.0884875945903
0.0229014246436842,15.0902464056307
0.0218894775062971,15.0920052166712
0.0207688307401321,15.0934959550059
0.0195281184885719,15.0949383728795
0.0181669525666019,15.0964082978164
0.016694220859233,15.097945624271
0.015797534831995,15.0988761499063
0.0149168140217191,15.0998066755416
0.0139100125881942,15.1009200121514
0.0116386581679744,15.1036798300976
0.00963624147458591,15.1064934602611
0.00803583671309786,15.1091064975362
0.00671270898206544,15.1116087279018
0.00555407161638073,15.1141499865737
0.0045333880888134,15.1167601611685
0.00363217782167872,15.1194627792397
0.00286367846299203,15.1221730943051
0.00224546851203915,15.124722292632
0.00173946739598897,15.1271347769887
0.00131670233523732,15.1294420596318
0.000955693529950797,15.1316782137736
0.00064023537918835,15.1338806397755
0.000357085600729315,15.1360974413984
9.25469180987143e-05,15.1384140997268
-0.000178932420135668,15.1410838041808
-0.000367532127899568,15.1431398667767
-0.000541138819089707,15.1451959293726
-0.000680614831282127,15.1469704734537
-0.000799380586450125,15.1485724653004
-0.000909514845721149,15.1501353286477
-0.00101837903264376,15.1517546445732
-0.00113375950701322,15.1535521441105
-0.00127161015869306,15.1558081923389
-0.00151019027387972,15.1599794029528
-0.00171515081133851,15.1638163922715
-0.00188387220432155,15.1671397687667
-0.00205787320711112,15.170722875402
-0.00227070521869179,15.1753568706235
-0.00250028777865475,15.1808897007022
-0.00266815095312799,15.185954778908
-0.00275673405939263,15.1904932387722
-0.00275542894402309,15.1945553258742
-0.00265875430264116,15.1981951326218
-0.00246529394087875,15.2014806847612
-0.00217460968488336,15.2044809858468
-0.00178430636055892,15.2072628116708
-0.00128670856338102,15.209894334503
-0.00066328921623942,15.2124558373154
0.000132044203144316,15.2150756628833
0.00120314514506297,15.2179695985805
0.00257980310478165,15.2211141166171
0.00401890095769678,15.224030052733
0.00574437692156759,15.2272229884875
0.00695623671895509,15.2292893468916
0.00827134167041671,15.2313557052956
0.00954153078999286,15.2331649712312
0.0108880819512387,15.2348836500688
0.0123307119537376,15.2365138197439
0.0139203719014681,15.2380889595679
0.0156800188509377,15.2396063155589
0.0176439688754107,15.241072508941
0.0198392167409593,15.2424864798554
0.0222896673337899,15.2438456674978
0.0250319024145049,15.2451543939951
0.0281002765624135,15.2464139654599
0.0315305949758131,15.2476253481435
0.0353725148100451,15.248792930403
0.0396796892191306,15.249919865655
0.0445146204099893,15.2510094499117
0.0499508923916198,15.2520651359581
0.0560746616736972,15.2530903405905
0.0629915207154764,15.2540890559652
0.0708278705719444,15.2550652814917
0.0797385626446941,15.2560233515311
0.0899164228688742,15.2569681027162
0.101606015198344,15.2579050931996
0.115126449940026,15.2588410666692
0.130906355074053,15.2597845156028
0.149547651013242,15.2607468837372
0.171573906518245,15.2617293363598
0.197097283890618,15.262716697283
0.226805370157587,15.2637200983417
0.261635432227347,15.2647557788098
0.303036556656769,15.2658521013064
0.339583562126867,15.2667402519919
0.377993791987707,15.2676284026773
0.41186239570631,15.2684013773393
0.441346961698213,15.2690931092666
0.467125288934497,15.2697421844591
0.489300147327425,15.2703745498909
0.507545793321185,15.2710123354971
0.521059163819928,15.2716806231315
0.528180616608643,15.2724174967665
0.525763983759152,15.2732213156063
0.511885825018308,15.2740460127071
0.485187427294014,15.274907895156
0.443895467587371,15.2758188517
0.386042723225785,15.2767873529556
0.341476066310302,15.2774159601907
0.292297911470228,15.2780445674258
0.24852183602364,15.2785715588323
0.210989575408018,15.2790129010531
0.178009712212956,15.2794017445247
0.148465419265509,15.2797580103774
0.121681410012464,15.2800939589728
0.0971939656899119,15.2804184521251
0.0746259741240796,15.2807393412684
0.0535868886315313,15.2810657695255
0.0334746196828873,15.2814134328952
0.0123954560292416,15.2818339904971
0.00180596615599942,15.2820771765022
-0.00554549338020731,15.2822634785847
-0.0122650914096464,15.2824497806672
-0.0181619471007055,15.282629036501
-0.024180328117442,15.2828311987702
-0.0300443143646196,15.2830522402562
-0.0355714959260434,15.2832894981104
-0.0406598614249647,15.2835418967314
-0.0452554030167238,15.2838093980977
-0.0493328255494974,15.2840926865985
-0.052905127146962,15.2843957600987
-0.0558817675532232,15.2847121927346
-0.05834008504755,15.2850493805303
-0.060293711041622,15.2854101818301
-0.061756966197065,15.2857980338192
-0.0627439467797708,15.286217177862
-0.0632669990910682,15.2866728892736
-0.0633351064411338,15.2871718186385
-0.0629519265889587,15.2877225166721
-0.0621111825525874,15.2883374201399
-0.060792392873115,15.2890330168639
-0.0589529749906088,15.2898332840048
-0.0565060870073444,15.2907778236605
-0.0532475437179308,15.2919478846963
-0.0491694586389022,15.293360836762
-0.045206375544347,15.2947244373086
-0.0414151927266862,15.296045892729
-0.0378246216422407,15.2973281916358
-0.0344493707488006,15.2985725281315
-0.0312962834272286,15.2997791874911
-0.0283670185581337,15.3009480099122
-0.0256594415962154,15.3020786346023
-0.0231685007646168,15.3031706267079
-0.0208868820201327,15.3042235392275
-0.0188055563598584,15.3052369368574
-0.0169142611570269,15.3062103961442
-0.0152019287580787,15.3071434898248
-0.0136215187119099,15.3080569344103
-0.0120993426884074,15.3089936487259
-0.010640185070505,15.3099550155716
-0.00924802612546859,15.3109430753267
-0.00792666416737139,15.3119602159143
-0.00667966155099046,15.3130092612717
-0.0055102936171277,15.3140935834519
-0.0044214954124673,15.315217252902
-0.00341580623756512,15.3163852444438
-0.00249531169083204,15.3176037271019
-0.00166158231031351,15.3188804847666
-0.000915606929238918,15.3202255499468
-0.000257717036037077,15.3216522032378
0.000312505224179467,15.3231786429414
0.00078857829317066,15.3248006501732
0.00116133047847143,15.3264659534932
0.00144755213439866,15.3281928664066
0.00166197959304152,15.3300016181447
0.00181838641992638,15.3319190141506
0.00192996815396709,15.3339825938157
0.00200990352489952,15.3362491695796
0.0020723675621678,15.3388149821076
0.00213515852340474,15.3418772773877
0.00222040677830214,15.3456106134391
0.00233327181839634,15.3495252732441
0.00248391325123989,15.3537708401307
0.00264446260609177,15.357715688299
0.0028121390170643,15.3615257641352
0.00298566847189479,15.365296037072
0.00316486329144038,15.3690851780342
0.00335052228533744,15.3729360197718
0.00354424458378238,15.3768838538035
0.00374826211599065,15.3809604737063
0.00396531929932715,15.3851966009275
0.00419860993559918,15.3896235280938
0.00445180357660877,15.3942744920926
0.00472922174835626,15.3991861443381
0.00503622585462617,15.4043998533577
0.00537226459292373,15.4098406348293
0.00571688147916951,15.4151268399665
0.00607876031583088,15.4203611693203
0.0064578048640287,15.4254978079089
0.00685850098374177,15.430554306712
0.00728485601442144,15.4355351348926
0.00774163485662624,15.4404486317478
0.00823386615708123,15.4452998181287
0.00876702396549386,15.45009180925
0.00934707458736754,15.4548255325822
0.00998060644941153,15.4595003180063
0.0106766584671978,15.4641252227813
0.0114599238142238,15.4687879161047
0.0123448405446199,15.4734793060507
0.0133542284025182,15.478217921871
0.0145203707121966,15.4830392750669
0.015897468836922,15.4880283802616
0.0176036746788117,15.4934171151872
0.0200151530883575,15.5000197462256
0.0216294701029749,15.5040335123978
0.0233021965760439,15.50804727857
0.0247574287556624,15.5115835138314
0.025982760439887,15.5147712817257
0.0270024713869531,15.5178060918874
0.0277842145942947,15.5207284058113
0.0282994009606391,15.5235480866363
0.0285422157865876,15.5263888125815
0.0284731204107559,15.5294226445853
0.0279445742710698,15.5330768384606
0.027132775899866,15.5362340519483
0.0260482368816784,15.539391265436
0.024962563169277,15.5420678567247
0.0238879737802991,15.5444811784452
0.0228135906098197,15.5467643953323
0.0217391239456544,15.54897701543
0.0206676102064388,15.5511515972455
0.0196027310965882,15.5533092435293
0.0185481260567328,15.5554651624425
0.0175072084418667,15.5576311565573
0.0164831171339837,15.5598169360554
0.0154787128772356,15.562030885779
0.0144965859254899,15.5642805582098
0.0135390665904948,15.5665730144709
0.0126082396113947,15.5689150682416
0.0117059501133973,15.5713134968368
0.0108338154417351,15.5737752085024
0.00999323740730158,15.5763073918895
0.00918540666081725,15.5789176851679
0.00841131639545309,15.5816143253693
0.00765064860264774,15.5844895944407
0.00690676068715796,15.587565568825
0.0061834522030735,15.5908668377978
0.00548472373720686,15.5944218440626
0.00481474643087386,15.5982635759709
0.00417778961090931,15.6024305380362
0.00357810469705717,15.6069681608394
0.00301974573399482,15.6119311400679
0.00250630499911446,15.6173878450717
0.00204067227953895,15.6234276670992
0.00162498295382609,15.6301713747064
0.00127478950371074,15.6374513049333
0.0010577935590432,15.6435943337125
0.000851203287841423,15.6515686193383
0.000695265272289232,15.6598947052227
0.000573654892903756,15.6690515450309
0.000485961254460411,15.6790515450309
0.000433779759087896,15.6890515450309
0.000408237897167948,15.6990515450309
0.000403195938747504,15.7090515450309
0.00041478715749457,15.7190515450309
0.000441073207463216,15.7290515450309
0.000481795287511064,15.7390515450309
0.00053671164327935,15.7487978972276
0.000603309266737604,15.7577932660397
0.000681544263647427,15.766079645721
0.0007721294565393,15.7737151509006
0.000876247497655081,15.7807536731747
0.000995439735164662,15.7872446905303
0.00113156726421396,15.7932337567871
0.00128680885255724,15.7987629176708
0.00146367980026697,15.8038710491729
0.00166506406144127,15.8085941523462
0.00189425953788399,15.8129656232188
0.0021550368574869,15.8170165048834
0.00245171565843161,15.8207757218258
0.00278926125952699,15.8242703116635
0.0031734138492733,15.8275256717902
0.00361086080354687,15.8305658316757
0.00410947588951815,15.8334137677299
0.00467866449819303,15.8360918040384
0.00532988406636391,15.8386221658618
0.00606512529140119,15.8409915069152
0.00688310002981881,15.8431938075717
0.00779918363284205,15.845272110296
0.00883882680049437,15.8472750077822
0.0100501278102197,15.8492698793133
0.0115544178682136,15.851396642592
0.0132476595044147,15.8534831961001
0.0146704572097858,15.8550778832174
0.0161692243708685,15.8566725703347
0.0175056099250136,15.8580754682091
0.0186916742281522,15.8593558377413
0.0197474857789247,15.8605801123548
0.0206694979076937,15.8617926291783
0.021438647725967,15.8630346690429
0.0220181399403991,15.8643607206984
0.0223342120538031,15.8658748385437
0.0221518729582243,15.8679480041482
0.0215185994040078,15.8696361690053
0.0205320273420362,15.8713243338624
0.0194271826278195,15.8728315528973
0.0182073184637257,15.8743057540309
0.0168786459599081,15.8758084648006
0.0154506889875747,15.8773774028727
0.0149850034785778,15.8778869544262
0.0145229113686118,15.8783965059798
0.0138608543238783,15.8791467771838
0.0117171722182357,15.8817797176193
0.00972692208844165,15.8845878308924
0.00812333376440691,15.8872098223026
0.00679567598650709,15.8897198103836
0.00563167785536895,15.8922681659155
0.00460504874570062,15.8948850717164
0.00370351640758951,15.89757471786
0.00296642622698894,15.9001450272655
0.0023526764009276,15.9026281205498
0.0018286258255009,15.9050736194177
0.00136483660617239,15.9075626652055
0.000925640087225184,15.9102824022916
0.000562293562726544,15.9128724089471
0.000308101474017125,15.9149104446493
7.77388229677292e-05,15.9169484803515
-0.000111025714973136,15.918773909648
-0.000276746791338605,15.9205061197638
-0.000432657773575167,15.9222576769206
-0.000588960642234429,15.9241426868765
-0.000760056619566267,15.926366007472
-0.000997224797642982,15.9297453146593
-0.00123213735968138,15.9334570882809
-0.00141411132183243,15.936596363937
-0.00158512337889303,15.9397667451007
-0.00176900898682942,15.9434336664284
-0.00198269654400865,15.9481064670041
-0.0021985122945167,15.9536059464858
-0.00233782441867321,15.958411785974
-0.00239987125946478,15.9627895041984
-0.00237410327555451,15.9667458828976
-0.00225411786285421,15.9703350570759
-0.00203661340757282,15.9736062695931
-0.00171880808254228,15.9766219673173
-0.00129497642782359,15.9794499244115
-0.000751059291620186,15.9821711537155
-5.48849680127353e-05,15.9848951460149
0.000877241167304772,15.9878283343343
0.00209159549543766,15.9909865564809
0.00363285179034224,15.9944096351877
0.00535642639928636,15.9977712011546
0.00654266812275178,15.9998577024304
0.00784444968848047,16.0019442037062
0.0091478891913504,16.0038229637928
0.0105272692709393,16.0055944151657
0.0119973924505554,16.0072609047237
0.0136080048372854,16.0088604291371
0.0153873180227027,16.0103986828688
0.0173640979744119,16.0118795842
0.0195661021828655,16.0133046861299
0.0220251896591078,16.0146769567589
0.0247681405595646,16.0159954776148
0.0278353873038261,16.0172650527696
0.0312672633503968,16.0184880949628
0.0351095624578671,16.0196672508478
0.0394157864449191,16.0208056169887
0.0442513444267926,16.021907145231
0.0496913924858173,16.0229753967853
0.0558253548046757,16.0240141055848
0.0627604432091022,16.0250271802968
0.0706275244428089,16.0260188907818
0.0795892444834836,16.0269940437822
0.0898501546158534,16.0279580553642
0.10167464440063,16.028917382875
0.11541527358506,16.0298801085141
0.131563291824533,16.0308570450476
0.150846014857615,16.0318638748323
0.17321685584521,16.0328745251718
0.199231662800682,16.0338978027163
0.229692415808188,16.0349492011928
0.265778332623291,16.0360532964949
0.307403154600542,16.0372015792597
0.347600868615591,16.0382356807246
0.38148859741363,16.0390858627747
0.410878323565614,16.0398355762516
0.436602543417995,16.040530824215
0.458814615793739,16.0411990112888
0.477282870015758,16.0418616302858
0.491398194960681,16.042540193353
0.499979266391776,16.043261965087
0.500651152524115,16.0440715949956
0.490739286629793,16.0449050891429
0.469030643873494,16.0457631001291
0.434069140346449,16.0466577056398
0.384199086374164,16.0475981635555
0.341382171523462,16.0482632031728
0.293179552821171,16.0489282427901
0.249937147775466,16.0494820974722
0.212861758564093,16.0499415096361
0.180274560681353,16.0503435651059
0.15106133684519,16.05071010926
0.124559855084167,16.0510542490704
0.100323852477807,16.0513851746054
0.078000325356899,16.0517106674223
0.0572432090093933,16.0520391542367
0.0375747584937915,16.0523835249094
0.0178157954764767,16.0527773644668
0.00944601927667376,16.0529645926861
0.00171976090919321,16.0531518209054
-0.00650093474737481,16.0533700901767
-0.0130758949847217,16.0535625431498
-0.018922653656979,16.0537506348513
-0.0248238659062288,16.0539610597811
-0.0305306729195407,16.0541900763835
-0.0358810600891266,16.0544352925811
-0.0407853967509029,16.0546958247943
-0.0451970716036414,16.0549717794294
-0.0490874797108518,16.055263961447
-0.0524204706122421,16.0555713258521
-0.0552289288426595,16.0558973993793
-0.0575289105674239,16.0562450444754
-0.0593332983454624,16.0566171824831
-0.0606559951460545,16.0570174015297
-0.0615103984510106,16.0574501262955
-0.0619079146794382,16.0579208594366
-0.0618563622868203,16.0584365418486
-0.0613579536654319,16.0590061401664
-0.0604038000337591,16.0596430329205
-0.0589710511272425,16.0603643443997
-0.0570132738992653,16.0611956240318
-0.0544356573385906,16.0621798553384
-0.051008084565769,16.0634089011393
-0.0470093096037381,16.0648030540974
-0.0431436209111828,16.0661493276355
-0.0394607641162531,16.0674531686457
-0.0359844329894712,16.0687173371309
-0.0327262895610711,16.0699429626832
-0.0296909724877159,16.0711303419413
-0.0268783857546826,16.0722793611475
-0.0242849550363518,16.0733897182267
-0.0219044572836648,16.0744610373184
-0.0197286568043744,16.0754929230561
-0.0177478391477121,16.0764849791996
-0.0159512769591222,16.0774368048381
-0.0143276391936499,16.0783479753729
-0.0127740843368422,16.0792740882896
-0.0112814678277661,16.0802240687105
-0.00985395406368939,16.0811997556114
-0.00849542937452525,16.0822033695618
-0.00720956507327016,16.0832375243643
-0.00599976639444216,16.0843053263367
-0.00486911986079091,16.0854105054174
-0.00382033827369803,16.0865575929303
-0.0028557031023191,16.0877521685683
-0.00197700353245088,16.0890012135439
-0.00118547055945063,16.0903136331246
-0.00048170293620424,16.0917010625869
0.000134421253016521,16.0931791761647
0.000663860153736795,16.0947699581891
0.00108792325583123,16.0964133450138
0.00141834285120566,16.0981101076407
0.00167063501589405,16.0998788174363
0.00185908128052459,16.1017429254717
0.00199722987916827,16.1037343645652
0.0020983906724023,16.1058996370592
0.00217644066013353,16.1083131144404
0.00224759507570941,16.1111124877215
0.00233653133664671,16.1146355529057
0.00245008436868208,16.1184127645758
0.00258872872990717,16.1222013470108
0.00275178372506776,16.1260428396444
0.00293577558598227,16.1299738820291
0.00313716421680101,16.1340269500779
0.00335363908850335,16.1382329820386
0.00358454831195448,16.1426231058856
0.00383090610310387,16.1472301479298
0.00409526686265274,16.1520900445067
0.00438166645095446,16.1572431924167
0.00469581305021114,16.1627358025769
0.0050220779450769,16.1682276327471
0.00535726482898296,16.17361643859
0.00570477339923798,16.178911919692
0.0060673282787204,16.1841096911181
0.00644887645320959,16.1892217486989
0.00685344886345223,16.1942574003489
0.00728534381505405,16.1992249634139
0.0077490729368396,16.2041299875397
0.00824948133493215,16.2089757830087
0.00879185749092591,16.2137637152416
0.00938205977538309,16.2184936314613
0.0100266376473123,16.2231642373317
0.0107363027790207,16.2277943573307
0.0115347708533862,16.2324608782925
0.0124373157057429,16.2371577086376
0.0134676430512054,16.2419047610202
0.0146599679081675,16.2467418353964
0.0160732218810633,16.2517648237545
0.0178416700594793,16.2572444305326
0.0202572041396096,16.2637567603605
0.0218387837541876,16.2676564612904
0.0234666448167202,16.2715561622203
0.024890627166455,16.2750331906426
0.0260916432754413,16.2781944507212
0.0270875926484739,16.2812211316969
0.0278381667509438,16.2841257336742
0.0283225693967021,16.2869414605824
0.028532205659488,16.2897945058182
0.0284212657756302,16.2928691043165
0.0278113322628699,16.2966721716462
0.0269837905667548,16.2997223807661
0.0259093046858199,16.3027725898861
0.0248277775981191,16.3054055053971
0.0237535065232923,16.3078006173963
0.0226788469130491,16.3100747313865
0.0216042836484455,16.3122827035146
0.0205330000128883,16.3144554021145
0.0194686893689924,16.3166131328883
0.0184149684996615,16.3187706733001
0.0173752184591004,16.3209395806934
0.0163525441563189,16.3231294267046
0.0153497719365236,16.325348529098
0.0143694597249088,16.3276044215171
0.0134139060064567,16.3299041882709
0.0124851645941191,16.3322547029623
0.0115850526853503,16.3346628330312
0.0107151591047391,16.3371356176579
0.00987686066225881,16.3396804098162
0.00907132371227255,16.342305058934
0.00829879181740567,16.3450207252133
0.0075395197847475,16.3479192185597
0.00679741268029381,16.3510211924907
0.00607627753375978,16.3543516958418
0.00538012369108501,16.3579396850683
0.00471312237598653,16.3618187580464
0.00407952876198931,16.3660281584736
0.00348355787797406,16.3706142536597
0.0029291958285469,16.3756330035415
0.00241992076220304,16.3811546838822
0.00195847215332087,16.3872715059824
0.0015472635053448,16.3940997650866
0.00126700314742891,16.3999631832508
0.00105596661007731,16.405826601415
0.000840033945432697,16.4138275533124
0.000671532133240275,16.4223790978494
0.000542329457673238,16.4315288256537
0.000446228136598875,16.4415288256538
0.000385059115762103,16.4515288256538
0.000349332639115115,16.4615288256538
0.000332265322299423,16.4715288256538
0.000329253985397921,16.4815288256538
0.000337417171223878,16.4915288256538
0.000355195381250547,16.5015288256538
0.000382070733996326,16.5115288256538
0.000418434205497671,16.5215288256538
0.000465605567244749,16.5315288256538
0.000522194897184448,16.5409491042192
0.000587754018804609,16.5496501859589
0.000662969865498337,16.5576815935606
0.000748897032886319,16.5650959302505
0.000846853786747472,16.5719419888391
0.000958394095140218,16.5782649003376
0.0010853110288331,16.5841064798545
0.00122965506985767,16.5895055187667
0.00139376157427719,16.594498030746
0.00158028425489736,16.5991174753597
0.00179223780537051,16.6033949659144
0.00203304846229956,16.6073594639196
0.00230661749537672,16.6110379607801
0.00261739897738302,16.6144556584644
0.00297049920301542,16.6176361567233
0.00337180558436338,16.6206016498129
0.00382815701963461,16.6233731422891
0.00434757845594206,16.6259707037923
0.00493961401234971,16.6284137883454
0.00561582102665617,16.6307216646395
0.00637011863123235,16.6328611830738
0.00720530581236199,16.6348455351013
0.00813472556841297,16.6367104846459
0.00917905221716543,16.6384935433722
0.010373793956193,16.6402408024858
0.0117994326967939,16.6420353977757
0.0137816296382666,16.6441769406115
0.0154625176808954,16.6457844168636
0.0172729728775123,16.6473918931156
0.0188538837671493,16.6487505550024
0.0202436048674949,16.6499579053243
0.0214881428204258,16.6510970012186
0.0225932409508177,16.6522148375871
0.0235447012532409,16.653350059721
0.0243110513222786,16.6545488931799
0.0248312006300714,16.6558905289784
0.0249463925827242,16.6575990726607
0.024462244197755,16.6593454660564
0.0234697738419367,16.6610918594521
0.0223437709409672,16.6625543103197
0.0210853253590245,16.6639628868335
0.0196929290322182,16.6653993135118
0.0181753413563216,16.6669049057603
0.0165391524627584,16.6685174496204
0.0151475162444444,16.6699452131335
0.0127508267803611,16.6726600848968
0.0105182294411434,16.6755864674539
0.00875825445453062,16.6782814873284
0.00734763445972543,16.680792153204
0.00613197581155348,16.6833036715835
0.00506538958715072,16.6858728527846
0.0041268212288795,16.6885244298958
0.0033000008533514,16.6912815768641
0.00258692061817694,16.6941016657192
0.00201562094353981,16.6967704374094
0.00154744207222742,16.6993267279772
0.00115288328551516,16.7018236999414
0.000810395778244836,16.7043215299994
0.000503158026579453,16.7068967773193
0.000212401353463819,16.7097032304588
-4.52642149921413e-05,16.7125661339633
-0.00021650042715019,16.7147050616595
-0.000372475276195384,16.7168439893558
-0.000499987023584279,16.7187433555153
-0.000611444317739818,16.7205247989381
-0.000716166453539499,16.7223087965023
-0.000821011096289058,16.7242077328037
-0.000935036816824094,16.7264068493912
-0.00108526641451469,16.7295248528655
-0.0012617254783299,16.7335173299299
-0.00139615040827327,16.736808914064
-0.00151839112456161,16.7400029308161
-0.00164804197219871,16.7436301033173
-0.0017954603781116,16.7481613612943
-0.00194373945328115,16.7535994472741
-0.00203032667223907,16.758338245809
-0.00205120028073542,16.7626308007139
-0.00199602948537563,16.7664953937842
-0.0018570659929175,16.7699902069987
-0.00162760326907871,16.7731842838205
-0.00129992205190279,16.776148425351
-0.000864601859534477,16.7789411666907
-0.000308832909232128,16.78161584533
0.000388733790664855,16.7842352135057
0.00127091521463765,16.7868942366085
0.00243589329796322,16.7897669004476
0.00395196118803555,16.7928744520891
0.00577891394044785,16.7960412093427
0.00713829377214494,16.7981037480113
0.0086591471012741,16.80016628668
0.0102129460544427,16.8020363232715
0.0118236910603361,16.8037505626882
0.0135598889500246,16.8053765013206
0.0154320817420291,16.8069109802708
0.0174959488887129,16.8083849426499
0.0197738471954457,16.809796941978
0.0223080765287692,16.8111566822975
0.0251283018289748,16.8124639062165
0.0282784593569828,16.8137238262799
0.0318015555012683,16.8149387783805
0.0357440483614426,16.8161107116081
0.0401664321364377,16.8172438345701
0.045135484321521,16.8183413879
0.0507298863709957,16.819406823823
0.0570423343457331,16.8204436671873
0.0641881790900778,16.8214562733753
0.0723067220422648,16.8224490666439
0.0815715405438133,16.8234270349014
0.0922037436533701,16.8243960074109
0.104492009512063,16.8253630328781
0.118830242788254,16.8263373490734
0.135780415671552,16.8273316642595
0.15584069798626,16.8283480678486
0.17910989966822,16.8293704468087
0.206247116669733,16.830411673926
0.238173119314711,16.831490770947
0.276340253827649,16.8326405542472
0.318444633651608,16.8337969561073
0.355017213430359,16.8347511005472
0.386392449592677,16.8355639292122
0.413860925364885,16.8362993584543
0.437835789839415,16.8369920191564
0.458274002561516,16.8376654310665
0.474799307562075,16.8383400096685
0.486632016409948,16.8390378354924
0.492308146098426,16.8397887393034
0.489069260188657,16.8406212955364
0.474918120508462,16.8414669009423
0.448643206791624,16.842339582822
0.408760681637068,16.8432497977831
0.353637126033139,16.8442079366142
0.313643306578647,16.8447980926158
0.269914562155106,16.8453882486174
0.230494562920164,16.845892586272
0.196073080355582,16.8463243384797
0.165449056363559,16.8467103567093
0.137800425302734,16.8470674229746
0.112602352000905,16.8474064325045
0.0894741311151024,16.847735673032
0.0680871610928028,16.848062884586
0.0480745357992157,16.8483976385475
0.0288122299871211,16.8487576272928
0.0079864399879833,16.8492101539877
-0.000591043403271244,16.8494246161436
-0.00837491234819178,16.8496390782994
-0.0146877914530538,16.849830684365
-0.0205424806788751,16.8500263631975
-0.0263770822037089,16.8502433735462
-0.0319685634658138,16.8504783116473
-0.0371774615173274,16.8507292072874
-0.041927575919037,16.8509954544667
-0.0461791805569147,16.8512773531379
-0.0502245498783169,16.8516045981803
-0.053346415432488,16.8519204332218
-0.0559504870945684,16.8522559066215
-0.0580526429725097,16.8526140029932
-0.0596661545080066,16.852997869436
-0.0608047365398216,16.853411369961
-0.0614810802080437,16.8538592770603
-0.0617053700816076,16.8543475467552
-0.0614836112538164,16.8548837324323
-0.0608146304694285,16.8554782155013
-0.0596852256639849,16.8561453669061
-0.0580661703023292,16.8569046014057
-0.0558991632268049,16.8577858153676
-0.0530612780106871,16.8588423663129
-0.0492159996675881,16.8602050789984
-0.045277775676743,16.8615769080122
-0.0414974495044554,16.8629032356854
-0.0379121834417407,16.864188132125
-0.034539686585296,16.8654336629087
-0.0313881506682137,16.8666406187589
-0.028459862302293,16.8678091415126
-0.0257529743224582,16.8689390573924
-0.0232625564825044,16.8700300516293
-0.0209813361756192,16.871081756635
-0.0189002898840447,16.8720937907579
-0.0170091476729194,16.873065767139
-0.0152968339642754,16.8739972832467
-0.01371114434641,16.8749120985159
-0.0121837873023549,16.8758502153111
-0.0107194945357596,16.8768130596964
-0.00932223393840933,16.8778026908344
-0.00799578469404501,16.8788215189026
-0.00674368324165067,16.8798723945629
-0.00556917158968598,16.8809587227353
-0.00447514310286488,16.8820846152315
-0.00346408567308751,16.8832551001798
-0.00253802174331091,16.884476417087
-0.00169844392286255,16.885756445791
-0.000946243658627597,16.8871053539998
-0.000281628035370295,16.8885366210648
0.000295985100052252,16.8900687537266
0.000778852883185804,16.891692785827
0.00115943811288132,16.8933609878783
0.00145454007060418,16.8950916790289
0.00167899612139183,16.8969053601257
0.00184674166447719,16.8988292554424
0.0019712327783182,16.9009016158733
0.00206608378363223,16.9031805947184
0.00214626978342124,16.9057654022608
0.00223138087042701,16.9088620781846
0.00234357246665401,16.9125960756717
0.00247974221782579,16.9163762768402
0.00264041642440237,16.9201749346695
0.00282317991247555,16.9240342633981
0.00302445476572846,16.9279897786854
0.00324139583320287,16.9320734479028
0.00347265753981155,16.936316040529
0.00371855070587661,16.9407488256933
0.00398094400431458,16.9454049913915
0.00426314026732433,16.9503210664008
0.00456989048091671,16.9555381738701
0.00490747778378471,16.9610993316128
0.00524694181191457,16.9664647767277
0.00560033495330133,16.9717894116175
0.00596643166309465,16.9770055827481
0.00635001187590842,16.9821370258183
0.00675477204943264,16.9871872832793
0.00718521802794724,16.9921666976275
0.00764594609696313,16.9970814515968
0.00814190254792675,17.0019359559125
0.00867841731807348,17.0067322757211
0.00926134190401937,17.0114707308922
0.00989717099523732,17.0161502920279
0.0105938525788698,17.020773395571
0.0113770220154019,17.0254353929606
0.0122606720013598,17.0301253049661
0.0132673568839665,17.034861379904
0.0144287604499503,17.0396777992176
0.0157976688037478,17.0446562680209
0.0174867922450471,17.050017203218
0.0198987353139307,17.056651160781
0.0215251680025353,17.0607054856841
0.0232141672614272,17.0647598105873
0.0246803968118655,17.0683164192286
0.0259141607766217,17.0715132727128
0.0269420192913448,17.0745511223616
0.0277343399273776,17.0774796911216
0.0282598736482522,17.0803012043699
0.0285136747726017,17.0831386750399
0.0284580712056077,17.0861607414566
0.0279538239963481,17.0897735526696
0.0271471985309747,17.0929665141242
0.0260591289638383,17.0961594755788
0.0249720747594999,17.0988500571435
0.023897381587039,17.1012691342629
0.0228230498762526,17.1035553536813
0.0217485376538654,17.1057696920414
0.0206768360101889,17.107945225122
0.0196116227081586,17.1101033005104
0.0185565428389379,17.1122592631491
0.0175150176376002,17.1144249995063
0.0164901941179748,17.116610274156
0.0154849407798076,17.1188235084871
0.0145018551265507,17.1210722799168
0.0135432741646938,17.1233636666007
0.0126112892096364,17.125704492496
0.0117077511635589,17.1281015413795
0.0108342832284031,17.1305617225979
0.00999229237632262,17.1330922227581
0.00918297448631167,17.135700672305
0.00840732727059499,17.1383952963454
0.00764580127693479,17.1412650923146
0.00690087597311605,17.1443349242787
0.00617634675635982,17.1476292049694
0.00547619634751668,17.1511762078722
0.00480457635855254,17.1550086999723
0.00416573492506339,17.1591648848378
0.00356390056109135,17.1636897625777
0.00300310200167272,17.1686373755323
0.00248690123601869,17.1740750365284
0.00201814222021496,17.1800903826718
0.0015988787178251,17.186801229359
0.00124355711144647,17.1940636273754
0.000959706883491258,17.2020846513835
0.000787512971807013,17.2088876648371
0.000620993270144897,17.2176662174504
0.000498241912502462,17.2266736393721
0.000403847298380791,17.2366736393721
0.000342168980779772,17.2466736393721
0.000304192795526739,17.2566736393721
0.000283386063758598,17.2666736393721
0.000275195375399278,17.2766736393721
0.000276628488047385,17.2866736393721
0.000285869017920812,17.2966736393721
0.000301975520502438,17.3066736393721
0.00032469177258388,17.3166736393721
0.000354363747590194,17.3266736393721
0.000391952880429564,17.3366736393721
0.00043914942051002,17.3466736393721
0.000494716855358103,17.3560736478136
0.000558592757041004,17.3647583164207
0.000631640267368806,17.3727771964126
0.000714998386156751,17.3801821329863
0.000810019812287962,17.3870212806856
0.000918263883075692,17.3933392466241
0.00104150991659213,17.399177406633
0.00118178014243653,17.4045741767181
0.00134136908848177,17.4095652456177
0.00152287779258559,17.4141837866767
0.00172925572874874,17.418460655789
0.00196385009218613,17.4224245776225
0.00223046673325172,17.4261023211607
0.00253344438187063,17.4295188733629
0.00287774867204354,17.4326976177807
0.0032690930187051,17.4356605211402
0.00371409725227285,17.4384283359699
0.00422050367682991,17.4410208356286
0.00479748042636853,17.4434571032528
0.00545606527976548,17.445755912648
0.0061951070095552,17.4478973093386
0.00701243311426545,17.4498776316894
0.00791979103166671,17.4517313380391
0.00893509412703743,17.4534937150206
0.0100877217403722,17.4552053463034
0.0114343149863008,17.4569258400148
0.0131949545519518,17.4588614346207
0.0150096182811168,17.4606092218121
0.0170067889384107,17.4623570090036
0.0187103265187105,17.463776048451
0.0201785367730101,17.4649970281718
0.021490559083421,17.4661321388988
0.0226623305133857,17.4672352032662
0.0236845311083202,17.4683450830234
0.0245308495765066,17.4695038754125
0.0251506736291737,17.470776740084
0.025428283997845,17.4723190200458
0.0250977160769132,17.4741532568181
0.0241497160110517,17.4759874935905
0.0230399966147949,17.4774684599659
0.021797244732222,17.4788664253366
0.0204147132660347,17.4802831227787
0.0189002898515711,17.4817635613005
0.0172612273892253,17.4833452597705
0.0155258617345346,17.4850744310472
0.0142185366475818,17.486471902925
0.0117527401466507,17.4894092497039
0.00971318204366025,17.4922453319453
0.00810421608010838,17.4948559607558
0.00678304849719098,17.4973456055221
0.0056290649977172,17.4998732691425
0.00461499187603835,17.5024690187103
0.00372207122370822,17.5051561975319
0.0029351977584878,17.5079581706563
0.00228025937005617,17.5107217595109
0.00175506340941792,17.5133269645887
0.00132346972207025,17.5158155835964
0.000959861865453242,17.5182303037874
0.000647798845121174,17.5205989194718
0.000377158437229648,17.5229300295163
0.00014001740302789,17.5252312992356
-7.27970064400285e-05,17.5275429138717
-0.000274250815840801,17.5299833635197
-0.000497268117379176,17.5330166416382
-0.000622891119332891,17.5348972827707
-0.000740419640116146,17.5367779239032
-0.000840843734855297,17.5384816256169
-0.000930540912299606,17.5400804939954
-0.00101645860407767,17.5416807477894
-0.00110413722892193,17.5433827134961
-0.00120134305635633,17.5453492925193
-0.00133154449108139,17.5481091344072
-0.00149738535022931,17.5518179067882
-0.00162958444135655,17.5549182084217
-0.00175174691131412,17.5578908233307
-0.00188593959772774,17.5612780274475
-0.00204921024302298,17.5656027135229
-0.00224862114514135,17.5714034142034
-0.00238551648364277,17.576391976699
-0.00245720210884272,17.5808685765139
-0.00245220584717596,17.5848567517095
-0.00236280416774099,17.5884488602343
-0.0021821837184494,17.5917295613087
-0.00190415834475083,17.5947610099614
-0.00152472518839945,17.5975775579783
-0.00103886769925685,17.6002203880614
-0.000432579768475306,17.6027567749202
0.000333255074551323,17.6053030408689
0.0013455665945345,17.6080373920368
0.00269088062618953,17.6110532836708
0.0044044542154428,17.6143336996915
0.00588586400591866,17.6168541491208
0.00752526450711468,17.6193745985501
0.00899600600713727,17.6214059808434
0.0104592411482875,17.6232172277269
0.0119675865171344,17.6248782878778
0.0136055621063285,17.6264698384955
0.0153920861191264,17.6279892777072
0.0173747696161134,17.6294564607389
0.0195748646151949,17.6308666016909
0.0220316674259765,17.6322266105039
0.0247721722878014,17.6335344840949
0.027837367588052,17.6347944747947
0.0312684066606945,17.6360087765652
0.0351104500372618,17.6371794666855
0.0394165405920682,17.6383093630436
0.0442520345009229,17.6394023536552
0.0496911245157888,17.6404617999086
0.0558218080150388,17.6414912558683
0.0627495434960551,17.6424944941182
0.0706007926236491,17.6434754010415
0.0795338939162601,17.64443860057
0.0897452836291863,17.645389091584
0.10148569183996,17.6463327015627
0.11508387271591,17.6472765286697
0.130985819406885,17.6482296676682
0.149827934921222,17.6492046868214
0.171974747600286,17.6501952260047
0.197662892613636,17.6511927836431
0.227610469925227,17.652209615159
0.262815307275205,17.6532639861089
0.304880513888492,17.6543890523358
0.340184744830166,17.6552604664898
0.377024207238542,17.6561318806437
0.409761963640982,17.6569010846284
0.438371683310472,17.6575961255275
0.463351542607249,17.658251754429
0.484719751063084,17.6588926414124
0.502093393431148,17.6595406017218
0.514605424585485,17.6602208623504
0.520491759591155,17.6609720352001
0.516642133753567,17.6617837185206
0.501316335505083,17.6626165287968
0.473137599334365,17.6634857965587
0.430368479428475,17.6644024783259
0.371115232458026,17.6653754474214
0.328262766227239,17.6659741991427
0.281447048699748,17.6665729508641
0.239586757595965,17.6670808393044
0.203376915382602,17.6675119439884
0.171371962276884,17.667895219533
0.142600933886623,17.6682485172985
0.116458096071315,17.668583201361
0.0925140219297012,17.6689077748937
0.0704061457939205,17.6692300850188
0.0497377016165007,17.6695597753822
0.0298415363846651,17.6699147098111
0.00820823817888718,17.6703643552861
-0.000423112117698677,17.6705710150431
-0.00826653815909304,17.6707776748001
-0.0146604720899855,17.6709630200673
-0.020622940546292,17.6711531627174
-0.0265799529608761,17.6713643960963
-0.0322994242283831,17.6715933188634
-0.0376360247140607,17.6718379596373
-0.0425098845397323,17.6720976919093
-0.0468801689903727,17.6723727853356
-0.0507258925478653,17.6726641602302
-0.0541805473506639,17.6729887415752
-0.0569101819291915,17.6733158419356
-0.0591272011393459,17.6736647641128
-0.0608473850108149,17.6740387997171
-0.0620850161594476,17.6744417225483
-0.0628534625103147,17.6748781967609
-0.0631636698700853,17.6753540502145
-0.0630224511025182,17.6758766819925
-0.0624298581928576,17.6764560136316
-0.0613736913640603,17.6771062929869
-0.059825605313511,17.6778465131376
-0.0577283546739084,17.6787058573934
-0.0549610752109779,17.6797361306859
-0.0511968209258727,17.6810625387919
-0.0471755954735739,17.6824490858738
-0.0432993856444455,17.6837907464636
-0.0396114488673533,17.6850916384279
-0.0361326977284925,17.6863538425578
-0.0328735163672888,17.6875781093063
-0.0298379091438688,17.6887645157701
-0.0270254463774142,17.6899128164032
-0.0244323705066524,17.6910226272766
-0.0220523545037461,17.6920935200709
-0.0198771022120914,17.6931250648172
-0.0178968633878987,17.6941168418353
-0.0161008892352873,17.6950684339324
-0.014477835766342,17.6959794049237
-0.0129248023558258,17.696905387607
-0.0114327460099092,17.6978552480681
-0.0100058281193853,17.6988308238353
-0.00864793440909464,17.699834333756
-0.00736273693402876,17.7008683901271
-0.00615364301948662,17.7019360979164
-0.00502374270515683,17.7030411858182
-0.00397575390939383,17.7041881839691
-0.00301196512302927,17.7053826708811
-0.00213417494514537,17.7066316265325
-0.00134362694944339,17.7079439548253
-0.00064093687191302,17.7093312894283
-2.60062358507433e-05,17.7108093025461
0.000502089608084164,17.7123999757436
0.000924683540013224,17.7140432003819
0.00125350927856625,17.7157398010267
0.00150404328302113,17.717508340453
0.00169051646763986,17.7193722621422
0.00182640650247207,17.7213634886693
0.00192491799979285,17.7235285062983
0.00199975658719522,17.7259416565842
0.00206681790691476,17.7287405601283
0.00215000247607395,17.7322627556408
0.00225667572836172,17.7360412340335
0.00240273444510015,17.7402288201316
0.00256793546805972,17.7442770351072
0.00274083095681475,17.7481309333375
0.00291976992795494,17.7519094914277
0.00310424026598713,17.7556835046361
0.00329474137687569,17.7595013105166
0.00349264102316615,17.7634008166107
0.00370000849303861,17.7674149258241
0.00391948004181145,17.7715744884541
0.00415417679169077,17.7759102370706
0.00440769220541095,17.7804541878374
0.00468420420040925,17.7852410456031
0.00498877540485432,17.790309613099
0.00532792334287294,17.7957039904295
0.00567793040555541,17.8009896050245
0.00604455867358129,17.8062221728172
0.00642808016892651,17.8113631071578
0.00683249002750432,17.8164228349953
0.00726182206216049,17.8214057803649
0.00772086885001663,17.826319953722
0.00821476181218965,17.8311708653089
0.00874906841888331,17.8359619970339
0.00932984756747963,17.8406946566958
0.00996376117662979,17.8453684132121
0.0106598902583919,17.8499923705116
0.0114429418790763,17.8546541668121
0.0123273436331249,17.8593446702135
0.0133358671453711,17.864082256758
0.0145006721584162,17.8689020949856
0.0158756273585965,17.8738883504226
0.0175771023996738,17.8792700504576
0.0199875369352756,17.8858795740876
0.0216043894834851,17.8899027804706
0.0232807849384399,17.8939259868537
0.0247385167959,17.8974669097482
0.0259657707143332,17.9006566991251
0.0269873412808777,17.9036921048982
0.0277714597107757,17.9066155846048
0.028288985418597,17.9094354073715
0.0285343036577209,17.9122750878063
0.0284683111462877,17.9153058584093
0.0279454463616801,17.9189498868382
0.0271348735509166,17.9221148738447
0.0260495841077887,17.9252798608512
0.0249636452117712,17.9279593167698
0.0238891016798099,17.9303735827548
0.0228148217317542,17.9326570629919
0.0217404583459903,17.9348695947446
0.0206690391272411,17.9370438443253
0.0196042470194093,17.9392009568386
0.0185497252371641,17.9413561549165
0.0175088916650874,17.9435212398553
0.0164848898032202,17.9457059097736
0.0154805851502478,17.9479185279056
0.0144985723717035,17.950166616727
0.0135411862354445,17.9524571973828
0.0126105155165269,17.954797033255
0.0117084089201943,17.9571928391355
0.0108364871551695,17.9596514451017
0.00999615436414284,17.9621799446209
0.00918860284951053,17.9647858581644
0.00841469471071369,17.9674777541475
0.00765360555309368,17.9703496969483
0.00690922991292652,17.9734218689066
0.0061853538985856,17.9767187973445
0.00548597212423895,17.9802688080574
0.00481524898341187,17.9841047369404
0.0041774462296034,17.9882648836576
0.00357680646252446,17.9927943949948
0.0030173727189925,17.9977475588031
0.00250272453774678,18.0031921029852
0.00203573167968986,18.009216384196
0.00161849419811707,18.0159394324032
0.00126586716610612,18.0232086562354
0.000985091951786261,18.0310866820359
0.000781359139416058,18.0393072497748
0.000635857006717318,18.0474617092091
0.000516433698373749,18.0568032065204
0.000430701973316395,18.0668032065204
0.000377381805026072,18.0768032065204
0.000348053746738999,18.0868032065204
0.000336741450173421,18.0968032065204
0.00033944577593542,18.1068032065204
0.00035379281341149,18.1168032065204
0.000378731392885958,18.1268032065204
0.000414338000498596,18.1368032065204
0.000461778887316024,18.1468032065204
0.000520270162971737,18.1563332996644
0.000588744442371537,18.1651265428847
0.000667822272344899,18.1732313217365
0.000758581241993504,18.1807035277668
0.00086241045390246,18.1875948770668
0.000980969885784027,18.193952975432
0.0011161882643973,18.1998217469726
0.00127027999948462,18.2052417971843
0.0014457741250184,18.2102507151095
0.00164555148394599,18.2148833423839
0.0018728929746902,18.2191720207903
0.00213153845041596,18.2231468235331
0.00242576194179004,18.2268357720228
0.00276046572023671,18.2302650525516
0.00314130377179622,18.2334592448102
0.00357484587468743,18.2364415703631
0.00406880204990266,18.2392341780675
0.00463234330875828,18.2418585011094
0.00527657854552524,18.2443357386245
0.00600480418626389,18.2466570419212
0.00681329418095819,18.2488086726562
0.00771560196975042,18.250830675707
0.0087334823809356,18.2527664386572
0.00990553956451098,18.2546710976604
0.0113175791023495,18.256642015748
0.0133709671053349,18.2590938414146
0.0148376548625969,18.2606556405319
0.016393767631499,18.2622174396493
0.0178150250743999,18.263613065665
0.0190751988001942,18.2648745940882
0.0202002729693527,18.2660724473561
0.0211906065101618,18.2672524433805
0.0220296887252178,18.268454664139
0.0226840138213329,18.2697290845891
0.0230881263793539,18.2711650334014
0.0230592527620978,18.2730370323895
0.0224884873959207,18.2748065533849
0.0214810667221794,18.2765760743802
0.020367814086793,18.2780786779188
0.0191378785273847,18.2795315289453
0.0177911845252761,18.2810102230617
0.0163366736414885,18.2825545603821
0.0154609595562346,18.2834789953719
0.0146025179337093,18.2844034303617
0.0134206042914648,18.285743606224
0.0111703784589948,18.2885698227729
0.00926660992483095,18.2913398782588
0.00774044810545111,18.2939161401245
0.00645560510713174,18.2964267186404
0.00532797264145418,18.2989837929482
0.00433351405972093,18.3016151221928
0.00345472552075877,18.3043441228056
0.00273246409287388,18.3069756336677
0.00214570050624449,18.3094618877183
0.00165984108402401,18.31183192307
0.0012487360026556,18.3141203395722
0.000892283874747266,18.3163685719041
0.000573762905132367,18.3186337124279
0.000275790251757518,18.3210191030445
-3.56135184902221e-05,18.3238447903849
-0.000235133411871529,18.3258658440165
-0.000418366705303612,18.3278868976481
-0.000568458445159806,18.3296712798754
-0.000697445565272471,18.3313039922177
-0.000817410678703347,18.3329088447023
-0.00093624374100544,18.3345833113592
-0.0010627650910182,18.3364606933646
-0.0012165603479547,18.3388748459968
-0.00146838472224617,18.343133390312
-0.00167377526721215,18.3468786508478
-0.00184399309207828,18.3501611949418
-0.00202169652437376,18.353764844322
-0.00223680835656442,18.3584154721185
-0.00246353915039711,18.363915904205
-0.00262417717686821,18.3689137974247
-0.00270423944202281,18.3734095253907
-0.00269324870855199,18.3774463454838
-0.00258592959923546,18.3810720392297
-0.00238100499579541,18.3843515739564
-0.00207839635622261,18.3873485839056
-0.00167509813895866,18.3901341103512
-0.00116166766056084,18.3927818536448
-0.000515490502914073,18.3953817785262
0.000317447051578075,18.3980761095455
0.00142974274379399,18.4010388588819
0.00285866839622386,18.4042728586193
0.00437977631863026,18.4073295659217
0.00567099779798241,18.4097166447433
0.00706917779964973,18.4121037235649
0.00839078535221044,18.4141601378325
0.00968978148845495,18.4159842992922
0.0110531146603011,18.4176937965959
0.0125272471411601,18.4193267400534
0.0141472067814171,18.4208977620068
0.0159436180015242,18.4224126185483
0.0179454917044717,18.4238735181099
0.0201833057342063,18.4252824277868
0.0226794883497139,18.4266359511616
0.0254720843851531,18.4279391440695
0.0285964188760893,18.4291935660348
0.0320904230629201,18.43040068713
0.036003451675184,18.4315643567052
0.0403913504524419,18.432688010614
0.0453185973608985,18.4337749987315
0.0508612480208539,18.4348288303751
0.0571086101672447,18.4358529932409
0.0641701906609258,18.4368515363771
0.072177803908332,18.437828583117
0.0812937006640791,18.4387886401613
0.0917212042164942,18.4397367968385
0.103720354450701,18.4406789907518
0.117634129149173,18.4416225506718
0.133930352897273,18.4425769314181
0.153280700843084,18.4435552778953
0.175925083417904,18.4445452386279
0.202203581518091,18.4455436186632
0.232864412001001,18.4465632232361
0.268959949210955,18.447623492112
0.312150722119726,18.4487589988641
0.346948486927452,18.4496071650576
0.383044677054986,18.4504553312511
0.415157500019935,18.451209250529
0.443259500505839,18.4518954912835
0.467758932900586,18.4525464593839
0.488613856133558,18.4531860044842
0.505381364861006,18.4538360828308
0.51709911915398,18.4545231646731
0.521783587032632,18.4552897767383
0.516299832411251,18.4561028218058
0.499148318576659,18.456939732101
0.468883745954101,18.4578152960173
0.423723297362686,18.458739896141
0.376395717585783,18.4595088744322
0.321111086379169,18.4602778527235
0.282422509507569,18.4607687385634
0.241928626681886,18.4612596244033
0.205568783605464,18.4616919267729
0.173343880332582,18.4620769137154
0.144389437943522,18.4624313048165
0.118093768782679,18.4627665855481
0.0940204514535504,18.4630913461183
0.0718045807372754,18.463413421206
0.0510535498464095,18.4637422752566
0.0311254231133915,18.4640950048843
0.00975121300715655,18.4645342891271
0.00057458593403302,18.4647513268544
-0.0077279931247807,18.4649683645817
-0.0141835143101892,18.4651544977966
-0.0201440153135318,18.4653435297533
-0.0261107459808531,18.4655538012661
-0.031848037899687,18.4657818731575
-0.0372069272553982,18.4660257059858
-0.0421053654333191,18.4662846281677
-0.0465012208329627,18.4665588779058
-0.0503733721496959,18.4668493508424
-0.0538871627783476,18.4671762037896
-0.0566372714408929,18.4675024855959
-0.0588737750100047,18.4678504482592
-0.0606128626038033,18.4682234053081
-0.0618688529432061,18.4686251052186
-0.0626551973333043,18.469060179391
-0.0629829775706909,18.4695344127619
-0.0628592044632133,18.4700551460873
-0.0622842841165868,18.4706321683605
-0.0612464809116964,18.4712796288904
-0.0597181396523934,18.4720162968185
-0.0576433040251499,18.4728709222124
-0.0549042085355332,18.4738942409756
-0.051186251008229,18.4752071418858
-0.0471636113093508,18.4765957191323
-0.0432833787710046,18.4779392182549
-0.0395900521364434,18.4792418656068
-0.0361051187894637,18.4805058032533
-0.0328392971200245,18.4817318114668
-0.0297968198679886,18.4829199807014
-0.0269774297219982,18.4840700702621
-0.0243775048461792,18.485181696812
-0.0219908255030783,18.4862544307321
-0.0198091782945708,18.4872878402639
-0.0178228737247383,18.4882815043351
-0.0160212038021373,18.4892350053667
-0.0143928475117912,18.4901479082541
-0.0128397740572169,18.4910727978198
-0.0113474738096156,18.4920215100572
-0.00992016234621714,18.4929958431593
-0.00856173679774217,18.4939979998447
-0.00727588392748617,18.495030572114
-0.00606602898938025,18.4960966394442
-0.00493528347774587,18.4971998980721
-0.00388639067524903,18.4983448361292
-0.00292166885591511,18.4995369766904
-0.00204295154332876,18.500783224814
-0.00125152345198607,18.5020923801562
-0.000548049379606421,18.5034759259578
6.75093136234468e-05,18.5049493070214
0.000596001547319833,18.5065341394152
0.00101983694249356,18.5081753397561
0.00134909107481936,18.5098690165056
0.00159931535748696,18.5116336767252
0.001784751777414,18.5134924533062
0.00191886164562278,18.5154767640758
0.0020147902209975,18.5176321932286
0.00208610395609098,18.5200312545659
0.00214836422270289,18.5228069995042
0.00222437522996781,18.5262794842658
0.00232407629469936,18.5300498659518
0.00245701005875003,18.5340696571824
0.00260714590441619,18.5379175578854
0.00277059317982403,18.5416966690183
0.00294443200152851,18.5454754148856
0.00312706720371476,18.5493012058397
0.00331824314638538,18.5532115132503
0.00351885989503906,18.5572391287125
0.00373075790803671,18.5614149865501
0.00395653485279878,18.5657700530686
0.00419942613985068,18.5703367164545
0.00446331692890788,18.5751502312518
0.00475295259861198,18.5802501384826
0.00507443663485806,18.5856815724249
0.00540860230158919,18.591059866717
0.00575623950002046,18.5963611476056
0.00611913847939773,18.6015714028664
0.00650049719112075,18.6066932156784
0.00690422976320995,18.611734382759
0.00733471482386579,18.6167035952933
0.00779663491151229,18.6216075619565
0.00829502461206747,18.626450802444
0.00883533638344637,18.6312355594034
0.00942355211095763,18.6359621800073
0.0100663091555514,18.6406296145151
0.0107749570406765,18.6452604038143
0.0115726461575075,18.649926970725
0.0124748823743674,18.6546242338413
0.0135054730421222,18.6593721580964
0.0146988638376,18.6642110264145
0.0161145443177373,18.6692380229938
0.0178891871829299,18.6747287426553
0.020304248026736,18.6812301397297
0.0218819184264501,18.6851174807405
0.0235045093732568,18.6890048217514
0.0249244501234701,18.6924749317665
0.0261221722055931,18.695632969843
0.0271148606621135,18.6986586345426
0.0278612112588074,18.7015607956776
0.0283414533892331,18.7043758106408
0.0285466231352335,18.7072302370834
0.0284300519594917,18.7103100020199
0.0278087405050391,18.7141338412469
0.0269790898785658,18.7171702967371
0.0259057213208584,18.7202067522274
0.02482472864242,18.7228335372934
0.0237506005826905,18.7252256997003
0.0226760665466858,18.7274980238826
0.0216017048757514,18.7297047516474
0.0205307181323091,18.7318765098738
0.0194668029204481,18.73403347815
0.0184135753825062,18.7361903543049
0.0173744152476983,18.7383586372309
0.0163524259667875,18.7405478505347
0.0153504328776921,18.7427662674262
0.0143709929022171,18.7450213775356
0.0134164039065942,18.7473202178177
0.01248871903244,18.7496696094561
0.0115897546633247,18.7520763600122
0.0107210988266386,18.7545474380426
0.00988412700315495,18.7570901133949
0.00908000376858622,18.759712135981
0.00830779351708065,18.7624288558425
0.00754892233835975,18.7653284741739
0.0068072877337313,18.7684317143499
0.00608670651674345,18.7717636439153
0.00539119880150236,18.7753532437748
0.00472494801991522,18.7792341437355
0.00409222305748646,18.7834456337733
0.00349725422405317,18.7880341571954
0.00294404499613951,18.7930558111068
0.00243609620113092,18.7985811157757
0.00197618088069031,18.8047027194213
0.00156697070769721,18.8115338055237
0.00131410688590876,18.816765365347
0.00111517630619941,18.8219969251704
0.000912414112213621,18.8290529842351
0.000739117383969527,18.8372046318355
0.000602343368880045,18.8461342308237
0.000498259095576681,18.8561342308237
0.000433117122539259,18.8661342308237
0.000396784697763978,18.8761342308237
0.000382097999729259,18.8861342308237
0.000384270994071711,18.8961342308237
0.000400484128850788,18.9061342308237
0.000429543791139892,18.9161342308237
0.000471676671544837,18.9261342308237
0.00052667492313498,18.9358399022371
0.000592436429316764,18.9448012079701
0.000669129205627104,18.9530605311689
0.000757563879551072,18.9606747107991
0.000858956254353161,18.9676965112296
0.000974840636438191,18.97417445813
0.00110704338134262,18.9801532921064
0.00125768692517387,18.9856743552537
0.00142921114314939,18.9907759069521
0.00162440558466365,18.9954934005886
0.00184645325458281,18.9998597372233
0.00209898596346482,19.0039055021744
0.00238615531947973,19.007659184097
0.00271272142944465,19.0111473902333
0.0030841699895017,19.0143950725702
0.00350686635482139,19.0174257727411
0.00398826591579431,19.0202618981253
0.00453721222847388,19.0229250626243
0.00516437622664893,19.0254365405089
0.00587810030748562,19.0278032917722
0.00667005337685996,19.0299920890751
0.00755266940214364,19.032042868162
0.0085458252564303,19.0339983977158
0.00968380553824595,19.0359106942825
0.0110388895849787,19.0378650088561
0.0128974915701722,19.0401631845573
0.0144153037306785,19.0418278790367
0.0160458563848956,19.0434925735161
0.0175118847709705,19.0449418286669
0.0188000962101798,19.0462287310913
0.0199498327009443,19.0474388306905
0.0209666115433555,19.0486221220534
0.0218372191112412,19.049818685333
0.0225324397643147,19.0510748676687
0.0229965500143562,19.0524668928888
0.023092510420665,19.0541949108822
0.0226243082063991,19.0560515792973
0.0216531942543622,19.0579082477123
0.0205631946674824,19.0594399056641
0.0193593426893151,19.0608961162818
0.0180380628437716,19.0623679498249
0.0166079483422173,19.0638981124956
0.0156300063162857,19.0649340554399
0.0146675832505345,19.0659699983842
0.0137753720820063,19.0669741064063
0.0115539490245483,19.0697120733117
0.00958917153364705,19.0725088170651
0.0080135463125111,19.075112215456
0.00670314449676256,19.077619031306
0.00555482707546619,19.0801670984912
0.00454298898173366,19.0827856718381
0.00364956074417225,19.0854982769448
0.00290889018862702,19.0881383157682
0.00229987248915831,19.0906698919375
0.00178753088548143,19.093135329144
0.00134318909730058,19.0955981942562
0.000939026876095768,19.0981763800544
0.000527064196099244,19.1012322612626
0.000271194942464221,19.1034042638567
4.10207186028143e-05,19.1055762664509
-0.000145054132624991,19.1075073248048
-0.000302609665547609,19.1092809585095
-0.000446926091700062,19.1110287822614
-0.0005877030056027,19.1128572958032
-0.000735322999480196,19.1149159307602
-0.000912637947100129,19.117593401721
-0.00119127071622035,19.1222816408382
-0.00140164004875341,19.1262396897866
-0.00157086835416129,19.1297019621039
-0.00174403613630386,19.1335285945799
-0.0019441389165128,19.1384104969786
-0.00212942072884589,19.1437708780915
-0.00224507496915681,19.1485042167806
-0.00228656185791496,19.1528061402235
-0.00224369801707224,19.1566942931405
-0.00210965979273919,19.1602214883205
-0.00188006544919046,19.163441322711
-0.00155100444717227,19.1664133113083
-0.00111509250967,19.1692070235058
-0.000556973578201648,19.1719011018265
0.000157669329136588,19.1746048782624
0.00111386480203117,19.1775161542415
0.00236849430653023,19.1806669054216
0.00394422924197111,19.1840282655588
0.00529107911199422,19.1865667940724
0.00678838308650014,19.189105322586
0.0081585293492374,19.1911853027783
0.0095460304303118,19.193068558866
0.0109944336703976,19.1948138768596
0.0125416664736687,19.1964568587743
0.0142434259563551,19.1980384012146
0.0161119373294187,19.1995493870338
0.0181908589185405,19.2010063935106
0.0205015509180424,19.2024058167151
0.023081822328088,19.2037538595685
0.0259645012014761,19.2050516142567
0.0291844670906588,19.2063001943879
0.0327887574695824,19.2075039266894
0.0368273469891187,19.2086657255552
0.0413581870565287,19.2097887243435
0.0464485050053435,19.2108761260326
0.0521811453844905,19.2119319733141
0.0586532274723921,19.2129600867878
0.0659821890723441,19.2139645534488
0.0743120509035264,19.2149498382183
0.0838221109051334,19.2159209234431
0.094742400017212,19.2168837589482
0.107373919957246,19.2178455262764
0.122126245302552,19.2188155002105
0.13958570670153,19.2198065455567
0.160193578648438,19.2208171930304
0.184101229959684,19.2218344798752
0.211988013749271,19.2228713160897
0.244803743573012,19.2239468315742
0.284058690272419,19.2250945274391
0.327322600611841,19.2262497077422
0.363895885442301,19.2271805331894
0.395167550932713,19.2279742017637
0.422517437752608,19.2286947943516
0.44634990132242,19.2293761108377
0.466600176473101,19.2300414340446
0.48285286623171,19.2307115168302
0.494251466174803,19.2314096853915
0.499152570394747,19.2321691795615
0.494670701362909,19.2329978144747
0.479033248821792,19.2338429416175
0.450956436763656,19.2347184866749
0.408881808850503,19.2356346441808
0.363881189566921,19.2364056153032
0.322392758804393,19.2370189106081
0.276716230601335,19.237632205913
0.23609225516895,19.2381470269435
0.2008469775596,19.2385838642804
0.169599042471543,19.238972420033
0.141445618940111,19.2393306023818
0.115823494161053,19.2396697817457
0.0923320532759061,19.2399984352546
0.0706333012394706,19.2403242981054
0.0503619246736735,19.2406566523189
0.0309262633587876,19.2410119529282
0.0103386434642939,19.2414472971363
0.000748367582750848,19.2416804875107
-0.00788314912725298,19.241913677885
-0.0142915011848447,19.2421052995674
-0.0201688674812572,19.2422987837956
-0.0260389451199581,19.2425136654951
-0.0316741966001519,19.2427465255136
-0.0369306783782348,19.2429953302938
-0.0417294771949608,19.2432594275303
-0.0460303341432639,19.243539081575
-0.0500918383432969,19.243860386356
-0.0532661034843636,19.2441734705689
-0.0559206238354541,19.244506031962
-0.0580707454467723,19.2448609681038
-0.0597297758865821,19.2452413806201
-0.0609115792715703,19.2456510798431
-0.0616290859485542,19.2460947721944
-0.061892801957075,19.2465783299693
-0.0617091399493674,19.2471091968467
-0.0610776388866692,19.2476974784056
-0.0599858619191984,19.2483573901016
-0.058405630532241,19.249107957799
-0.056280507590174,19.2499783432061
-0.0534920409056214,19.2510201207083
-0.0497223343480263,19.2523569468198
-0.0457615842456689,19.2537345025501
-0.0419528868414064,19.2550665123117
-0.0383363967470211,19.2563571036052
-0.0349311796603162,19.257608427393
-0.0317462897012461,19.2588213074167
-0.0287846477478773,19.2599958913142
-0.0260449064266547,19.2611319982407
-0.023522535886963,19.2622293012401
-0.0212105790397172,19.2632874198372
-0.0191002505310869,19.2643059615209
-0.0171814474731077,19.2652845324402
-0.0154431966033864,19.2662227283173
-0.0138510433650187,19.2671336738915
-0.0123163839892922,19.2680677475789
-0.0108441504834602,19.2690262346999
-0.00943833909345411,19.2700111418124
-0.00810276790174471,19.2710248132252
-0.00684102186081554,19.2720700175394
-0.0056564017152198,19.2731500561076
-0.00455187044603077,19.2742689080477
-0.00352999726540363,19.2754314284108
-0.00259289875894004,19.2766436260561
-0.00174217615100896,19.2779130653328
-0.000978846585296496,19.2792494682919
-0.000303264302511462,19.2806656587057
0.00028497642164735,19.2821791270146
0.000782468265842457,19.2837973665763
0.00117460681966675,19.2854567715723
0.00147863507203634,19.2871757286072
0.00170953198503385,19.2889738715281
0.00188130784777597,19.2908770831
0.00200739475276151,19.2929213332023
0.00210122228638072,19.2951604927732
0.00217724386015425,19.2976843763512
0.00225351179138309,19.3006717650718
0.00235571517306879,19.3044087975142
0.00248085885764925,19.3081874192352
0.00263156248053814,19.311996361189
0.00280582782258263,19.315875640834
0.0029999441466611,19.3198595866116
0.00321069668180081,19.3239797271354
0.00343632985685353,19.3282668896906
0.00367680416356315,19.3327527850442
0.00393373949019148,19.3374714500508
0.00421030402668861,19.3424606759231
0.00451123626619251,19.3477632712666
0.0048390984168048,19.3533590268895
0.00516942809387685,19.3587675348041
0.00551268257622493,19.3641216744635
0.00586838743311385,19.3693646713571
0.0062411387223376,19.374520003762
0.00663458508681893,19.3795930057824
0.00705303091219522,19.3845943137183
0.00750085350946611,19.3895304316394
0.00798274281708559,19.3944059184338
0.00850375785389876,19.3992230558479
0.00906946509624803,19.4039824346721
0.00968605664671253,19.4086832864412
0.0103604804694626,19.4133239552996
0.0111126432336046,19.4179734031027
0.0119601833196913,19.4226529854302
0.0129225491568998,19.4273713843124
0.0140275989271718,19.4321554002651
0.0153189656075276,19.4370659181956
0.0168808740318343,19.4422572832876
0.0189586935595842,19.4482591777124
0.0207469712216435,19.4528779231986
0.0226505654305008,19.4574966686849
0.0242273959879552,19.4612854426958
0.0255342735178277,19.4645777258905
0.0266294019460469,19.46765101572
0.0275107771969875,19.4706420042661
0.0281222397927794,19.4734863469474
0.0284658830343767,19.4763040368329
0.0285177379815248,19.4792415716555
0.0281894774830786,19.4825785596114
0.0271881499214314,19.486934345877
0.0262929218396867,19.489632674364
0.0252343734145066,19.492331002851
0.0241614370866511,19.4947913404066
0.0230873847696583,19.4971024974292
0.0220125328806306,19.4993310526358
0.0209396129107258,19.5015142550241
0.0198722472493704,19.5036755704548
0.0188141145021285,19.5058315159211
0.0177686950120049,19.5079946873628
0.0167392010795707,19.5101753036104
0.0157285660647548,19.512382087453
0.0147394488747026,19.5146228222353
0.0137742469884105,19.5169047217899
0.0128351070320919,19.5192347050144
0.0119239340940032,19.5216196135675
0.0110424065473556,19.5240663798443
0.010191978608817,19.5265822092803
0.00937389809091165,19.5291747158577
0.00858920857292206,19.5318521072837
0.0078244282579255,19.5346785659811
0.0070753052832715,19.5377002563695
0.00634567575052941,19.5409404971847
0.0056394767651283,19.54442666134
0.00496082394130523,19.5481904633086
0.00431395016601763,19.5522688376837
0.00370310335161445,19.5567051766233
0.00313237734895757,19.5615513758619
0.00260548587824052,19.5668713283483
0.00212545651483435,19.5727476737921
0.00169452685691107,19.579291071969
0.00132451341911462,19.5864270339689
0.00104132358140737,19.5939425296926
0.000854154888221152,19.60080805174
0.00067968217624199,19.6093409890169
0.000548712658047,19.6182026051547
0.000446473715222496,19.6282026051547
0.000380284250407693,19.6382026051547
0.000340290272705889,19.6482026051547
0.000319381443822542,19.6582026051547
0.000312643394763348,19.6682026051548
0.000316903216243333,19.6782026051548
0.000330316512320162,19.6882026051548
0.000352054987698775,19.6982026051548
0.000382127144936526,19.7082026051548
0.000421333557309466,19.7182026051548
0.000471215731205394,19.7281765343382
0.000529517839770431,19.7374115459802
0.000596627243171995,19.7459373620923
0.000673404369686827,19.7538086030703
0.000760998155065999,19.7610766602132
0.000860791726450091,19.7677890512534
0.000974391213951877,19.7739897769155
0.00110363724888591,19.7797196444292
0.00125062741867033,19.7850165369912
0.00141774591650066,19.7899156453805
0.00160769887059012,19.7944496809232
0.00182355841333867,19.7986490747571
0.00206881507528819,19.8025421640352
0.00234744264809423,19.8061553683523
0.00266397879936915,19.8095133671352
0.00302362712647952,19.8126392838343
0.00343239030293382,19.8155548797601
0.00389724651509505,19.818280769265
0.00442639260225265,19.8208366754366
0.00502959107894614,19.8232417520637
0.00571868674746228,19.8255150217787
0.00648366481192606,19.8276140324839
0.00733065009825564,19.8295630853645
0.00827351971244362,19.8313975055945
0.00933375196759049,19.8331544360267
0.0105485975504903,19.8348802999761
0.0120130840848756,19.8366714910968
0.0140831114958746,19.8388424290344
0.0156824131478337,19.8403328487787
0.0173944104961251,19.841823268523
0.0189854290686752,19.8431655654336
0.0203932098630924,19.8443649049282
0.0216549202760405,19.845495910042
0.0227765033036912,19.8466052176452
0.0237440911965892,19.847731272789
0.0245264961237536,19.8489198125773
0.0250631957708899,19.850248740113
0.0251983068275811,19.8519361930044
0.0247272513363787,19.8536791175085
0.023737169573287,19.8554220420125
0.0226092664713054,19.8568788272715
0.0213465990118506,19.8582812071447
0.0199474250159243,19.8597117611315
0.0184204358470778,19.861212017711
0.016772154380607,19.8628198999671
0.0150626869242924,19.8645637099357
0.012606691931426,19.8673577653264
0.0103960647310699,19.8702766194388
0.0086580192473562,19.8729585072717
0.00726334663102532,19.8754597777451
0.0060568618726825,19.877971884315
0.00499814144676961,19.8805432690999
0.00406652963803877,19.8831982636976
0.00324591301595324,19.8859600283497
0.00253452933742221,19.8888021293938
0.00196700090106651,19.8914833492369
0.00150379168869939,19.8940422522475
0.00111522833148925,19.8965293544893
0.000780835789335803,19.8989923651669
0.000486631726514248,19.9014735753014
0.000220978691932962,19.904030511643
-3.38443147022323e-05,19.9068322871565
-0.000238882601645407,19.9093868814654
-0.000422491320368963,19.9119414757743
-0.000557178567889244,19.9139964843798
-0.000666641657282313,19.9157896473199
-0.000765725249350971,19.917513513977
-0.000861713326020011,19.9192785351549
-0.000961168253496677,19.9212086724921
-0.00107552462123965,19.9235575454939
-0.00126963004911358,19.9278607860721
-0.00143319273902752,19.9317971713356
-0.00156185965259006,19.935098217905
-0.00168987412357804,19.9385775513654
-0.00183478919636654,19.9428112630416
-0.00200568091329659,19.9485167855742
-0.00211340578772982,19.9533933625918
-0.00215775638726003,19.9578090467439
-0.00212747117627831,19.9617700196072
-0.00201449339102901,19.9653413049521
-0.00181168338068257,19.9686023162709
-0.00151158286350324,19.9716223218059
-0.00110676644172233,19.9744512058555
-0.000588365659378556,19.9771338199516
6.03618433113086e-05,19.9797311632441
0.000875146335303843,19.9823345523685
0.00193609661146616,19.9850978791386
0.00335570278491844,19.9881592733903
0.00509944051180606,19.9913328141357
0.00648699051880534,19.9935452346335
0.00803854061954335,19.9957576551312
0.00957070607009051,19.9977015991004
0.01056861017206,19.9988507995502
0.0116494663956447,20
