ecg,time
0.0138703868407345,15.0024439239557
0.0151195425914644,15.0073405083794
0.0166218659234177,15.0124810128101
0.0185763572036399,15.0182889864872
0.0204411958659332,15.0232096054379
0.0220169304786019,15.0270895755737
0.0236305639708087,15.0309695457095
0.0250173735110614,15.0343909139732
0.026185962348338,15.0375225628195
0.0271504649651556,15.0405386295748
0.0278623293233984,15.0434196091186
0.0283097129937864,15.0462262237136
0.0284809986417154,15.0490874308238
0.0283233561481218,15.0522014135952
0.0276179446216057,15.0561808044217
0.0267758219359817,15.059120771456
0.0257128742752428,15.0620607384904
0.0246399632293823,15.0646398141481
0.023572071526419,15.0670054368209
0.0225041382216031,15.0692590398117
0.0214372474296373,15.0714505748082
0.0203746420402863,15.0736088979762
0.019319958308319,15.0757532324228
0.0182767287746845,15.0778976581336
0.0172482454745892,15.0800532178788
0.0162375263610813,15.0822290571989
0.0152473129890788,15.0844331091948
0.0142800820280735,15.0866725306422
0.0133380538839221,15.0889540147245
0.0124232049261239,15.0912840168849
0.0115372795525635,15.0936689317289
0.0106817944807899,15.0961152621865
0.00985805394040641,15.0986297454254
0.00906715344735977,15.1012195064119
0.00829680510807137,15.1039406388067
0.00753998481424547,15.1068452742785
0.00680044959495534,15.1099549552236
0.00608204518590095,15.1132950909129
0.00538883041925609,15.1168950867111
0.004725033196208,15.1207891355027
0.00409497844705607,15.1250172513702
0.00350296192347761,15.1296268525162
0.0029530555067367,15.134675467017
0.00244884469675803,15.1402356906277
0.00199320559358183,15.1464034182667
0.00159109447212083,15.1532554869826
0.00125555337932164,15.1606336114437
0.000983297163695889,15.1686439794603
0.000827914620411156,15.1751556740207
0.000673975815560308,15.1841012281462
0.000566809975359756,15.1933110609499
0.000493252515981086,15.2033110609499
0.00045385892477323,15.2133110609499
0.000441162489552271,15.2233110609499
0.000450388595584669,15.2333110609499
0.000479056428174442,15.2433110609499
0.000526883257424877,15.2533110609499
0.000590141809298833,15.2625764730992
0.000667400552284081,15.2710826860491
0.000758750704705649,15.2788936955361
0.000865076073342824,15.286070905651
0.000987795056081694,15.2926702653056
0.00112875258765599,15.2987428372617
0.0012901839308357,15.3043353689358
0.00147471588347353,15.3094907605699
0.00168539188615433,15.3142484629739
0.00192571499016734,15.3186448364261
0.00219971106969386,15.3227134834714
0.00251201271855135,15.3264855597705
0.00286797115577171,15.3299900784356
0.00327380806621953,15.3332542316057
0.00373682415655392,15.3363037488211
0.00426569778339056,15.3391633201692
0.00487092918155232,15.3418571489972
0.00556462307061283,15.3444066826938
0.00633693444632303,15.3467655381484
0.00720121729648119,15.3489791246929
0.00817954246049023,15.351097730556
0.00931200207660412,15.3531863985068
0.0106919196242816,15.3553655775123
0.012705523001712,15.3580816399569
0.0140426413966408,15.3596985375389
0.0154484988360202,15.3613154351209
0.0167242903649626,15.3627641769558
0.0178569038259825,15.3640873621597
0.0188634147606953,15.3653513358704
0.0197401475396197,15.3666015151671
0.0204686291904673,15.3678798614603
0.0210134691448019,15.3692410746846
0.0213044532920136,15.3707878289855
0.0211257851430428,15.372870902942
0.0205050565320834,15.374621945512
0.0195326756843374,15.3763729880821
0.0184541029802758,15.3779188738684
0.0172699748383572,15.3794222465826
0.0159850241020228,15.3809489270042
0.0146084452916424,15.382537468091
0.0137568485209598,15.3835170988834
0.0129340979332187,15.3844967296759
0.0108467071131971,15.3872136283211
0.00901910503161924,15.3899510560385
0.00753768884414665,15.3925149734374
0.00627363478876994,15.3950412185188
0.00516107524739431,15.3976180718958
0.00424543340205338,15.4000759156034
0.00349471247993063,15.4023952015324
0.00287048994638781,15.4045972590541
0.00234310832433951,15.4067062982663
0.00188935844569686,15.4087506634058
0.00149006461672197,15.4107679686015
0.00112712903705769,15.412819128887
0.000776846654161012,15.415038413028
0.000454738181910226,15.4173313417262
0.000235992693739966,15.4190519248377
3.4404532663719e-05,15.4207725079493
-0.000132567639379813,15.4223072709319
-0.000280041871704362,15.4237536774032
-0.000419589984819444,15.4252073494786
-0.000560026192270363,15.4267597890845
-0.000713348341603191,15.4285640355639
-0.000916186462385441,15.4311376611109
-0.00115728620752537,15.4344895227158
-0.00134735464907921,15.4373657046359
-0.00152019315421249,15.4401626226148
-0.00170772076647783,15.4433921507551
-0.0019397623738556,15.4476661512325
-0.00222415092541962,15.4533535272896
-0.00245624442073323,15.4586027338576
-0.00262549678682062,15.4633570348051
-0.00272162927578368,15.4676581698739
-0.00273428454973946,15.4715351810461
-0.00265753059359536,15.4750058185987
-0.00248975094012838,15.4781293337603
-0.00222983505380467,15.4809736640594
-0.00187417403546719,15.4836082344869
-0.00141083659246307,15.4861190420305
-0.000807307372844008,15.4886320206094
-1.96552311277341e-06,15.4913043015542
0.00106893273912513,15.4942550713807
0.00206466877487959,15.496701237008
0.00297397812849704,15.498824666808
0.00399843467687751,15.5011644200057
0.00501025076301604,15.5034348284524
0.00605775180489534,15.5057052368991
0.00701842835497698,15.5076626688834
0.00799451110067261,15.5094882134901
0.00903082030222345,15.5112306291445
0.0101718596836375,15.5129268745539
0.0114554888234598,15.5145922436384
0.0128946175732783,15.5162073739114
0.0145209866345716,15.5177781604703
0.016354034749267,15.519297190222
0.0184048978557138,15.5207540510004
0.0207048486714048,15.5221548672176
0.0232796858976829,15.5235001387946
0.0261593641947539,15.5247917711973
0.0293762116382117,15.526031556306
0.0329746310868658,15.5272242315329
0.0370030954043386,15.5283733285226
0.0415181673765816,15.5294824187664
0.0465857461310223,15.5305550100254
0.052284541670145,15.5315948462337
0.0587076427812972,15.5326056413131
0.0659666189553755,15.5335912326733
0.0741967337994363,15.5345556785557
0.0835641699083113,15.5355033803627
0.0942768707042196,15.5364392949703
0.106599892700802,15.537369161146
0.120880014007611,15.5382999301007
0.137586141582338,15.5392404606411
0.157382347261374,15.5402028384412
0.180605384205716,15.5411789485164
0.207530315060983,15.5421619252057
0.238897451593867,15.5431634763258
0.275733296701734,15.5442012611713
0.319708796961052,15.5453084648503
0.35535910268903,15.5461390520595
0.392407415477769,15.5469696392686
0.425291897272754,15.5477052091911
0.454031909399285,15.5483731847809
0.479123850103478,15.5490070865962
0.500557780800662,15.5496312135963
0.517894113152944,15.5502681048291
0.530140316886411,15.5509458119202
0.535165712161906,15.5517122537841
0.529673532244629,15.5525150470469
0.512276428603105,15.5533453825886
0.481445685302016,15.5542189049544
0.435256757664859,15.555146551395
0.372695386500964,15.5561219829271
0.329019536019648,15.5567072323149
0.281657814093034,15.5572924817026
0.239447651730361,15.5577900726723
0.202963627755387,15.5582137848982
0.170734361418315,15.5585914210576
0.141776470524583,15.5589402306913
0.115473454284245,15.5592713054729
0.091384789529684,15.5595930690536
0.0691328955765282,15.559913487509
0.0482910029049151,15.5602427486286
0.0280925371966665,15.5606010060844
0.0101843950155335,15.5609665314998
0.0010725003666805,15.5611772705496
-0.00718938122920869,15.5613880095993
-0.0137375314850501,15.5615719775032
-0.0197270154210391,15.5617568810849
-0.0257516005879066,15.5619632436403
-0.0315643766105632,15.5621875234834
-0.0370073921203335,15.5624275590868
-0.0419931012309169,15.5626825903585
-0.0464760607103037,15.5629527873562
-0.050436174857431,15.5632389874636
-0.0538631020521961,15.5635425702075
-0.0567959265879215,15.5638708859529
-0.0591333033010912,15.5642127962118
-0.0609676055981382,15.5645790071867
-0.0623141357755542,15.5649732471297
-0.0631867976056674,15.5654000064886
-0.0635973158716408,15.5658648888783
-0.0635535544266328,15.5663749955779
-0.0630573529809706,15.5669395440256
-0.0620987528741128,15.5675723250024
-0.0606524660297829,15.5682912596461
-0.0586667472798644,15.5691235125005
-0.056033660058182,15.5701160637215
-0.0524765749226857,15.5713755983551
-0.048411706670227,15.5727756905192
-0.0444768689440102,15.5741299819248
-0.0407222107891252,15.5754433811236
-0.03717227915822,15.5767182387351
-0.0338396522813212,15.5779554185451
-0.0307298992377272,15.5791550323398
-0.0278438149080108,15.5803168303138
-0.0251786321263637,15.5814404065802
-0.0227288206837394,15.5825253051229
-0.020486706012908,15.5835710697819
-0.0184429966921828,15.5845772609624
-0.0165872524948258,15.5855434512735
-0.0149083020674364,15.5864692068092
-0.0133404511632025,15.5873867276376
-0.0118318187474566,15.5883277160639
-0.0103869802898122,15.5892937048257
-0.00900989106101239,15.5902867907932
-0.00770431534721405,15.5913094331085
-0.00647377372390662,15.5923645449252
-0.00532149183663053,15.5934556114027
-0.00425024480199809,15.5945868484813
-0.00326244608780804,15.5957634214752
-0.00236011493236017,15.5969917542575
-0.00154474775149742,15.5982799808132
-0.000817251801450548,15.5996386306833
-0.000177869843759146,15.6010817201344
0.000373911726109736,15.6026285970073
0.000827330214799214,15.6042570461889
0.00118058534602469,15.6059320549413
0.00144990671067714,15.607671921775
0.00164975491708072,15.609497851425
0.00179366489153748,15.6114381770191
0.00189463763866098,15.6135330635137
0.00196571516439386,15.6158443304158
0.00202106068962528,15.6184794907495
0.0020789657384408,15.62167020267
0.00215756603107282,15.6254071893761
0.00226525579903784,15.6293971217073
0.00240916555675672,15.6337364244081
0.00259717957992969,15.6386862632354
0.00279736539767178,15.6435641948661
0.00300824582866585,15.6484922852434
0.00319774826261671,15.6528119891002
0.00337212508053747,15.6567178230206
0.00354199062595738,15.6604544761682
0.00371275407433273,15.6641308985004
0.00388808377565106,15.6678098710028
0.00407103229201343,15.6715355918988
0.00426445407062747,15.6753432220289
0.00447124140110502,15.6792635387666
0.00469450547832082,15.6833258140105
0.00493771886419075,15.6875593626629
0.00520488457719904,15.6919948149236
0.00550078087596245,15.6966652666362
0.00583138677368563,15.7016077391584
0.00620457866609182,15.7068643674861
0.00659391757190975,15.7120023704511
0.00700729087154997,15.7170955750899
0.00744522604608431,15.7221061498917
0.0079125482139954,15.7270431382441
0.00841430627670131,15.7319092413248
0.00895658355184947,15.7367099950889
0.00954604234676255,15.7414483963785
0.0101899908351765,15.7461253614473
0.0109027572595204,15.7507792956832
0.01170582044515,15.755465859504
0.0126160842825713,15.7601843423589
0.0136584524001102,15.7649557347321
0.0148701033092515,15.7698249806375
0.0163163381736611,15.7749025070178
0.0181556085603215,15.7805169553899
0.0205775563894381,15.7869648051383
0.0221220506888833,15.7907552610702
0.023698510962699,15.7945457170021
0.025072858870592,15.7979446557356
0.026232311618399,15.8010678091041
0.0271876262388377,15.8040819579566
0.027887595166508,15.8069572298024
0.0283230455739104,15.8097633363732
0.0284811792257018,15.8126306759992
0.0283061646874701,15.8157638461456
0.0275594657774967,15.8198272223237
0.0267106602032801,15.8227285799956
0.0256501186514594,15.8256299376675
0.02457840493167,15.8281908747727
0.0235106371285499,15.8305479493074
0.0224427158099366,15.8327969449162
0.0213759885264794,15.834985932543
0.0203137515715627,15.8371430070539
0.0192596433185441,15.8392870098392
0.0182171843972194,15.8414318039298
0.0171896521934829,15.8435882974489
0.0161800478291201,15.8457655530435
0.0151910980450052,15.8479714478053
0.014225264276109,15.8502131052105
0.0132847524098797,15.8524971998769
0.012371526555686,15.854830175933
0.0114873163976153,15.857218433641
0.0106336259592065,15.8596684865705
0.00981174853637762,15.8621870866672
0.00902276761432835,15.8647813862355
0.00825309736018733,15.867512490955
0.00749717418873393,15.8704282106976
0.00675874886108367,15.8735503316849
0.00604168161867471,15.8769044656071
0.00535004002988407,15.8805202783071
0.00468806063293193,15.8844322602605
0.00406007074379033,15.8886807977572
0.00347035906190962,15.8933137996884
0.00292297787225574,15.8983894861179
0.00242147603985783,15.9039815342706
0.00196868641283166,15.9101874865256
0.00157051027782696,15.9170666001695
0.00123852392006259,15.9244770932127
0.000970439176930972,15.932526911407
0.000811306855215939,15.9393801428235
0.000664208600420086,15.9482156957814
0.000559215751883326,15.9575456821145
0.000488835894468425,15.9675456821145
0.000451878555227802,15.9775456821145
0.000441129236275788,15.9875456821145
0.000452012729579014,15.9975456821145
0.000482231129919698,16.0075456821145
0.000531659037716937,16.0175413796359
0.000596143583006967,16.0267421322989
0.000674583114869479,16.0351869941843
0.000767161358862009,16.0429419968847
0.000874815773588817,16.0500681432275
0.000999004312765857,16.0566209461564
0.00114160596995481,16.0626510824696
0.0013048888247697,16.068204956936
0.00149151379034931,16.0733251628404
0.00170456132909425,16.0780508757878
0.0019475761597975,16.0824182099047
0.00222463195890396,16.0864605487426
0.00254041756620196,16.0902088545992
0.00290035143475871,16.0936919735534
0.00331073769854786,16.0969369594069
0.00377898084622401,16.0999694360989
0.00431389384879726,16.1028140287962
0.00492615893703522,16.1054949318707
0.00562601700694727,16.1080267209052
0.00640540275045571,16.1103716295986
0.00727821728012552,16.1125752752863
0.00826751695654916,16.1146885535636
0.00941582367303736,16.1167788237644
0.0108251690193259,16.1189760312955
0.0129031239576263,16.1217439938288
0.0142275510405858,16.1233310499122
0.0156127939789992,16.1249181059957
0.0168686355876636,16.1263460068197
0.0179854694564565,16.1276590308059
0.0189767462041035,16.1289191317702
0.0198367457292594,16.1301704145764
0.0205452534425126,16.1314554346097
0.0210641246865805,16.132832016413
0.0213156948831146,16.1344144503427
0.0210313044214736,16.1366476028623
0.0203625432764898,16.1383355370531
0.0193807628058815,16.1400234712438
0.0182884127381654,16.141554303302
0.0170892179218391,16.1430579262996
0.0157903708622815,16.1445914149911
0.0144011083459753,16.1461918849761
0.0139090993448886,16.1467577683281
0.0134253070151233,16.1473236516801
0.0113491578151324,16.1499422578613
0.00942598472981528,16.1527230631389
0.00786805203206678,16.1553275382546
0.00656294777564178,16.1578467604001
0.00541630109091426,16.1604085927575
0.0044533983927339,16.1629024451026
0.00366606754407037,16.165253953725
0.00301380973692345,16.1674826260966
0.00246499214625435,16.1696120421394
0.00199505296488621,16.1716691838517
0.00158400462600848,16.1736888565111
0.00121391718495441,16.1757236260387
0.000863720137243575,16.1778794506313
0.000483078855145771,16.1805343236796
0.00026236070987592,16.182252356941
5.90170852478376e-05,16.1839703902023
-0.000111705146750247,16.1855250329292
-0.000261001180423851,16.1869770810101
-0.000401087111261318,16.1884247190009
-0.000540836608668853,16.1899571058678
-0.000691314900624979,16.1917122791407
-0.000881737193521125,16.1940996778603
-0.00115139702883679,16.1978175028946
-0.00136679813274215,16.2010849075713
-0.00155251303903843,16.2041177193329
-0.00175105061410417,16.207579678409
-0.00200497965267983,16.2123350339129
-0.00227877163746105,16.2179352145939
-0.00249818008925554,16.2230753333959
-0.00265273567224003,16.2277281568081
-0.00273188888074461,16.2319388187298
-0.00272575405654241,16.2357259967914
-0.00262967618451127,16.2391161710754
-0.00244230194278091,16.2421755082766
-0.0021625480661729,16.2449677264383
-0.00178515571711625,16.2475691834129
-0.00129470240611981,16.2500721268125
-0.000647467782032814,16.2526284972873
0.000206445519961514,16.2553370724586
0.0010593483973855,16.2576478828767
0.00199754547058762,16.2599586932949
0.00290218567665907,16.2620764073492
0.00390934170441386,16.2643798747499
0.00495532574225109,16.2667296935624
0.00603827825594702,16.2690795123749
0.00700245251471437,16.2710459775656
0.00798119821752845,16.2728790501414
0.00901099833772641,16.2746139188717
0.0101552852008143,16.2763190130657
0.0114327957478258,16.2779804248021
0.0128752812502812,16.2796032989421
0.0144955800320121,16.2811717722578
0.0163231038167505,16.2826899455947
0.0183756546572878,16.2841515158873
0.0206704374527304,16.2855523407808
0.0232394764639184,16.2868976710151
0.0261130120312354,16.2881895436116
0.0293260611060508,16.2894307090181
0.0329183334079815,16.290624018125
0.0369398192266334,16.2917736848678
0.0414470084838157,16.2928832988941
0.0465061136210575,16.2939564627547
0.0521948839020897,16.2949967505199
0.0586064243709781,16.296007936549
0.0658520209159681,16.2969938606944
0.0740665617425494,16.2979585800053
0.0834157930868917,16.2989064975006
0.094106717201808,16.299842537629
0.106403481444787,16.3007724353418
0.120651395695344,16.3017031193321
0.137317206751418,16.3026434171376
0.157061093430459,16.3036053416953
0.180233577739326,16.3045814091918
0.207098366917271,16.3055641942651
0.238392582976201,16.3065653429296
0.275136837580941,16.3076023822623
0.31898650058419,16.3087081061682
0.354702813718595,16.3095410775599
0.39184466573973,16.3103740489516
0.424806485748846,16.3111111158668
0.453608179797329,16.3117798665842
0.478757928996045,16.3124140967368
0.50025322134932,16.3130381956102
0.517661614361564,16.3136746779883
0.530002087550814,16.3143514322802
0.535172433282143,16.3151158332207
0.529871139180098,16.3159183098783
0.512686281911677,16.3167480328014
0.482097238011142,16.3176207194857
0.436184071554046,16.3185473875264
0.37370650030235,16.3195248189394
0.329938489383212,16.320112539308
0.282432894009152,16.3207002596765
0.240101146875373,16.3211995263326
0.203533213080579,16.3216242208766
0.171242215673873,16.3220024572832
0.1422354063569,16.3223516426007
0.115891941918244,16.3226829375987
0.0917694036978147,16.3230047908954
0.0694899462785327,16.3233251586141
0.0486289780356879,16.3236541559384
0.0284313625997873,16.3240116144666
0.0102527116444323,16.3243820466747
0.00111455974524196,16.3245932696239
-0.00716948313011658,16.3248044925731
-0.0137212574192573,16.3249885131242
-0.0197102157537686,16.3251733486049
-0.0257351089908205,16.3253796547894
-0.0315487709080806,16.3256038868135
-0.0369929983753154,16.3258438783547
-0.0419800933326306,16.3260988661475
-0.046464522248909,16.3263690181022
-0.0504261345329475,16.3266551699601
-0.053854592135467,16.3269586998183
-0.0567902406281556,16.3272871192281
-0.0591288364245016,16.3276289764172
-0.0609643066657484,16.3279951247103
-0.0623119691587255,16.3283892925064
-0.0631857312199719,16.3288159680216
-0.063597324678476,16.3292807519019
-0.0635546246944962,16.3297907413708
-0.0630594919157169,16.3303551448902
-0.0621019975902512,16.3309877463122
-0.0606568979296226,16.3317064513345
-0.0586725313095052,16.332538395101
-0.0560411589298269,16.3335304876674
-0.0524868853364809,16.3347891538459
-0.0484217629523361,16.33618937507
-0.0444865170004808,16.3375437723464
-0.0407313688185403,16.3388572692912
-0.0371809046451879,16.3401322214491
-0.033847724192582,16.3413694950644
-0.0307374104219258,16.3425692031222
-0.0278507682918896,16.3437310963547
-0.0251850384033072,16.344854769068
-0.0227346966257538,16.3459397652686
-0.0204920730686118,16.3469856287499
-0.0184478797543168,16.347991919864
-0.0165916787944911,16.3489582112004
-0.01491230018849,16.3498840688977
-0.0133443090591099,16.3508015320194
-0.0118355234148957,16.351742459967
-0.0103905216289279,16.3527083833762
-0.00901325938196909,16.353701398307
-0.00770750151208876,16.3547239628827
-0.00647676927379821,16.3557789889818
-0.0053242891240446,16.3568699601477
-0.00425283609043069,16.3580010902401
-0.00326482581897838,16.3591775418465
-0.00236227878815816,16.3604057351857
-0.00154669281509258,16.361693799211
-0.000818976736857752,16.3630522562981
-0.000179375105445801,16.3644951120654
0.000372623623481121,16.3660416976246
0.000826314122328723,16.3676700526109
0.00117979690521359,16.3693449211001
0.00144930812171077,16.3710846011417
0.00164931107234164,16.3729102832652
0.00179334253728509,16.3748502781872
0.00189440420200786,16.3769447120699
0.0019655368826602,16.3792553296153
0.00202089853303299,16.38188947227
0.00207876154145797,16.3850782543441
0.00215730921491715,16.3888151161115
0.00226489965221486,16.3928039094108
0.00240869577427515,16.3971418449222
0.00259647952634579,16.4020872097373
0.00279661875133321,16.4069652927051
0.0030074228353059,16.4118924522779
0.0031970416273435,16.4162154190255
0.00337145755906703,16.4201225951645
0.00354132674116088,16.4238597878844
0.00371207334154223,16.4275363384366
0.00388737075070321,16.431215171441
0.00407027328111063,16.4349405503261
0.00426363566570542,16.4387476690183
0.00447034946151024,16.442667318733
0.0046935244313403,16.4467287750297
0.0049366309993929,16.4509613490851
0.00520366913465903,16.4553956613266
0.00549941252026892,16.4600647912718
0.00582983291006694,16.4650057361521
0.00620279504503786,16.4702606015809
0.00659208071319558,16.475399497439
0.00700533228867636,16.4804928642576
0.00744314890798732,16.4855038568849
0.00791032430611885,16.4904411780922
0.00841191019400598,16.4953076028429
0.00895398455720409,16.5001086512867
0.00954320745881925,16.5048473369324
0.0101868840153727,16.5095245854732
0.0108992605431432,16.5141783417251
0.0117018708089512,16.5188647869469
0.0126115818878613,16.5235830782477
0.01365326127655,16.5283541479508
0.0148640059351491,16.5332227581519
0.0163089070205001,16.5382988461001
0.0181455712027032,16.543909076073
0.0205674591007194,16.5503602012594
0.022112793705889,16.5541536936659
0.0236905293214375,16.5579471860723
0.0250661463393115,16.5613482563485
0.0262266913696707,16.564472394654
0.0271831181936536,16.5674867600168
0.0278845278683322,16.570362710892
0.028321426611682,16.5731688660324
0.0284811610680492,16.5760354423926
0.0283082729552049,16.5791662338781
0.0275667578910667,16.5832189564657
0.0267187766999576,16.5861249791899
0.0256579627770481,16.5890310019141
0.0245861110576219,16.5915941592476
0.0235183308393746,16.5939522906086
0.0224504092614324,16.5962018582053
0.0213836623512548,16.5983911624475
0.0203213800318326,16.6005483919327
0.0192672004918411,16.6026924352847
0.0182246458399712,16.6048371825267
0.0171969953858635,16.6069935583448
0.0161872522403325,16.6091706359462
0.0151981450990876,16.6113762991774
0.0142321372543922,16.6136176757604
0.0132914363846083,16.6159014426804
0.0123780083249721,16.618234044977
0.0114935843837998,16.6206218827189
0.0106396701718441,16.6230714681537
0.00981756050493691,16.6255895509142
0.00902834030804521,16.6281832800255
0.00825858620548367,16.6309131312987
0.00750255173155775,16.6338274576561
0.00676398839429726,16.6369480148123
0.00604675481730432,16.6403003880891
0.00535491721329869,16.6439142117948
0.0046927111591449,16.6478239385481
0.00406446373534918,16.6520699076307
0.00347446458964703,16.6566999660028
0.0029267685354302,16.6617722464033
0.00242492913543171,16.6673602893029
0.00197178475653533,16.6735614290396
0.00157311935090699,16.6804371362225
0.00124069187816208,16.687843551598
0.00097209269016869,16.695888398446
0.000813474073126711,16.7026961219771
0.000665505248093795,16.7115464570875
0.000560235210531993,16.7208615792281
0.00048946529454151,16.7308615792281
0.000452214494946158,16.7408615792281
0.000441236845524259,16.7508615792281
0.000451932842625335,16.7608615792281
0.000481983125264576,16.7708615792281
0.000531266723812899,16.7808615792281
0.000595635529602388,16.790068610024
0.000673966245866255,16.7985192744978
0.000766433783844093,16.8062795601872
0.000873970263798628,16.8134105160985
0.000998029797400651,16.8199676986224
0.00114048817004729,16.8260018228038
0.00130361046602224,16.8315593273458
0.00149005456455752,16.8366828359223
0.00170289770089443,16.8414115513922
0.001945681006605,16.8457816122953
0.00222247408244076,16.8498264239798
0.00253796100079319,16.8535769681141
0.00289755454292357,16.8570621077121
0.00330755191533604,16.8603089109302
0.00377534891506944,16.8633430132176
0.00430974727818326,16.8661890478247
0.00492141409516042,16.8688712126235
0.00562074987251107,16.8714046635323
0.00639953935525228,16.873750912227
0.00727163983039694,16.8759555655377
0.008260029000833,16.8780694780804
0.0094070339146506,16.8801598336927
0.0108139770160264,16.8823558249377
0.0128865976736539,16.8851197962874
0.0142119128633447,16.8867092820858
0.0155986470670426,16.8882987678841
0.0168558884801018,16.8897283411074
0.0179738301071827,16.8910422233255
0.0189661919477315,16.8923026950907
0.0198274092432693,16.8935539559058
0.0205374063065585,16.894838508079
0.0210582659039827,16.896213914756
0.0213129585467863,16.8977934744285
0.0210377917889584,16.9000132188217
0.0203732125665046,16.9017056582561
0.0193927772814516,16.9033980976906
0.0183018701851869,16.9049301155694
0.0171041540749519,16.9064337082951
0.01580668191076,16.9079665758828
0.0144187008199649,16.9095659376166
0.0139344347283412,16.9101228929081
0.0134575460823207,16.9106798481996
0.011381902294361,16.9132926312003
0.00945237315590072,16.916076442816
0.00788939689539893,16.9186836497025
0.00658162030577308,16.9212025058263
0.00543276115756988,16.9237634482263
0.00446684180632862,16.9262594443884
0.00367716207161079,16.9286128847086
0.0030230938825675,16.9308431692937
0.00247287923333233,16.9329738480117
0.00200186867134707,16.9350318364229
0.00159002187475225,16.9370517852339
0.00121940141766308,16.9390858663067
0.00086904567400301,16.9412387321558
0.000489701371745972,16.9438787393876
0.000267843967694598,16.9456015430145
6.35143571504317e-05,16.9473243466415
-0.000107946078121255,16.948882921714
-0.000257600017248895,16.950336110661
-0.000397823596837273,16.9517829461241
-0.000537511128978914,16.9533122930033
-0.000687597648524108,16.9550600086906
-0.000876326959477731,16.9574212505583
-0.0011525819765821,16.9612259601566
-0.00137626587356096,16.9646250852203
-0.00156790026805595,16.9677676435949
-0.0017724249548723,16.9713547297822
-0.00204007712640558,16.9764091193171
-0.00230812191943043,16.9819633541955
-0.00252036008750755,16.9870441421795
-0.00266654222461423,16.9916421561023
-0.00273601335834165,16.9958033475318
-0.00271930341754876,16.9995391830628
-0.00261235046460693,17.002887868015
-0.00241407771158578,17.0059113134673
-0.00212299754350914,17.0086773690071
-0.00173313309362905,17.0112621678668
-0.00122746130743228,17.0137601968424
-0.00055615284399181,17.0163377586099
0.000326044847916605,17.0190705302185
0.00117248724617104,17.0213276710514
0.00209622706280766,17.0235848118842
0.00300313860898748,17.0257006022627
0.00403761619486091,17.0280623356413
0.00507467198277226,17.030385125058
0.00615114450194361,17.0327079144747
0.00710151750970292,17.034630261812
0.0080873279997458,17.0364578357329
0.0091265855840764,17.0381872958396
0.010285037087902,17.039889766284
0.0115777130833931,17.04154589108
0.0130399037433195,17.0431652904651
0.0146796776520555,17.044727206182
0.0165289924549925,17.0462386890029
0.0186072680529685,17.047694663799
0.0209293194294462,17.0490892991836
0.0235283613374014,17.0504285570474
0.0264353639571296,17.0517146978058
0.0296861937641461,17.0529506176865
0.0333212782006731,17.054139172425
0.0373910234342562,17.0552844334281
0.0419529541179043,17.0563900237596
0.0470744272544512,17.0574595483584
0.0528348215435734,17.0584966260009
0.0593286135489735,17.0595049698311
0.0666694525544032,17.0604884668198
0.074995100814821,17.0614512048385
0.0844751236578776,17.0623976353527
0.0953216553753104,17.0633327495676
0.107806060526093,17.0642623860896
0.122284197953823,17.0651936354451
0.139239039854079,17.0661355861471
0.159357836155984,17.0671007134774
0.182892129111295,17.0680770615341
0.210187411950566,17.0690611841041
0.242003789149896,17.0700651721975
0.279404955553195,17.0711075227693
0.324161975717206,17.0722239356145
0.359415983984652,17.0730402243842
0.395902680814292,17.0738565131539
0.428320983763475,17.0745830885633
0.456684633082041,17.075246373564
0.481420757887273,17.0758783000121
0.502474420026477,17.0765026593449
0.519361117413229,17.077142183378
0.531013833786088,17.0778260151127
0.535112339301749,17.0786057437545
0.528415296931517,17.0794105924737
0.509674835936192,17.0802448440048
0.4773118086685,17.0811236717453
0.429374070061698,17.0820575192603
0.380588122882603,17.0828188396243
0.324023194252904,17.0835801599883
0.284598128060756,17.0840663964055
0.243451264588766,17.0845526328226
0.206592520583464,17.0849808287566
0.173979012924202,17.0853622456988
0.14470889075556,17.0857135034049
0.118147537011051,17.0860460300928
0.093842518504414,17.0863684111995
0.0714141781405622,17.0866885600773
0.0504486663151332,17.0870162288671
0.0302470486986359,17.0873696623379
0.00809895559153484,17.0878221972264
-0.000385401153136031,17.0880221221694
-0.00811022702406932,17.0882220471124
-0.0145148142345455,17.0884041576328
-0.020527791125512,17.0885921833751
-0.0265370607428395,17.0888011092406
-0.0323081127418217,17.089027560438
-0.0376945299905292,17.0892695987089
-0.0426156698185193,17.0895266092794
-0.0470302109568078,17.0897988618316
-0.050920568425002,17.0900872704433
-0.0542763528983392,17.0903932818687
-0.0570866041924594,17.0907176410138
-0.0593658441237049,17.0910620711143
-0.0611442553383083,17.0914312535822
-0.0624365303858712,17.0918289266529
-0.06325640002203,17.0922596912193
-0.063615242334177,17.0927292980492
-0.0635203622433037,17.0932450502058
-0.0629725503863837,17.093816610091
-0.0619603673244118,17.0944581200867
-0.0604562816383309,17.09518828286
-0.0584042634257,17.096035767999
-0.055686034009215,17.0970512131188
-0.0519849728117648,17.0983554542566
-0.047932204581858,17.0997494107599
-0.0440170186781121,17.1010985924148
-0.0402858784604915,17.1024072863174
-0.0367614667206862,17.1036776035342
-0.0334553392916679,17.1049102870061
-0.030372403993479,17.1061053890012
-0.0275129763142525,17.1072626324843
-0.0248739207159183,17.108381601228
-0.022449419746503,17.1094618372792
-0.0202315786744955,17.1105028860175
-0.0182109448261559,17.1115043098264
-0.0163769693510525,17.1124656817279
-0.0147184190044535,17.1133865652273
-0.0131573414076206,17.1143068307653
-0.0116560985711381,17.115250697464
-0.0102191291135406,17.1162197979274
-0.00885036857094841,17.1172162679093
-0.00755355480733711,17.118242615474
-0.00633217599397058,17.1193018150612
-0.00518941912917862,17.1203974295973
-0.00412799172534324,17.1215337752233
-0.00315027885953553,17.1227161487649
-0.00225824077317641,17.1239511506079
-0.00145330731151777,17.1252471582407
-0.000736310764758878,17.1266150487806
-0.0001074090644998,17.1280693565818
0.0004340088733576,17.1296302466602
0.000874527894604814,17.1312632836559
0.00121697082418621,17.1329450853641
0.00147726350466059,17.1346939928743
0.00166973954580172,17.1365319045518
0.0018078470056512,17.138488253771
0.00190455620926945,17.1406051204986
0.00197296948723311,17.1429480480393
0.0020275131382862,17.1456332138451
0.00208746021115024,17.1489205790415
0.00216850158535183,17.1526659334276
0.00228084437815833,17.1567131197181
0.00242907776293846,17.1610944783581
0.00262303991628613,17.1661413528225
0.00282452947397251,17.1710161323433
0.00303741282259522,17.1759720220003
0.00322381275664231,17.1802086218193
0.00339707651275706,17.1840796658663
0.00356680482019664,17.1878024353465
0.00373802845786108,17.1914759407452
0.00391428453771331,17.1951592309658
0.00409857921220797,17.1988947933839
0.00429376022195356,17.202716921742
0.00450274225215561,17.2066560397368
0.00472867997502568,17.2107413352342
0.00497511173767223,17.2150022416741
0.00524613529198598,17.2194696741603
0.00554667154465877,17.2241772003526
0.00588292403934878,17.2291625247073
0.00626148555069914,17.2344461714536
0.00665322622966993,17.2395646934752
0.00707033735572567,17.2446499523445
0.00751222071315064,17.2496483366346
0.00798429913247593,17.2545748006317
0.00849163219828232,17.2594309080205
0.00904043706039153,17.2642223352297
0.0096374583426067,17.2689516608233
0.0102901045236361,17.2736195219181
0.0110153662532794,17.2782790646243
0.011832954477065,17.2829694253092
0.0127609711409833,17.2876941294433
0.0138255457573749,17.2924761894979
0.0150666625039974,17.2973667237008
0.0165567982339163,17.3024931173904
0.0184852383964736,17.3082561728937
0.0203757746339013,17.3132650209556
0.021957345616934,17.3171663545932
0.0235797403102265,17.3210676882307
0.0249747374396307,17.3245032444852
0.0261502094985325,17.3276414171662
0.0271216532389253,17.3306590976671
0.0278425361967814,17.3335445738244
0.0282989413117412,17.3363517470144
0.0284801245155347,17.339208558027
0.0283354229189556,17.3423086366949
0.0276593222540996,17.3462297067063
0.0268221232002563,17.3491992486302
0.0257571293356573,17.3521687905541
0.0246832448363659,17.354761412813
0.0236152522706574,17.3571333024647
0.0225473211826778,17.3593902645835
0.0214803300151688,17.361583662661
0.0204174802592679,17.3637429127301
0.019362405889977,17.3658875158089
0.0183186473226162,17.3680317098058
0.017289507416428,17.3701866337201
0.0162780152300579,17.3723614946214
0.0152869233410954,17.3745642648809
0.0143187190051993,17.3768021257963
0.0133756326185846,17.3790817847785
0.0124596503642043,17.3814097027147
0.0115725257495469,17.3837922736838
0.0107157844127518,17.3862359936616
0.00989073918024385,17.3887475871072
0.00909849370761909,17.3913341608531
0.00832768046983534,17.3940482838401
0.00757024100737579,17.3969451285545
0.0068299363794065,17.400046067792
0.00611060318227894,17.4033763634347
0.00541629230164883,17.4069652457432
0.0047512259660382,17.410846696691
0.00411972726013153,17.415060469693
0.00352609647528786,17.4196536416144
0.00297441892761754,17.4246832599156
0.00246830550921969,17.4302211725187
0.00201066289498286,17.4363621332226
0.00160576748399426,17.4431953281837
0.00126771244352052,17.4505508655766
0.00104248263827443,17.4568398668455
0.000876262482104803,17.4631288681143
0.000709946668235393,17.4718900905613
0.000591087400383749,17.4810859637635
0.000508475703193312,17.4909870763023
0.000461263777308076,17.5009870763023
0.000442319296251549,17.5109870763023
0.00044628901711151,17.5209870763023
0.000470139894381248,17.5309870763023
0.00051302886352198,17.5409870763023
0.000572502756143281,17.5504525002499
0.00064617048409341,17.559148956425
0.000733821748131443,17.5671336228651
0.000836166188589749,17.5744691448049
0.000954497169069527,17.5812128359823
0.00109055439677278,17.5874169656914
0.00124647329470746,17.5931293505345
0.00142477801044615,17.5983938474075
0.00162840126520191,17.6032507649656
0.00186072233707658,17.607737231358
0.00212562550931916,17.6118875330196
0.00242757745054535,17.6157334308394
0.00277173187612127,17.6193044635891
0.00316406910285022,17.6226282633105
0.00361158774698154,17.6257309024556
0.00412257653925611,17.6286372959195
0.00470701288568523,17.6313717122297
0.00537718109958695,17.6339584916675
0.00612797285199728,17.636362646973
0.00696667054297163,17.638609596934
0.00791253995428991,17.6407477956945
0.00899932786475108,17.6428364947578
0.0102994179097507,17.6449736378517
0.0120692444171423,17.6474633676528
0.0134306890208956,17.6491670921493
0.014886321680973,17.6508708166459
0.0162341744839095,17.6524020313965
0.0174206526229066,17.6537661068882
0.0184765923531744,17.6550475562126
0.019406185591472,17.6562984358525
0.0201965619942835,17.6575602825754
0.0208199778146704,17.6588803682759
0.0212242195867329,17.6603347819519
0.0212843719251213,17.6621157549311
0.0208164408270026,17.6640663532918
0.0198693078571247,17.6660169516524
0.0188164761215118,17.6676178378084
0.0176658679494633,17.6691265207308
0.016412729297156,17.6706410112448
0.0150651299413518,17.6722056271806
0.0142208265068568,17.6731757687958
0.0133876767007851,17.674145910411
0.0126310196285171,17.6750641026306
0.0105805659613487,17.6777831572392
0.00880603419207605,17.6804927927697
0.00736402229935159,17.6830357963205
0.00612129670050318,17.6855665648256
0.00502655127236242,17.6881520876794
0.00413553969424054,17.6905905592676
0.00340390798365687,17.6928925475768
0.00279430331095016,17.6950804193019
0.00227807614138915,17.6971788148706
0.00183267841644041,17.6992170566531
0.00143929856838253,17.7012347116168
0.00107967330912568,17.7032979601242
0.000727931293719949,17.7055624942788
0.000433909330590614,17.707681399654
0.000169005215648293,17.7098003050292
-2.59118513614307e-05,17.7115063123645
-0.000184758941541902,17.7130001051605
-0.000328495220377444,17.7144394689894
-0.000467368336073272,17.7159154971154
-0.000610505012601042,17.717530802748
-0.000773590914497488,17.7194950683644
-0.00103964348638651,17.7230011386598
-0.00127671541317534,17.7264589960317
-0.00146651567186159,17.7294610833871
-0.00165308035736825,17.7326150030564
-0.00187219127402019,17.7365734014943
-0.00216785808955231,17.7423590071223
-0.00241236889153401,17.7477199298515
-0.00259575337806257,17.7525764624979
-0.00270831149775483,17.7569696947691
-0.00273939315142758,17.7609431797308
-0.00268175476327104,17.7644925830474
-0.00253319424199504,17.7676852909138
-0.00229296602359458,17.7705820262634
-0.00195801057026688,17.7732553935954
-0.00151861070209104,17.7757864037221
-0.000948126424149836,17.7782885841919
-0.000184151657112506,17.7809367377436
0.000820478645276587,17.7838004744719
0.00187194462939522,17.7864317290758
0.00278179546002775,17.7885717112451
0.00376570447354372,17.7908270765858
0.00485779576064357,17.7932854973576
0.00598690308799197,17.7957439181294
0.00695568585480342,17.7977274135112
0.00791496294340252,17.7995341104691
0.0089508856572132,17.8012916842078
0.0100822314848323,17.8029903277355
0.0113550320720057,17.8046595308513
0.0127829048922563,17.8062800140546
0.01439754034908,17.8078571848903
0.016206696017217,17.8093737896074
0.0182412406976924,17.8108361505746
0.0205235180701932,17.8122424473232
0.0230786400343851,17.813592838093
0.0259313154797361,17.8148870763369
0.029121197990538,17.8161306105796
0.0326894292260094,17.8173268005072
0.0366838042620883,17.8184791285443
0.0411596585728479,17.8195910333004
0.0461829563401522,17.820666248521
0.051831146706044,17.8217084396677
0.0581960460373668,17.8227213047738
0.0653876567656284,17.8237086674744
0.0735390877093758,17.8246745496651
0.0828141411383811,17.8256233542521
0.0934170512105411,17.8265599758821
0.105607849630748,17.8274900812751
0.119725938436981,17.8284205060995
0.136229155702389,17.8293599382687
0.155763101779046,17.8303201505472
0.17873153779906,17.8312961255588
0.205353901026009,17.8322782337387
0.23635475746424,17.8332778818159
0.27273179031126,17.834312089637
0.316080853034866,17.8354121665167
0.35205828031777,17.8362548769163
0.389571807636535,17.8370975873159
0.422840300289089,17.837840806489
0.45188429330687,17.8385127781144
0.47725976614295,17.8391484330979
0.498993819517197,17.8397725386799
0.5166819228198,17.840407528085
0.529387392594571,17.8410806701505
0.535116039835569,17.8418372782295
0.530559031653136,17.8426386074206
0.514201558566396,17.8434660037055
0.484555271788324,17.8443354593891
0.439719673249797,17.8452583060708
0.377635791255992,17.8462428323762
0.333511079782737,17.846840408872
0.285441082344154,17.8474379853677
0.242633172243073,17.8479439105613
0.20573842688913,17.848372495387
0.173208125788417,17.848753106263
0.144012188709975,17.8491037814448
0.11751255049966,17.8494359580405
0.0932592475727088,17.8497581865793
0.0708732014881491,17.8500783907387
0.0499377368896965,17.8504064197434
0.0297390686606855,17.8507609391997
0.00741268239881806,17.8512194829332
-0.000834192099015028,17.851415002859
-0.00835632192927584,17.8516105227848
-0.0147209968379952,17.851792087623
-0.0207388395435672,17.8519809148863
-0.0267432849934739,17.8521905060197
-0.0325028793272077,17.8524175255808
-0.0378741113431422,17.8526600917281
-0.0427780790423054,17.852917626595
-0.0471745040377812,17.8531904254699
-0.0510464368889044,17.853479422328
-0.0543834418961246,17.8537860815529
-0.0571620108486518,17.8541094169679
-0.0594258868106413,17.8544545231685
-0.061189520884186,17.8548245021099
-0.0624674520903095,17.8552230957493
-0.0632733620798092,17.8556549347692
-0.0636185334397663,17.856125809703
-0.0635101184877142,17.8566430782892
-0.0629486190587813,17.8572165234446
-0.0619221960412455,17.8578603844231
-0.0604027001861377,17.8585935791905
-0.0583329072665509,17.8594451972023
-0.0555915896807493,17.8604669194746
-0.0518501283910925,17.8617838281573
-0.0478008117815784,17.8631761617321
-0.0438911336884967,17.8645239511728
-0.0401665119222263,17.8658313568492
-0.0366491419364427,17.8671004277363
-0.0333503091850844,17.8683318752743
-0.030274744711724,17.8695257362687
-0.0274226350161933,17.870681726672
-0.0247907452023748,17.8717994276573
-0.022373180371453,17.8728783808514
-0.0201619865622284,17.8739181320913
-0.0181476679332394,17.8749182442886
-0.0163196468096948,17.8758782905282
-0.0146666738402008,17.8767978335273
-0.013107457730431,17.877718853442
-0.0116082442287898,17.8786635117009
-0.0101734348128307,17.8796334682943
-0.0088069595014202,17.8806308697837
-0.00751254880732447,17.8816582378361
-0.0062936819103859,17.8827185639467
-0.00515353348675678,17.8838154327066
-0.00409479700041819,17.8849531882072
-0.00311984658345425,17.8861371640144
-0.00223062618976855,17.8873740099197
-0.00142854729070561,17.8886721717247
-0.000714421481357929,17.8900426243411
-8.83832581807385e-05,17.8915000484372
0.000450205447636632,17.8930648409554
0.000887226765864062,17.894699175696
0.00122673943344899,17.8963828854991
0.00148458892737038,17.8981343303246
0.00167507472982155,17.8999756053615
0.00181162206225057,17.9019364582556
0.00190719429146343,17.9040595197213
0.00197491304547556,17.9064114152967
0.00202928408608429,17.9091108861149
0.00208988313287871,17.9124265906678
0.00217166097519477,17.91617509135
0.00228535525339049,17.9202391329577
0.00243486252696126,17.9246339069404
0.0026289553686012,17.9296692034784
0.00283066615654232,17.934541835083
0.00304403378722119,17.9395047594912
0.00322977975930334,17.9437236025665
0.0034028118683061,17.9475870769463
0.00357252435262837,17.9513068635315
0.0037438681465989,17.9549798611648
0.00392035194336149,17.9586642995311
0.00410497215411891,17.9624022892498
0.00430057559436149,17.9662279324825
0.00451008269524012,17.9701715771388
0.00473665873228303,17.9742623956195
0.0049838579707015,17.9785298529982
0.00525580108789537,17.9830049347488
0.00555744380177647,17.9877213251412
0.00589504451518516,17.9927168927102
0.00627402078814486,17.9979951845598
0.00666657337511127,18.0031130638361
0.00708443926005781,18.0081954470729
0.00752724220480414,18.0131914452625
0.00800038896509941,18.0181154973286
0.00850898542773654,18.0229694138267
0.00905926562711888,18.0277587661827
0.009657995941311,18.0324860724214
0.0103126066372376,18.037151902127
0.0110406956249267,18.0418127025214
0.0118615746985335,18.046503940018
0.0127936200176644,18.0512300901673
0.0138632596007582,18.0560146651876
0.0151111308228815,18.060910274456
0.0166115000870605,18.0660484998729
0.018561773265455,18.0718491566891
0.0204306158021072,18.0767835581334
0.0220073080294811,18.0806669992204
0.0236223716483637,18.0845504403074
0.025010501785969,18.0879740833679
0.0261802037350343,18.0911067753787
0.0271458312439769,18.0941230934634
0.0278591561204793,18.0970047915894
0.0283080025093854,18.0998114866641
0.0284808957763294,18.1026719669731
0.0283253630753491,18.1057836603993
0.0276248104558996,18.109753307168
0.0267834937222701,18.1126980474121
0.0257202279135904,18.1156427876561
0.0246471634007914,18.1182240700516
0.0235792562236358,18.1205907206651
0.0225113231638347,18.1228448758483
0.0214444153453433,18.1250367168675
0.0203817690040227,18.127195191586
0.0193270200686825,18.1293395687799
0.0182837024035561,18.1314839544258
0.0172551098456789,18.1336394071425
0.0162442621959056,18.135815082599
0.0152539028400753,18.1380189203565
0.0142865102071044,18.1402580812103
0.0133443063627828,18.142539260661
0.0124292693057602,18.1448689150144
0.0115431449520072,18.1472534387299
0.0106874514995364,18.1496993335344
0.00986349460745414,18.1522133344214
0.0090723711433325,18.1548025632771
0.00830194540613278,18.1575225291325
0.00754502210106856,18.1604258679642
0.00680535892898847,18.163534093937
0.00608680011587705,18.1668725917797
0.00539340318909063,18.1704707376838
0.00472939512399916,18.1743626894129
0.00409910057243453,18.178588417604
0.00350681608080882,18.1831952835047
0.00295661580663243,18.1882407349877
0.00245208952850377,18.1937972428428
0.00199611847467055,18.1999605114707
0.00159354682661643,18.2068094324827
0.00125759034748378,18.2141837897859
0.000984830414786973,18.2221895674383
0.000829890472321082,18.2286617613748
0.000675229625638415,18.2376149676105
0.000567823617966228,18.2468085545377
0.000493872778085824,18.2568085545377
0.000454178828833594,18.2668085545377
0.000441245829669688,18.2768085545377
0.00045027596038867,18.2868085545377
0.000478766748403052,18.2968085545377
0.000526414178143787,18.3068085545377
0.000589539139611605,18.3160810228644
0.000666672451159657,18.3245939401361
0.000757894450341655,18.3324110633998
0.000864082747556411,18.3395938419566
0.000986651315486719,18.3461982741262
0.00112744140258435,18.3522754663746
0.00128868481660276,18.357872204879
0.00147300483635773,18.3630314245844
0.00168344113672917,18.3677926074203
0.00192349257195279,18.3721921415344
0.0021971802336772,18.3762636543336
0.0025091311162754,18.3800383235466
0.00286468977744974,18.3835451815426
0.00327006976417078,18.3868114367253
0.00373256158369696,18.3898628315742
0.00426083042566444,18.3927240651022
0.00486535881519892,18.3954193442013
0.00555843830387442,18.397970817213
0.00633004872182353,18.4003312285562
0.00719349302094797,18.4025459744829
0.00817075191171377,18.404665296802
0.0093016987219685,18.4067540409153
0.0106788944965009,18.4089318438155
0.0126866487915429,18.4116435644873
0.0140247632047671,18.4132632848351
0.0154323389054552,18.4148830051829
0.0167098845900258,18.416333819415
0.0178438488182298,18.4176580531525
0.0188516506935,18.4189224823009
0.0197298065406452,18.4201726598432
0.0204600006536035,18.4214505053913
0.021007082956901,18.4228104583292
0.0213014647148392,18.4243542369555
0.0211312852542662,18.4264256652229
0.0205143613415026,18.4281835069001
0.019541931223881,18.4299413485773
0.0184641918886029,18.4314887636448
0.01728116780901,18.4329922400216
0.0159972725451887,18.4345185079794
0.0146216762549288,18.4361062617289
0.0137770687382589,18.4370778226568
0.0129600535967688,18.4380493835846
0.0108731333967913,18.4407610838291
0.00904057301645894,18.4435007394237
0.00755517351694553,18.4460667518168
0.00628895323718302,18.4485925815154
0.00517458435601571,18.4511686000888
0.00425647596822876,18.4536282858772
0.00350383683505463,18.4559492181393
0.0028781385464346,18.4581526285634
0.00234962321320638,18.460262689963
0.00189501310150843,18.4623076681769
0.00149509485429517,18.4643250020242
0.00113178214050599,18.46637513185
0.00078154126282145,18.4685905511254
0.000455909805223949,18.4709059711215
0.000237072350476037,18.4726263878939
3.54008348435508e-05,18.4743468046664
-0.000131731906016329,18.4758823021572
-0.000279291186744392,18.4773288932988
-0.000418873926456804,18.4787822904054
-0.00055929517885357,18.4803338745803
-0.000712512560859413,18.4821360226175
-0.000914805844657272,18.4847011336304
-0.00115674872654646,18.4880628196157
-0.00134741242819842,18.4909471953844
-0.00152047030240204,18.4937472697893
-0.00170812060931942,18.4969785984282
-0.00194033013315656,18.5012553940253
-0.00222470552400684,18.5069422730124
-0.0024567659081504,18.5121908620247
-0.00262596403617982,18.516944623701
-0.00272201659206878,18.521245296865
-0.00273456813816126,18.5251218162151
-0.0026576969351773,18.5285920518185
-0.00248978793857847,18.5317153058722
-0.0022297375500393,18.5345594069974
-0.00187394527339416,18.5371937481393
-0.00141043647618564,18.5397045593327
-0.000806645841875636,18.5422178297609
-1.06067877268048e-06,18.5448902135911
0.00107022335127256,18.5478414720515
0.00206571661270582,18.5502867883031
0.00297501070940113,18.5524101081344
0.00399968502334602,18.5547503538856
0.00501233923658381,18.5570225963077
0.00606078260290546,18.5592948387298
0.00702089949993544,18.561250800588
0.00799709803724179,18.563076194463
0.00903362206016462,18.5648185394801
0.0101748962186004,18.5665146531275
0.011458856348515,18.5681799387181
0.0128983579532524,18.5697949621633
0.0145251552997585,18.5713656360748
0.0163586832799843,18.572884547108
0.0184100719751233,18.5743412838652
0.0207105994939152,18.5757419738378
0.0232860742097651,18.5770871220102
0.026166465118054,18.5783786382465
0.0293841140925368,18.5796183162852
0.0329834342528477,18.5808108918896
0.0370129152199647,18.5819598970445
0.0415291398262948,18.5830689034245
0.0465980326257778,18.5841414191883
0.052298331687241,18.5851811880103
0.0587231630888732,18.5861919241438
0.0659841432065306,18.5871774654216
0.0742165966489396,18.5881418707879
0.0835867857821791,18.5890895425916
0.0943027633022238,18.5900254392326
0.106629738778092,18.5909553017456
0.120914713797255,18.5918860848356
0.137626939698289,18.5928266529693
0.157431060714725,18.593789101703
0.180661726433693,18.5947652200202
0.20759573826185,18.5957482277976
0.238973895777561,18.5967498424373
0.275823608071878,18.5977877437409
0.319818218415825,18.5988951771879
0.3554584035954,18.5997254050558
0.392492406001084,18.6005556329236
0.425365050915207,18.6012909780945
0.454095599723378,18.6019588382725
0.479178658270371,18.6025926924155
0.500603156189795,18.6032168258784
0.517928413266891,18.6038537815245
0.530160135290914,18.6045316359647
0.53516327036056,18.6052983914925
0.529641894509176,18.6061012346951
0.512212343485553,18.6069316649541
0.481344676718843,18.6078053155044
0.435113668998026,18.6087331112708
0.372539865124753,18.6097082349007
0.328878273810143,18.6102931068444
0.281538697386878,18.6108779787881
0.239347245879279,18.6113753136868
0.202876152676461,18.611798875775
0.17065641072224,18.6121764202421
0.141706072408768,18.612525172584
0.115409302782573,18.6128562139267
0.0913258700161704,18.6131779641216
0.0690782335350288,18.6134983908229
0.0482392847092089,18.6138276931259
0.0280406640389657,18.6141860749888
0.010173442495111,18.6145508601644
0.00106588020193661,18.6147615195324
-0.00719234467147959,18.6149721789003
-0.0137399035670682,18.6151561384736
-0.0197294681279956,18.6153410532735
-0.0257539989147445,18.6155474251685
-0.0315666271484287,18.6157717129832
-0.037009442422373,18.6160117559678
-0.0419949234299033,18.6162667945381
-0.0464776416099166,18.6165369990996
-0.0504375101800053,18.6168232073027
-0.053864186261379,18.6171267989068
-0.056796526776034,18.617455095151
-0.0591337079830243,18.6177970140892
-0.0609678236119171,18.6181632353252
-0.0623141731580402,18.6185574870469
-0.0631866598192915,18.6189842600568
-0.0635970072572653,18.6194491584413
-0.0635530775369315,18.6199592841224
-0.0630567070613495,18.6205238559661
-0.0620979324719504,18.6211566658468
-0.0606514587553734,18.6218756373442
-0.0586655276625203,18.6227079396472
-0.0560321716273452,18.6237005639835
-0.0524746458216371,18.6249602365064
-0.048409825723176,18.6263603077903
-0.0444750606993327,18.627714581938
-0.0407204882227865,18.6290279651198
-0.0371706489419503,18.6303028071834
-0.0338381176230838,18.6315399715308
-0.0307284610949456,18.6327395697635
-0.027842472595962,18.6339013519952
-0.0251773836903418,18.6350249123123
-0.0227276631733414,18.636109794698
-0.0204856357111888,18.6371555430019
-0.0184420093182684,18.6381617176397
-0.0165863433861584,18.6391278912246
-0.0149074663422278,18.6400536298438
-0.0133396410654316,18.6409711602406
-0.0118310364558082,18.6419121586941
-0.0103862275038245,18.6428781582903
-0.00900916941504648,18.6438712560337
-0.00770362638742899,18.6448939112353
-0.00647311888786576,18.6459490372601
-0.00532087243217122,18.6470401195355
-0.00424966012995474,18.6481713743467
-0.00326189726684856,18.6493479674597
-0.00235960288001305,18.6505763233536
-0.00154427316011309,18.6518645768472
-0.000816815112274803,18.6532232586695
-0.000177471217446813,18.6546663868525
0.000374272445977679,18.6562133120105
0.000827643718088359,18.6578417768166
0.00118085881087941,18.6595168088273
0.00145014622138202,18.6612567066316
0.00164996609776486,18.66308267732
0.00179385303417237,18.665023057737
0.00189480788126075,18.6671180192727
0.00196587277352205,18.6694293938429
0.00202121167899105,18.6720647229424
0.00207911901568602,18.6752557550297
0.00215772272376752,18.6789927626571
0.00226542354718414,18.6829828839881
0.00240934139828268,18.6873222687123
0.00259736800629009,18.6922723646214
0.00279755087125205,18.6971502878901
0.00300842966170488,18.7020784319902
0.00319792130997798,18.7063979500183
0.00337229313563238,18.7103037078527
0.00354215671274948,18.7140403309133
0.00371292019016708,18.7177167468294
0.00388825154147571,18.7213957284072
0.00407120318732779,18.7251214701869
0.00426462955351701,18.7289291311696
0.00447142300041725,18.7328494879992
0.00469469486982397,18.7369118124454
0.00493791795179988,18.741145419723
0.0052050955944205,18.7455809407139
0.00550100653696367,18.7502514723501
0.00583163051357106,18.7551940375651
0.00620484501907476,18.7604507732711
0.00659419432406121,18.7655886857128
0.00700758440222864,18.7706818566865
0.00744553732742145,18.7756923801175
0.00791288064386338,18.7806293242296
0.00841466315751412,18.7854953841389
0.00895696876178438,18.7902960965835
0.0095464601555499,18.7950344568958
0.0101904460080248,18.7997113804973
0.01090326624128,18.8043653385131
0.0117063918906368,18.8090519176393
0.0126167320716435,18.8137704261576
0.0136591954913618,18.8185418627067
0.0148709746095013,18.8234111967426
0.0163173966937159,18.8284889236657
0.0181570318819439,18.8341039619144
0.0205789880539346,18.8405513546894
0.022123364856071,18.8443413869711
0.0236996468542907,18.8481314192527
0.0250738175415385,18.8515300610931
0.0262331176143629,18.8546530773925
0.0271882766801477,18.8576671964144
0.0278880441425463,18.8605423737019
0.0283232919729321,18.8633484738242
0.0284812016458428,18.8662159206136
0.0283058893615061,18.8693494244397
0.0275584617094534,18.8734143006147
0.0267095405491909,18.8763150066644
0.0256490366190138,18.879215712714
0.0245773420287858,18.8817763391012
0.0235095759190733,18.8841332655442
0.0224416546409173,18.8863821809891
0.0213749301400482,18.8885711242802
0.0203126995981461,18.8907281771525
0.0192586014130787,18.8928721743755
0.0182161560067148,18.8950169751965
0.0171886404951246,18.8971734854179
0.0161790557212053,18.899350766209
0.015190128152111,18.9015566937183
0.0142243189627645,18.9037983908322
0.0132838337901657,18.906082531844
0.0123706365026414,18.908415560763
0.0114864565574304,18.9108038778907
0.0106327977569776,18.9132539969965
0.00981095318573695,18.9157726703686
0.0090220061291107,18.9183670507941
0.00825234806769755,18.9210983320729
0.00749644100660916,18.9240142481242
0.00675803561341583,18.9271365894756
0.00604099236906337,18.930490971556
0.0053493790475453,18.9341070646875
0.00468743234136555,18.9380193647362
0.0040594796240879,18.9422682647056
0.00346980949415869,18.9469016823595
0.0029224739256032,18.9519778503028
0.00242102118558011,18.9575704654354
0.00196828343959497,18.9637771001612
0.00157017894885572,18.9706566940743
0.00123825804469846,18.9780677617655
0.000970252363543828,18.9861182803107
0.000811037410621969,18.9929787212394
0.000664079369659408,19.0018117984208
0.000559134816559637,19.0111440128271
0.000488823038975914,19.0211440128271
0.000451922395480015,19.0311440128271
0.000441223811226656,19.0411440128271
0.000452156828920147,19.0511440128271
0.000482428479203522,19.0611440128271
0.00053190317742686,19.0711369641149
0.000596433120564803,19.080335097012
0.0006749202932077,19.0887775614171
0.000767550670570205,19.0965303729055
0.000875263292565703,19.103654516536
0.000999517437627424,19.1102054896491
0.001142193384406,19.1162339553086
0.00130556056117849,19.121786306069
0.00149228136257388,19.1269051242606
0.00170543791462185,19.1316295756732
0.00194857685092556,19.1359957656856
0.0022257740772374,19.1400370701288
0.00254172108419899,19.1437844445859
0.0029018395224894,19.1472667295043
0.00331243747545977,19.150510974295
0.00378092443898924,19.1535428000011
0.00431611992949729,19.156386830849
0.004928715098822,19.1590672630759
0.0056288641060535,19.1615983575388
0.00640858712342873,19.1639427480577
0.00728181392908995,19.1661460683246
0.00827165381192819,19.168259254189
0.00942076141532789,19.1703498013585
0.0108316582680369,19.1725482076939
0.0129130662045974,19.175319276648
0.0142366857071337,19.1769048112791
0.0156206894503922,19.1784903459102
0.0168753734851154,19.1799172380753
0.0179912659528121,19.1812298039944
0.0189816275131045,19.1824897768554
0.0198406297341695,19.1837411997764
0.0205479625188101,19.1850266680887
0.0210653255324305,19.1864041913915
0.0213146166560521,19.1879887567785
0.0210236821228513,19.1902314914704
0.0203520012526516,19.191916492
0.0193692803339802,19.1936014925296
0.0182759721206516,19.1951316161325
0.0170758287635793,19.1966353512267
0.0157761330551667,19.1981693507748
0.0143861129039274,19.1997706598951
0.0138882304443529,19.2003433972117
0.0133992058950348,19.2009161345283
0.0113228977587829,19.203539208565
0.00940485078267531,19.206317606776
0.00785096102047996,19.2089199160509
0.00654799314734018,19.2114394599869
0.00540310969588919,19.2140020335929
0.00444271285805757,19.2164939008747
0.00365731204342949,19.2188436347646
0.00300652125276078,19.2210708410893
0.00245881609750072,19.2231991300614
0.00198970897656648,19.2252555510387
0.00157925431618675,19.2272750643222
0.0012095199000226,19.2293106333115
0.000859314121803587,19.2314695404632
0.000477161723260261,19.2341397460208
0.00025750219055336,19.2358529328693
5.50707758892981e-05,19.2375661197179
-0.000114996225257254,19.2391169655549
-0.00026400236173656,19.2405679765818
-0.000404012689806916,19.2420165185168
-0.0005438866548368,19.2435520767384
-0.000694830143609109,19.2453149586123
-0.000887103570926392,19.247729805748
-0.00115062891918098,19.2513660686219
-0.00135937850770148,19.2545273033807
-0.00154097431062158,19.2574824869906
-0.00173555639005516,19.2608598991541
-0.00198103219399909,19.26542863329
-0.00225879417886192,19.2710607480291
-0.00248300941055932,19.276241218755
-0.00264314279530523,19.2809316663609
-0.00272872521486136,19.2851761878501
-0.00272964737559537,19.2889975789557
-0.00264081392587274,19.2924167949796
-0.00246072637213529,19.295500516685
-0.00218844032843377,19.2983114104488
-0.0018192659474149,19.3009246712334
-0.00133891902722766,19.3034309605334
-0.000707741570898571,19.3059726915089
0.000127772138277674,19.3086667643926
0.000987430060857046,19.3110215235508
0.00193841282525097,19.313376282709
0.00284265839266636,19.3154977976861
0.00383692715813391,19.3177743693505
0.00488945736034356,19.320142758952
0.0059777179461816,19.3225111485535
0.00695111857779983,19.3245050756034
0.00792657441196944,19.3263416380017
0.00895220460139813,19.328080383648
0.0100886680152777,19.3297858885692
0.0113588440047567,19.3314505731473
0.0127900876083906,19.3330739584067
0.0144006118401978,19.3346461545346
0.0162170973220568,19.3361680153201
0.0182537403589836,19.3376307390876
0.0205343142798484,19.3390349637884
0.0230877190799678,19.3403836236227
0.0259437948910274,19.341678629985
0.0291360873876389,19.3429222788629
0.0327057953776516,19.3441181598156
0.0367018272981085,19.3452702045004
0.041180149616064,19.3463819920352
0.0462063574419242,19.3474571199688
0.0518574463742727,19.3484991573442
0.0582256648768898,19.3495118854475
0.0654211264199553,19.3504991316352
0.0735772258630045,19.3514649376638
0.0828576610075756,19.3524136754568
0.0934668995900268,19.3533502481405
0.105665303114634,19.3542803312194
0.119792763056907,19.3552107713222
0.136307736670406,19.3561502639314
0.155856705927042,19.3571105907437
0.178839834523987,19.3580865671331
0.205479625761965,19.3590687174196
0.236501543426625,19.3600684654282
0.272904863920262,19.3611028655985
0.316289527751781,19.362203328492
0.352248578858484,19.3630453327619
0.389735833779511,19.3638873370317
0.422982664818373,19.3646301073984
0.452009660956938,19.3653018414906
0.477369364594786,19.3659373874656
0.499086783561399,19.3665614850596
0.516755425864979,19.3671965724273
0.529435530537796,19.3678699610249
0.535125488632686,19.3686271056391
0.530516392105972,19.3694285095734
0.514101004371178,19.3702560647548
0.484388674196568,19.3711257448396
0.43947745550408,19.3720488594819
0.377339562333819,19.3730332523828
0.333241865316324,19.373630067039
0.285214985745297,19.3742268816953
0.242443116834901,19.3747322966022
0.205572975892545,19.3751605842374
0.173060623246437,19.3755410138381
0.143878840487059,19.3758915750396
0.117390878810047,19.3762236836817
0.0931473523121791,19.3765458823373
0.0707692829192204,19.3768660968239
0.049839427568891,19.3771941955326
0.0296410468810265,19.3775489274265
0.00727817188645706,19.3780086821704
-0.000924043457846689,19.3782033779052
-0.00840793904237949,19.3783980736399
-0.0147644846175055,19.378579528956
-0.0207833174013235,19.3787685227273
-0.0267867359617258,19.3789782519227
-0.0325439264514392,19.3792053894419
-0.0379119805764536,19.3794480651842
-0.0428123577289094,19.3797057089811
-0.0472049958592968,19.3799786214577
-0.0510730775244479,19.3802677407503
-0.0544113309073259,19.3805750705776
-0.0571849726904736,19.3808985648254
-0.0594442811317397,19.381243879417
-0.0612034791508822,19.3816140973638
-0.0624771027607304,19.3820129674169
-0.0632788190480377,19.3824451293468
-0.0636198816369983,19.3829163857432
-0.0635073965540121,19.3834341109388
-0.0629417777105581,19.3840081243965
-0.0619110647836873,19.3846526949439
-0.0603869199350261,19.3853868062471
-0.0583117529243136,19.386239676374
-0.0555634263910175,19.3872633080554
-0.0518095647298386,19.3885841122991
-0.047761289835601,19.3899759590851
-0.0438532765519419,19.3913233281996
-0.0401306220697046,19.3926303449372
-0.0366153758895738,19.3938990396115
-0.0333187423338002,19.3951301141628
-0.0302453993285135,19.3963236007252
-0.027395494602172,19.3974792131259
-0.0247657634015303,19.3985965317424
-0.02235028757315,19.3996750980642
-0.0201410953949032,19.4007144580556
-0.0181286781004493,19.4017141747766
-0.0163024494072724,19.4026738213208
-0.0146511551830737,19.4035929601568
-0.0130925004562805,19.4045142073605
-0.0115938988058257,19.4054591041577
-0.010159740554759,19.4064293187862
-0.00879395405008065,19.407427001074
-0.00750026758284826,19.4084546768002
-0.00628215761713482,19.4095153426172
-0.00514279484710039,19.4106125896693
-0.00408486884114604,19.4117507705055
-0.00311075034264095,19.4129352298142
-0.0022223783922098,19.4141726323513
-0.00142115892058006,19.4154714446243
-0.000707897281981481,19.4168426712101
-8.27209042602367e-05,19.4183010372083
0.000455016422961644,19.41986701009
0.00089098725561321,19.4215017389889
0.0012296198991615,19.4231860272637
0.00148673586148621,19.4249382411659
0.00167662439797418,19.4267805357358
0.00181270392543532,19.4287427543632
0.00190793582436256,19.4308676958807
0.00197544774983131,19.4332223171887
0.00202977000171428,19.4359261485094
0.00209057247520184,19.4392505557648
0.00217257648043333,19.4430000774792
0.00228668277412293,19.4470693002281
0.00243656771086763,19.4514679612653
0.00263070783345863,19.4565000679367
0.00283248442355501,19.4613721476132
0.00304598990106913,19.4663371176077
0.00323155238882645,19.4705510139977
0.00340451887550908,19.47441237137
0.00357422691719847,19.4781313267856
0.00374560530603031,19.4818041914955
0.00392215479669195,19.4854889658232
0.00410686907583233,19.4892276546624
0.00430259472441143,19.4930543064299
0.00451225384798205,19.4969992479516
0.00473901480175705,19.5010916475372
0.00498643648337295,19.5053609795526
0.00525864625416306,19.5098382497855
0.00556060999359524,19.5145571761113
0.00589860209887722,19.5195556740916
0.00627770134319314,19.5248324075843
0.00667049192614564,19.5299500826219
0.00708858050784722,19.5350316260437
0.00753165446496508,19.540026926739
0.00800511598920105,19.5449502754514
0.00851408423781618,19.5498035518127
0.00906479821071626,19.554592296823
0.00966403067431844,19.5593190108629
0.010319218351648,19.5639842442516
0.0110481381076416,19.5686454128332
0.0118699844170976,19.5733369085077
0.0128032143206808,19.5780634857655
0.0138743449139855,19.5828488067394
0.0151242082639892,19.5877459260035
0.016627607927502,19.5928876860534
0.0185844289382854,19.5986997072223
0.0204470795649824,19.6036127902373
0.0220222826471839,19.6074908410377
0.0236351236193238,19.611368891838
0.0250212036103851,19.6147890067627
0.0261891768706112,19.617920081314
0.0271530569242679,19.620936010916
0.0278641131497284,19.6238165944621
0.0283106871954727,19.6266231659557
0.0284810825877144,19.6294847772032
0.0283222705365162,19.6326000320574
0.0276141519702313,19.6365848631027
0.0267715818486414,19.6395221924229
0.0257088077622236,19.6424595217431
0.0246359807866219,19.6450373743315
0.0235680974607052,19.6474024258469
0.0225001640673958,19.6496557215694
0.0214332829110209,19.6518470860486
0.0203707005525709,19.6540053245513
0.0193160534221076,19.6561496347997
0.0182728733235015,19.6582940823167
0.0172444512913036,19.6604497010397
0.0162338042527804,19.6626256308533
0.015243672747314,19.6648298012369
0.014276532469364,19.6670693666948
0.0133346029044678,19.6693510190817
0.0124198595202806,19.6716812133099
0.0115340458732336,19.6740663440079
0.0106786778612077,19.6765129147026
0.00985505892188808,19.6790276636848
0.00906428382241751,19.6816177175296
0.00829397906365214,19.6843394987633
0.00753721669068582,19.6872448554283
0.00679775335877072,19.6903553456873
0.00607943565951643,19.6936963924842
0.00538632316977784,19.6972974174478
0.00472264432944004,19.7011926330564
0.00409272425243567,19.7054220776635
0.00350085828467326,19.7100332013413
0.00295111709066473,19.7150835771142
0.00244708386159362,19.7206458708502
0.00199163195678953,19.7268160844728
0.00158978042733376,19.733669905237
0.00125447456370534,19.7410501265169
0.000982500142180845,19.7490630496948
0.000826888456538402,19.7555961500752
0.000673349614345201,19.7645377444027
0.000566329573203539,19.773756292777
0.000493001161243334,19.783756292777
0.000453788470808135,19.793756292777
0.000441241921756633,19.803756292777
0.000450601126909801,19.813756292777
0.000479399245014193,19.823756292777
0.000527368326191896,19.833756292777
0.000590738716238461,19.8430158278806
0.000668108095026941,19.8515164405294
0.000759575535651923,19.8593223289025
0.000866029454559559,19.8664948632545
0.000988891760484921,19.8730899546311
0.00113001052058198,19.8791586322245
0.00129162410787645,19.8847476136363
0.00147636262359681,19.8898997723897
0.00168727314660729,19.8946545353457
0.0019278628601235,19.8990482413938
0.00220216241016494,19.9031144741183
0.00251481002857307,19.9068843725509
0.00287116369600843,19.9103869356213
0.00327745341155471,19.9136493440197
0.00374099036931839,19.9166973190464
0.0042704665594128,19.9195555466336
0.0048764006849783,19.9222482317048
0.00557071214345573,19.9247961292801
0.0063437349251711,19.9271537293101
0.00720887991495578,19.9293664681805
0.00818832042339862,19.9314847035869
0.00932239965092012,19.933573726306
0.0107053258528103,19.9357549672106
0.0127254109591288,19.938476517147
0.0140611130441465,19.940090358533
0.0154646995310331,19.9417041999191
0.0167382194184151,19.9431507536798
0.0178690433209455,19.9444729112468
0.01887384593122,19.9457365305169
0.0197487291661995,19.9469868783128
0.0204750387411108,19.9482659697631
0.0210171069410718,19.9496288135133
0.0213039936866486,19.9511792105103
0.0211152326080885,19.9532762446661
0.0204899773655239,19.9550198743129
0.0195174681412409,19.9567635039598
0.0184379103302859,19.9583077838635
0.0172525545216719,19.9598111618689
0.0159664755784406,19.9613384432245
0.0145888908410361,19.9629280198843
0.01415806645047,19.9634230657247
0.0137294347030985,19.9639181115651
0.0131894670475992,19.9645569073038
0.0111107906635053,19.9672178171202
0.00923362563818602,19.9699772040149
0.00771218513323196,19.9725621741728
0.0064265078267728,19.9750844519694
0.00529595071470737,19.9776531383146
0.0043554646999163,19.980129911115
0.00358547764827277,19.9824661373289
0.00294648686906307,19.984682158588
0.00240780545280335,19.9868018291925
0.00194552388808058,19.9888527230948
0.00154005664125067,19.9908708555109
0.00117341135079466,19.9929125397091
0.000823441385673582,19.9950956800267
0.000474820489990895,19.9975478400134
0.00025265957031455,19.9992829046092
0.000166115174049469,20
