ecg,time
0.00311807259429212,15.0013045298227
0.00257582280570556,15.0043789213483
0.00212462759847259,15.0076479519452
0.00176122404500434,15.0111496796319
0.00148653177470182,15.0149311074189
0.00130848120998334,15.0190518364213
0.00124784105473423,15.0233851421268
0.00130536955318745,15.0272354548591
0.00145765500200181,15.030700063116
0.00169254298095261,15.0338212100007
0.00200438068246974,15.0366472291095
0.0023922695147639,15.0392261179742
0.00286009240916865,15.0416077903073
0.00341716570739044,15.043842876131
0.00408116804766839,15.0459873720641
0.00488407622541831,15.0481088962188
0.0058901400605912,15.0503098604409
0.00722784072103122,15.0527490608281
0.00901930589510083,15.055484312698
0.0106138138493934,15.0575802829876
0.0124301910454513,15.0596762532773
0.0142100517577132,15.061476058911
0.0160204232254464,15.063082740593
0.0179420976553039,15.0645750602421
0.0200213771976124,15.0659812992376
0.0223196204209271,15.0673285630817
0.0248694031762511,15.0686189541582
0.0277209760241044,15.0698613725703
0.0309131425627067,15.0710565735978
0.0344990921740839,15.0722093089185
0.0385281539923003,15.0733208936879
0.043063623202283,15.0743949297952
0.0481746079910738,15.0754341460052
0.0539397781991803,15.0764411887298
0.0604550677032931,15.0774194944915
0.0678323401920096,15.0783723339118
0.076205026734423,15.0793031229513
0.0857362934617536,15.0802156962619
0.0966256289244073,15.0811141506834
0.109121207403801,15.0820030450205
0.123536565179058,15.0828875670693
0.140277416326793,15.08377390645
0.159881021887005,15.0846696686365
0.18308846467384,15.0855849086933
0.210236020379247,15.0865104585777
0.241682064019674,15.087441723445
0.278258850259034,15.0883894274652
0.321174255841172,15.0893721875544
0.372691863855367,15.0904328404472
0.416637468267221,15.0912819358313
0.452320039810922,15.0919642649354
0.483188722212462,15.0925745742196
0.510303915062069,15.0931542008446
0.533770096192392,15.0937282862035
0.553178147068932,15.0943204938525
0.567492918017785,15.0949631125737
0.574193797002709,15.0957133294182
0.569441369326346,15.0964799132297
0.552156529290077,15.0972845510003
0.520562439338184,15.0981466456025
0.475211442866883,15.0990301225091
0.414877307985358,15.0999524413954
0.364325941590886,15.1006116769155
0.308537365164089,15.1012709124356
0.259972245754443,15.1018116348785
0.219244740270396,15.102255238718
0.183943244211957,15.1026414216653
0.1525748591962,15.1029929325455
0.124286062009529,15.1033231189607
0.0985159497803018,15.1036413070753
0.0748243329684433,15.103955584235
0.0527685928151897,15.1042752772866
0.0316765480738237,15.104616486406
0.00937948749884346,15.1050342337338
-0.00104847432181881,15.105259234132
-0.00853171331647369,15.1054368706338
-0.0153816724207571,15.1056145071355
-0.0214055513882965,15.1057855164183
-0.0275881452722748,15.1059791603822
-0.0336364793607204,15.1061914154364
-0.0393556054021559,15.1064196015405
-0.0446353240892431,15.1066625972446
-0.0494165158983951,15.1069203068975
-0.0536708271267336,15.1071933509552
-0.0573887542658392,15.1074829107641
-0.0605724392166265,15.1077906675939
-0.0632251622302913,15.1081188038034
-0.065381158411134,15.1084759790458
-0.0669747195585065,15.10885073126
-0.0680812865504822,15.1092557297998
-0.0687146192326207,15.1096962275046
-0.0688846087860358,15.1101787349097
-0.0685957488982261,15.1107116411289
-0.0678430580408795,15.1113068469435
-0.0666065062456762,15.1119807680866
-0.0648434008137336,15.1127570070559
-0.0624658285343883,15.1136745759508
-0.0592665169602333,15.1148135007898
-0.0550724950776657,15.1162443232684
-0.050972481567296,15.1176256308483
-0.047029648746728,15.1189661267279
-0.0432781562791491,15.120268669469
-0.0397363164895167,15.1215343164289
-0.0364138238532875,15.1227632179026
-0.0333147713607768,15.1239550860883
-0.030439132966918,15.125109443032
-0.0277836562679426,15.1262257504074
-0.0253425174235564,15.1273034739902
-0.0231078706980235,15.128342110058
-0.02107034063322,15.1293411881443
-0.0192194701100843,15.1303002580663
-0.0175441253313201,15.1312188656233
-0.0159601518897647,15.1321400792725
-0.0144352829733034,15.133084963813
-0.0129738734103536,15.1340551908648
-0.011579813114345,15.1350529099589
-0.0102567838626625,15.1360806474201
-0.00900820505774268,15.1371414013318
-0.00783717901274121,15.1382387653097
-0.0067464332034438,15.139377095673
-0.00573825899881646,15.1405617425956
-0.00481444568524757,15.1417993787058
-0.00397620742434144,15.143098481881
-0.00322409865405089,15.1444700734768
-0.00255790926290392,15.1459289042595
-0.00197652186050351,15.147495483103
-0.00149565335369844,15.14913024351
-0.00111123992751391,15.1508146826455
-0.00080708886489001,15.1525671588693
-0.000568465041018403,15.1544098554799
-0.00038135431795469,15.1563726639301
-0.000231948374903407,15.1584984705297
-0.000105803093476555,15.1608544082723
1.39585014688566e-05,15.1635604331778
0.000152377354656592,15.1668893942208
0.000317686541709719,15.170639026049
0.000517301787772483,15.1747106005558
0.000775495374790884,15.1795058154919
0.00104148968445899,15.1841916451348
0.00129408834263668,15.1885731286562
0.00154132494886976,15.1928852119786
0.00179690146641418,15.1974096944518
0.00207734326038511,15.202462748975
0.00234602593263339,15.207362342353
0.00261892169507792,15.2123658836851
0.0028553094463543,15.2166823423225
0.00307405799188868,15.2206431754173
0.00328757278677896,15.2244604421178
0.0035021463770275,15.2282330174016
0.00372204804013171,15.232020629658
0.00395083164479311,15.2358665963227
0.00419185979196872,15.2398062620702
0.00444858351333054,15.2438709236959
0.00472477863935208,15.2480906484371
0.00502473759256203,15.2524957667238
0.00535351505700912,15.2571181259428
0.0057173117149189,15.2619923923419
0.00612409339261705,15.2671571677668
0.0065475030474321,15.2722218866408
0.00699521837428968,15.2772476123203
0.00746784684003092,15.2821986022085
0.00797004987794494,15.2870788263681
0.00850693254431917,15.2918887008764
0.00908477864680558,15.2966323767449
0.00971061581276303,15.301312776542
0.0103922165314942,15.3059313191055
0.011153320201443,15.3105762765025
0.0120092256058088,15.315249239915
0.0129807378782256,15.3199637248038
0.0140965911841202,15.3247474276035
0.0154021475368769,15.3296644864154
0.0169861642409279,15.3348790216327
0.0191176435777166,15.340974957131
0.0208728997301868,15.3454752541372
0.0227324906433498,15.3499755511435
0.0242902111956627,15.3537218432807
0.0255854833513302,15.356997552825
0.0266699922649837,15.3600640643071
0.0275367365694752,15.3630428363131
0.028134170988279,15.3658812040251
0.0284633550520821,15.3686993449698
0.0284984057049033,15.3716463518431
0.0281448606162147,15.3750163353112
0.0271205187754733,15.3793560095969
0.026219965007777,15.3820330655381
0.0251607870454626,15.3847101214793
0.0240879408863774,15.3871569105574
0.0230139670448362,15.389459434747
0.0219394623038495,15.3916816651181
0.0208672636327243,15.3938596937006
0.0198010210890957,15.3960163896866
0.0187444218913935,15.3981678855895
0.0177009493006241,15.4003264855513
0.016673819553499,15.4025021492899
0.0156659704557741,15.4047033462483
0.0146800663311435,15.4069375912309
0.013718511610835,15.4092117959514
0.0127834575977264,15.4115325360903
0.0118768150910415,15.4139062437234
0.0110002653414351,15.4163393647415
0.0101552624471606,15.4188385184926
0.00934304846463049,15.4214106131033
0.00856465648453304,15.4240629938437
0.00779924984992462,15.426886866235
0.00704960383669635,15.429905157341
0.00631953362150609,15.4331413981359
0.00561298541694869,15.4366227666971
0.00493406535766119,15.4403807181414
0.00428699064943097,15.4444518391866
0.00367598207007686,15.4488790744361
0.00310509190052533,15.4537137418183
0.00257797435696387,15.4590189809104
0.00209758118526181,15.4648763410984
0.00166606031826952,15.4713946486541
0.00129402397098959,15.4785216029262
0.000983548432194471,15.4862304773363
0.0007280048194717,15.4946459101732
0.000526988738743838,15.5039334021226
0.000381859893103875,15.5139334021226
0.000285886080294204,15.5235649222001
0.000215734810399989,15.5335649222001
0.000166896198358487,15.5435649222001
0.000133358535716433,15.5535649222001
0.000110760628832391,15.5635649222001
9.58711559847804e-05,15.5735649222001
8.63622519274295e-05,15.5835649222001
8.06148418106852e-05,15.5935649222001
7.75275441043887e-05,15.6035649222001
7.63559326203934e-05,15.6135649222001
7.65957752956247e-05,15.6235649222001
7.79054134105487e-05,15.6335649222001
8.00556013106041e-05,15.6435649222001
8.2896523909532e-05,15.6535649222001
8.63353968278968e-05,15.6635649222001
9.0320970362311e-05,15.6735649222001
9.48328749510501e-05,15.6835649222001
9.98745063189881e-05,15.6935649222001
0.000105468530297447,15.7035649222001
0.000111654342340937,15.7135649222001
0.000118487026115458,15.7235649222001
0.000126037531597382,15.7335649222001
0.000134393937806852,15.7435649222001
0.00014366378699622,15.7535649222001
0.000153977589816941,15.7635649222001
0.000165493721103354,15.7735649222001
0.000178405071914745,15.7835649222001
0.000192948018610946,15.7935649222001
0.000209414547254285,15.8035649222001
0.000228168783271342,15.8135649222001
0.000249669806568465,15.8235649222001
0.000274503623891785,15.8335649222001
0.000303428771477235,15.8435649222001
0.000337442677140588,15.8535649222001
0.000377880445885102,15.8635649222001
0.000426565725921075,15.8735649222001
0.000484448082446096,15.8833175881186
0.000550095210622587,15.8923376631633
0.000624349301881622,15.9006622874597
0.000708317863014478,15.9083450185596
0.00080328474727364,15.915436236023
0.000910711500625267,15.9219826755471
0.0010322548355885,15.9280277106102
0.00116979085883417,15.9336116212746
0.00132544518623528,15.9387718018202
0.00150162576795438,15.9435429537093
0.00170106197268128,15.9479572937807
0.00192685066492462,15.9520447665128
0.0021825123759724,15.9558332250618
0.00247205443599988,15.9593485898779
0.00280005503190248,15.9626150310154
0.00317176609101429,15.9656551655533
0.00359324662385949,15.9684902387755
0.00407154015593158,15.9711403323203
0.00461491782591523,15.973624621526
0.00523322388313277,15.9759616779285
0.00593824055417567,15.9781694594485
0.00671574499410568,15.9801977962704
0.0075745621989828,15.9820800679149
0.00852811573464305,15.9838497157313
0.00959669387125582,15.9855410486712
0.0108145515146128,15.9871955710872
0.0122723612126638,15.9889024221677
0.0142568750936702,15.990899297308
0.015975207463911,15.9924281583331
0.0178351415029992,15.9939570193581
0.0195389487332372,15.9953019037206
0.0210340644429326,15.9964846006329
0.0223747737926423,15.9975915165465
0.0235730885794404,15.9986718883748
0.0246180906854583,15.9997636970168
0.0254815072940467,16.0009099123105
0.0261085917209392,16.0021800863619
0.0263678696386435,16.0037524247408
0.0258545816476814,16.0058729729547
0.0248393638489298,16.0075798311098
0.0236921272325428,16.0090055128649
0.0224038792203851,16.0103880270576
0.02097216826348,16.0118066166363
0.0194055430378967,16.013302249609
0.0177098130541344,16.0149142046836
0.0159211127107329,16.016695301136
0.0143316857520654,16.0184169383052
0.0128771148023289,16.0201385754744
0.0116857100404571,16.0216790086075
0.0106514846170592,16.0231338334345
0.00969448269944998,16.0245990170625
0.00875799302794226,16.0261683267424
0.00777118978263742,16.0280027164849
0.00660384102862733,16.0304855812669
0.00557995846992028,16.0330466430989
0.00474126199314101,16.0355245773165
0.00401855517418018,16.0380546055723
0.00334288721283303,16.0409068014608
0.00276553990654805,16.0439174815441
0.00228120152556403,16.0471104592648
0.00188547531637485,16.0505211448283
0.00157749544367491,16.054192900906
0.0013621309428527,16.0581801302972
0.00125445984428058,16.0625531308807
0.00127230200181275,16.0665644128484
0.00139160458379347,16.0701663872709
0.00159709164618656,16.0734081287111
0.00188101560515671,16.0763372542889
0.00224065247631768,16.0790004587304
0.00267827727745743,16.0814486311315
0.00320103913888717,16.083731659117
0.00382275087340811,16.0859017993839
0.0045690454627056,16.0880215733894
0.00548865273979252,16.0901761752459
0.00668102329971297,16.0925010627664
0.00834293141594408,16.0952039759934
0.0103683432365076,16.097971878793
0.0119131774698804,16.0998052150256
0.013656813526118,16.1016385512582
0.0154398040344081,16.1032872381425
0.0173233457150743,16.1048134976958
0.0193481568817728,16.1062444002778
0.0215710024622427,16.1076079629485
0.0240377984729576,16.1089158799716
0.0267867484331392,16.1101716929871
0.0298670096537555,16.1113816079604
0.0333233583378587,16.1125474652397
0.0372064998171762,16.1136716779224
0.0415764078393408,16.1147575073952
0.0464969001910997,16.1158071592579
0.0520464089088508,16.1168240027451
0.0583145797194659,16.1178110921896
0.0654064372602803,16.1187715320788
0.0734492911714979,16.1197088725372
0.0825960382879765,16.1206267853281
0.0930333478205767,16.1215292382492
0.104992042845213,16.1224205964432
0.118763555400714,16.1233058834733
0.134720956796733,16.1241909206342
0.153354166098425,16.1250827829879
0.175328497748613,16.1259905667265
0.201262366896792,16.1269159455237
0.231277117084996,16.1278444641737
0.266132894193145,16.1287855139099
0.306884161750162,16.1297543509482
0.355314223833866,16.1307827265029
0.391989126535271,16.1315064071152
0.429814324160071,16.1322300877275
0.463431662604756,16.1328773465709
0.492947041179291,16.1334735932881
0.518819433102882,16.1340487385986
0.540956939692531,16.134626218505
0.558768764379853,16.1352313112386
0.570879822877393,16.1359032719861
0.573942492816477,16.1366563267592
0.565272224349269,16.1374329503908
0.54357238416359,16.1382542751486
0.506990827328964,16.1391353198119
0.456783664118679,16.1400303997913
0.39232832577985,16.1409528081222
0.344313788403588,16.1415515077019
0.292376042457282,16.1421502072816
0.246787252563189,16.1426526100795
0.207964273400829,16.1430750268116
0.173986461459349,16.1434487621557
0.143631900678629,16.1437925957666
0.116164437579437,16.1441182269629
0.0910739439220875,16.1444343611015
0.0679332988540674,16.1447491577248
0.0462661832015265,16.1450731002029
0.0252083323940959,16.1454274434244
0.00756147566982866,16.1457688297352
-0.00184507931493176,16.1459744357025
-0.0103718510085461,16.1461800416697
-0.0170282956370438,16.1463567436643
-0.0231414795388757,16.1465348488075
-0.02931306126911,16.1467341280539
-0.0352840657088763,16.1469510565536
-0.0408880299093169,16.1471834700814
-0.0460318809125359,16.1474305797407
-0.050666752777509,16.147692514417
-0.0547705426621889,16.1479700630786
-0.0583376093033255,16.1482645508006
-0.0613724660832913,16.1485777974183
-0.0639361041777178,16.1489214680478
-0.0658867598575367,16.1492771579865
-0.0673394503648607,16.1496600111575
-0.068309685639741,16.1500745658316
-0.0688099347973636,16.1505263219766
-0.0688487785093036,16.1510222616443
-0.0684286985263329,16.1515714462213
-0.0675407415124837,16.1521872316274
-0.0661596683651212,16.1528874779943
-0.0642331937096059,16.1536990406693
-0.0616515680176388,16.1546684153068
-0.0581329466152657,16.1559013089828
-0.0539580428880664,16.1573165526207
-0.0498956233476952,16.1586864995869
-0.0460017784195735,16.1600166436212
-0.0423052956065618,16.1613092372624
-0.0388217314320168,16.1625650333926
-0.0355590775774665,16.1637840326326
-0.0325202130429715,16.1649658793594
-0.0297041728035947,16.1661100708864
-0.0271069562483913,16.1672160661235
-0.024722145747177,16.168283337966
-0.0225414384262444,16.1693113923452
-0.0205551261647352,16.170299766204
-0.0187525322588532,16.1712480111796
-0.0171224043851537,16.1721556667293
-0.0155533890727199,16.1730830410378
-0.014044816532329,16.1740343974781
-0.0126007418593691,16.175011629943
-0.0112250065661356,16.1760169784407
-0.00992122861653973,16.1770530832082
-0.00869274950286709,16.1781230853993
-0.00754257874453401,16.1792307607624
-0.00647333529128621,16.1803807012332
-0.0054871851696538,16.1815785677512
-0.00458577393777465,16.1828314525819
-0.00377015116101873,16.184148416867
-0.00304068159274322,16.1855413224423
-0.00239693265133957,16.1870261883139
-0.00183751659014787,16.1886255567837
-0.00138421986099698,16.1902715792917
-0.00102274523594004,16.1919723448928
-0.000737505076359203,16.1937464960406
-0.000513995376767534,16.1956179423425
-0.000338316222976575,16.1976193719624
-0.000196593448506592,16.1997986521013
-7.39794664690561e-05,16.2022329543643
4.7683719558515e-05,16.2050671046968
0.000198536146530778,16.2086673637682
0.000370634267669304,16.2124588163957
0.000584468588792237,16.216692601908
0.000855640936815092,16.221631476045
0.00111757409014703,16.22620999764
0.00136749461984469,16.2305454523387
0.00161544760392902,16.2348863844731
0.00187779241081823,16.2395551131511
0.00215275920528002,16.2445295156547
0.00242074170291432,16.2494277902058
0.00268919012234116,16.2543490030197
0.00291877128876854,16.2585326040801
0.00313516995858049,16.2624382442324
0.00334847568224406,16.2662350800961
0.00356418161339772,16.2700068227227
0.00378627019496841,16.2738071084203
0.00401820589726307,16.2776764488066
0.0042633507290142,16.281648689634
0.00452522756386229,16.2857545619712
0.00480773892526767,16.2900240709679
0.00511536541244048,16.2944878532857
0.0054534410927059,16.299178422994
0.00582859497244898,16.3041314867138
0.0062429178930814,16.3093067846178
0.00667207711994182,16.3143505711114
0.00712684502946062,16.3193592015633
0.00760731155725106,16.324289103088
0.00811880390386759,16.32914917882
0.00866664628887351,16.3339398108344
0.00925738128054798,16.3386652853463
0.00989823747395828,16.3433280302266
0.0105998094887868,16.3479454014071
0.0113863140354392,16.3525989231587
0.0122726897336061,16.3572817539988
0.0132818387266361,16.3620121048606
0.0144459193068335,16.3668246951534
0.0158183531981884,16.3718020326555
0.0175134731981345,16.37716764959
0.0199255346559922,16.3837871858197
0.0215486355180488,16.3878274585345
0.0232325944566384,16.3918677312492
0.0246949482024935,16.3954167450996
0.0259253378310592,16.3986098592232
0.0269496092259529,16.4016461884997
0.0277368246747218,16.4045707807091
0.0282572909581094,16.4073901677593
0.028505702815755,16.4102276551286
0.0284435638866228,16.4132532715517
0.0279280131970793,16.4168819509545
0.0271186255473874,16.4200568640357
0.0260317063022763,16.4232317771168
0.0249449514452874,16.4259142394101
0.0238701651331317,16.4283286978784
0.0227958275537057,16.4306112912513
0.0217215012009677,16.4328222940039
0.0206502018644816,16.4349944862859
0.0195856185073126,16.4371490281303
0.018531406286579,16.4393011089729
0.0174909975710879,16.4414624640838
0.0164675509838323,16.4436426982986
0.0154639487639568,16.4458500504374
0.0144828009119001,16.4480918898446
0.0135264590687197,16.4503750431743
0.0125970265478017,16.4527060386329
0.0116963655463588,16.4550913019847
0.0108261097101973,16.4575373055337
0.00998767123067991,16.4600507115457
0.00918224785049026,16.4626385093348
0.00840709606573976,16.4653215909209
0.00764461723845635,16.4681834563389
0.00689867096079703,16.4712442362708
0.0061730938444517,16.474528197155
0.00547186371642033,16.4780633385192
0.00479911635830452,16.4818820813009
0.00415908044781298,16.48602219001
0.0035559591004535,16.4905281114358
0.00299374582668572,16.4954532041188
0.00247596522413668,16.5008638108631
0.00200541286100857,16.5068461869045
0.00158408024230248,16.5135159976585
0.00122526426039283,16.5207545764767
0.000926636400961345,16.5285975366713
0.000681619142274334,16.5371775543355
0.000491950945184788,16.546669930068
0.000380600620171355,16.5547916791145
0.000281666179650291,16.5647916791145
0.000212708808792774,16.5747916791145
0.000164772175498982,16.5847916791145
0.000131912296742847,16.5947916791145
0.00010980313564678,16.6047916791145
9.52542958207227e-05,16.6147916791145
8.59800917531718e-05,16.6247916791145
8.03960285306098e-05,16.6347916791145
7.74249732943981e-05,16.6447916791145
7.63382455599616e-05,16.6547916791145
7.66417677721878e-05,16.6647916791145
7.80006922233773e-05,16.6747916791145
8.01905584132851e-05,16.6847916791145
8.30650093313947e-05,16.6947916791145
8.653378852301e-05,16.7047916791145
9.05475126218942e-05,16.7147916791145
9.50872213834581e-05,16.7247916791145
0.000100157421192534,16.7347916791145
0.000105781709782052,16.7447916791145
0.000112000325989788,16.7547916791145
0.000118869178739229,16.7647916791145
0.000126460084591724,16.7747916791145
0.000134862086312798,16.7847916791145
0.000144183845475397,16.7947916791145
0.000154557214647343,16.8047916791145
0.000166142215675083,16.8147916791145
0.000179133798555037,16.8247916791145
0.000193770953954495,16.8347916791145
0.000210349035577275,16.8447916791145
0.000229236569316757,16.8547916791145
0.000250898471317323,16.8647916791145
0.000275928613543655,16.8747916791145
0.000305096319177788,16.8847916791145
0.000339414100728748,16.8947916791145
0.000380238623296226,16.9047916791145
0.000429425120221311,16.9147916791145
0.000487694864462378,16.9245049542312
0.000553768228936297,16.9334871456315
0.000628502544121979,16.9417767786759
0.000713014569068706,16.9494272573162
0.000808597138477266,16.9564887627533
0.000916721461531878,16.963007846858
0.00103905509421877,16.9690277144657
0.00117748641644084,16.9745884897713
0.00133415506961476,16.9797274206599
0.00151148474410176,16.9844790730147
0.00171222299046452,16.9888755392147
0.00193948730986912,16.9929466500321
0.00219682216305717,16.9967201530434
0.00248826255419334,17.0002218721492
0.00281841915522283,17.003475891066
0.00319258276856791,17.0065047504445
0.00361685906413513,17.0093296289514
0.00409834918875054,17.0119705538413
0.00464539725093875,17.0144466607296
0.00526794218542662,17.0167764994807
0.00597650517997484,17.01897410677
0.0067579420241201,17.0209940630057
0.00762127282798601,17.0228697178654
0.00858018185952436,17.0246344614302
0.00965544708932296,17.0263227752892
0.010882405907156,17.0279768368197
0.0123584682696758,17.0296918351654
0.0143881667554088,17.0317174759112
0.0160875078519279,17.0332194300174
0.0179208256619708,17.0347213841235
0.0196102962621356,17.0360538491621
0.0210974886865613,17.0372315135523
0.0224317576536538,17.0383363342179
0.0236235388760989,17.0394164191425
0.0246611210243687,17.0405096571036
0.0255153609495039,17.0416596190497
0.0261297401667349,17.0429380301975
0.0263656448453293,17.04453398893
0.0259986042948162,17.0462200176002
0.0250940386459173,17.0479060462703
0.0239982394185262,17.0493435389473
0.0227511470712361,17.0507230960626
0.0213568850246244,17.0521273830237
0.0198252044220161,17.0535991380988
0.018163507976167,17.055176236421
0.0168443196932315,17.0564533466039
0.0155965934348287,17.0577304567868
0.013750042800226,17.0597821940872
0.0123753219119458,17.0614669784985
0.0112582535783108,17.0629612429892
0.0102624025193909,17.0644099352882
0.00932031371317467,17.0659039033755
0.00837473784373409,17.0675518953219
0.00733005173158806,17.0695913227028
0.0062170704691587,17.0720991783265
0.00524353109332618,17.0746875192863
0.00445644248152347,17.0771655829998
0.00375623163315131,17.0797904741679
0.00311775388666698,17.0826986543868
0.00257555141948309,17.0857731385991
0.00212440063162368,17.0890422799308
0.00176104010493476,17.0925441402919
0.001486391820117,17.0963257281598
0.00130839031623536,17.1004466524888
0.0012478092443271,17.1047797570872
0.00130538177742191,17.1086299197993
0.00145770357564295,17.1120943926757
0.00169262376674335,17.1152154230749
0.00200449193582856,17.1180413440984
0.00239241110017887,17.1206201513182
0.00286026635093422,17.1230017606778
0.00341737672670626,17.1252368037126
0.00408142369615158,17.1273812759205
0.00488439195414315,17.1295028048613
0.00589054534762147,17.1317038139652
0.0072283962627683,17.1341431250094
0.00901999096764799,17.1368783996136
0.0106144376183335,17.1389741709415
0.0124307287347443,17.1410699422695
0.0142105776215934,17.142869658025
0.0160209818719654,17.1444762988684
0.0179427028390123,17.1459685874365
0.0200220472342382,17.1473748048966
0.0223203706255594,17.1487220512795
0.0248702439217387,17.1500124252102
0.0277219248118711,17.1512548293231
0.0309142111128383,17.1524500157366
0.0345002968457976,17.1536027373932
0.0385295149999316,17.1547143099767
0.043065160284971,17.1557883344614
0.0481763456943216,17.1568275400843
0.0539417450371576,17.157834573277
0.0604572974877148,17.1588128706086
0.0678348732906953,17.1597657027592
0.0762079124251647,17.1606964858279
0.0857395906791878,17.1616090544385
0.0966294113065146,17.1625075056361
0.109125567604944,17.1633963984275
0.123541622004635,17.1642809208975
0.140283325509949,17.1651672630781
0.159887994569121,17.1660630311177
0.183096801985595,17.1669782812813
0.210245675165388,17.1679038327886
0.241693278752845,17.1688351023614
0.278271954297592,17.1697828158694
0.321189773016411,17.1707655946071
0.372710966143589,17.1718262903475
0.416652596496856,17.1726752993545
0.452332744722512,17.1733575874749
0.483199768145738,17.1739678791356
0.510313476614906,17.1745474998767
0.533778105553136,17.1751215884631
0.553184334707754,17.1757138096661
0.567496675938429,17.1763564586463
0.574193446971778,17.1771066780447
0.569436641540516,17.1778732725687
0.552146914728164,17.1786779285668
0.520547167987975,17.1795400476108
0.475190755671614,17.1804235370671
0.414851267344083,17.1813458652453
0.3643029325902,17.1820050257213
0.308519075100353,17.1826641861972
0.259957531642436,17.1832048624075
0.219232260236878,17.1836484413436
0.18393228451069,17.1840346099542
0.152565050084104,17.1843861120666
0.124277179849367,17.1847162932433
0.098507834466942,17.185034478852
0.074816845096991,17.1853487561937
0.0527615684257016,17.1856684530873
0.0316696686376416,17.1860096739519
0.00937113756839626,17.1864274742789
-0.00105225172113622,17.1866523895863
-0.00853499350515711,17.1868300216988
-0.0153845004333358,17.1870076538114
-0.0214085657613155,17.1871786761032
-0.0275911596513137,17.1873723303719
-0.033639368277121,17.1875845938895
-0.0393582970086758,17.1878127875774
-0.0446377788573473,17.1880557906042
-0.0494187136086591,17.188313507732
-0.0536727593057897,17.1885865597223
-0.0573904196819113,17.1888761281771
-0.0605738410940991,17.1891838946092
-0.0632262997263195,17.1895120416337
-0.0653818829692473,17.1898692000535
-0.0669752351397454,17.1902439637958
-0.0680816009561093,17.1906489761087
-0.06871473748573,17.1910894899965
-0.0688845340991739,17.191572016648
-0.0685954817103704,17.1921049461056
-0.0678425933950365,17.1927001811602
-0.0666058320433902,17.1933741394641
-0.0648424923052446,17.1941504277969
-0.0624646333195229,17.1950680677241
-0.059264895919307,17.1962071151222
-0.0550708969002731,17.1976379142962
-0.0509709326113136,17.1990192058086
-0.0470281664447884,17.2003596871176
-0.0432767498127773,17.2016622158938
-0.0397349909084341,17.202927849043
-0.036412581698037,17.2041567366377
-0.0333136133998162,17.2053485907751
-0.030438058602563,17.2065029334638
-0.0277826638119084,17.2076192263727
-0.0253416043179517,17.2086969352879
-0.0231070337102822,17.2097355565013
-0.021069576033554,17.2107346195584
-0.0192187738332233,17.2116936742803
-0.0175434931215898,17.2126122664597
-0.0159595406083142,17.2135334887824
-0.0144346945558334,17.2144783824244
-0.0129733093615391,17.2154486193199
-0.0115792748727375,17.2164463491248
-0.0102562727788714,17.217474098321
-0.00900772237462065,17.218534865189
-0.00783672584450034,17.2196322435948
-0.00674601051361299,17.2207705901805
-0.00573786757677159,17.221955255545
-0.00481408612069775,17.2231929128886
-0.00397588007861979,17.2244920408799
-0.00322380362597244,17.2258636620087
-0.00255764634478437,17.2273225287415
-0.00197629047508373,17.2288891526521
-0.00149546194958143,17.2305239281536
-0.0011110818884946,17.2322083894105
-0.000806958488757264,17.2339608950359
-0.000568356971390778,17.2358036306201
-0.000381263389070829,17.2377664912843
-0.00023186937612151,17.2398923697861
-0.000105730344099639,17.2422484118466
1.40322022341871e-05,17.2449546038742
0.000152464877638001,17.2482838997056
0.000317781333918441,17.2520335718597
0.000517413891383895,17.2561053457575
0.000775635536394336,17.2609009519223
0.00104162118251275,17.2655865767376
0.00129421375563955,17.2699679586873
0.00154145050761092,17.2742800719137
0.0017970369769555,17.2788047689636
0.00207746769912816,17.2838576567886
0.00234614803376523,17.2887572266163
0.00261905020124123,17.2937608876211
0.00285542374795488,17.2980770701448
0.00307416708724979,17.3020377866282
0.00328768098799799,17.3058550084494
0.00350225628296597,17.3096275780078
0.00372216163636711,17.3134152108847
0.00395095071237363,17.3172612186721
0.00419198609306814,17.3212009430502
0.00444871892060022,17.3252656795303
0.00472492524113327,17.3294854951317
0.00502489780115009,17.3338907207732
0.00535369176473164,17.3385132049912
0.00571750855088385,17.343387615911
0.0061243151295214,17.3485525577012
0.00654773132001726,17.3536171907348
0.00699546057656745,17.3586428995583
0.00746810267203434,17.3635938458201
0.00797032244339525,17.3684740331935
0.00850722476771717,17.3732838714647
0.00908509409437923,17.3780275134962
0.00971095838250832,17.3827078805912
0.010392590531,17.3873263908871
0.0111537404094,17.3919713691068
0.0120096999729482,17.3966443488569
0.0129812791253788,17.4013588609423
0.0140972174741591,17.4061426119499
0.0154028899337414,17.4110597692832
0.0169870922142274,17.4162745424493
0.0191190400952738,17.422371353546
0.020874019879228,17.4268706889269
0.0227332480215894,17.4313700243078
0.0242908074691873,17.4351159648061
0.025585982964864,17.4383915388346
0.0266704057854678,17.441457998124
0.0275370359377306,17.4444366844162
0.0281343612449691,17.4472750177299
0.0284634325599692,17.4500931773516
0.0284983510164389,17.4530402788214
0.0281446024298851,17.4564105585021
0.027120081729455,17.4607501203817
0.0262194874392581,17.4634270241346
0.0251603063803426,17.4661039278875
0.0240874612690165,17.4685506281667
0.0230134869747064,17.4708531048213
0.0219389825303089,17.4730753087437
0.0208667856904165,17.4752533233529
0.0198005466447964,17.4774100137782
0.0187439525530599,17.4795615103289
0.017700486566105,17.4817201158309
0.016673364794636,17.4838957891824
0.0156655249230656,17.486096999292
0.0146796311544662,17.4883312606294
0.0137180878050298,17.4906054847059
0.0127830460691462,17.4929262470948
0.011876416637344,17.4952999798559
0.0109998806623459,17.497733128913
0.010154892142378,17.5002323137248
0.00934269304052644,17.5028044425794
0.00856431635644679,17.5054568609738
0.00779891572716109,17.5082808148442
0.00704927749009525,17.5112991965629
0.00631921676626031,17.5145355391133
0.00561267982471562,17.5180170223033
0.00493377286707413,17.5217751032986
0.00428671312869793,17.5258463713094
0.00367572135618613,17.530273774107
0.00310484970815463,17.5351086339424
0.00257775215922201,17.5404140967924
0.00209738010698635,17.54627172193
0.00166588114137139,17.5527903498998
0.00129387351730835,17.5599175390772
0.000983423722313728,17.5676266955023
0.000727902988381543,17.5760424741102
0.000526911801829281,17.5853303957746
0.000381807973498314,17.5953303957746
0.000285842203949985,17.6049627875749
0.000215704510933873,17.6149627875749
0.000166875405824776,17.6249627875749
0.000133344461691208,17.6349627875749
0.000110751287387837,17.6449627875749
9.58651310971262e-05,17.6549627875749
8.63585507895916e-05,17.664962787575
8.06127801456636e-05,17.674962787575
7.75266548616437e-05,17.684962787575
7.63558980903194e-05,17.694962787575
7.65963798874395e-05,17.704962787575
7.79065119895843e-05,17.714962787575
8.00570980786668e-05,17.724962787575
8.28983581341797e-05,17.734962787575
8.63375330739569e-05,17.744962787575
9.03233918029812e-05,17.754962787575
9.48355788650075e-05,17.764962787575
9.98775011741297e-05,17.774962787575
0.000105471834004583,17.784962787575
0.000111657981392309,17.794962787575
0.000118491035425564,17.804962787575
0.000126041954945616,17.814962787575
0.000134398828849162,17.824962787575
0.000143669210873416,17.834962787575
0.000153983625448331,17.844962787575
0.000165500464324939,17.854962787575
0.000178412639711929,17.864962787575
0.00019295655482149,17.874962787575
0.00020942423030033,17.884962787575
0.000228179836755569,17.894962787575
0.00024968251399809,17.904962787575
0.00027451834947684,17.914962787575
0.00030344599006562,17.924962787575
0.000337463018227621,17.934962787575
0.000377904759881993,17.944962787575
0.000426595186677964,17.954962787575
0.00048448152536736,17.9647150455988
0.000550133035201999,17.9737347283637
0.000624392063105371,17.9820589903374
0.000708366211252127,17.9897413874783
0.000803339425410146,17.9968322972897
0.000910773350979129,18.0033784535631
0.00103232481211053,18.0094232280292
0.00116987004181225,18.0150068991357
0.00132553480036251,18.020166859646
0.00150172719994748,18.024937809618
0.00170117679642281,18.0293519646009
0.00192698066662155,18.0334392678954
0.00218265958815502,18.037227571564
0.00247222117573898,18.0407427950567
0.00280024395037212,18.0440091075326
0.00317198023901906,18.0470491252781
0.00359348953147762,18.0498840928858
0.00407181594492194,18.0525340914282
0.00461523136672275,18.0550182958284
0.00523358101670196,18.0573552773923
0.00593863416295007,18.0595629533661
0.00671617902839822,18.0615912031991
0.00757504260286165,18.0634734060876
0.00852865110176548,18.0652430028056
0.00959729775566598,18.0669343040024
0.0108152483799857,18.0685888207619
0.012273243538837,18.0702957536583
0.0142582075236648,18.0722929129926
0.0159763380555336,18.0738214903317
0.0178359903552782,18.0753500676708
0.0195396515951209,18.0766948251589
0.0210346886873648,18.0778774715495
0.0223753347389842,18.0789843664033
0.0235735855288192,18.0800647350295
0.0246185150952857,18.0811565572692
0.0254818421574664,18.0823028086722
0.0261088030176309,18.0835730620591
0.02636785625044,18.0851456250225
0.0258542144756368,18.0872661524521
0.0248389313411531,18.0889728002936
0.0236916459291359,18.0903984305902
0.0224033404040449,18.0917809479188
0.0209715743189779,18.0931995605412
0.0194048972205533,18.0946952313369
0.0177091162928722,18.096307241434
0.0159203853713934,18.0980884189847
0.0143310917905175,18.0998099731346
0.0128766395775885,18.1015315272845
0.0116853053493134,18.1030719176093
0.0106511182046388,18.1045267336661
0.00969413659527886,18.1059919331477
0.0087576512087482,18.1075612901361
0.00777082513729626,18.1093957967484
0.006603521735068,18.1118786791598
0.00557968048101382,18.1144397617351
0.00474103213559125,18.1169176770263
0.0040183492793261,18.1194477526531
0.00334269414840473,18.1223000626283
0.00276537564015115,18.1253107956779
0.00228106457910363,18.1285038346239
0.00188536469611591,18.1319145933721
0.00157741143141916,18.1355864374721
0.00136207597797339,18.1395737737598
0.00125444041719421,18.1439469059984
0.00127231816473271,18.1479580416264
0.00139164964634353,18.1515599013848
0.00159716199958657,18.1548015411304
0.00188110960797661,18.157730579718
0.00224076989753729,18.1603937115713
0.00267841941427284,18.162841826551
0.00320120897795133,18.1651248124236
0.00382295393602481,18.167294927303
0.00456929195720321,18.169414696877
0.00548896236632533,18.1715693244404
0.00668143768719383,18.1738942887766
0.00834344710438721,18.1765972280217
0.0103689554846786,18.1793651303904
0.0119137850395963,18.1811983758353
0.0136574132113611,18.1830316212802
0.0154404205912861,18.1846802495684
0.0173240046755884,18.1862064728817
0.0193488758514903,18.1876373492561
0.0215717991910614,18.1890008920492
0.0240386855580478,18.1903087904878
0.0267877422946947,18.1915645873439
0.0298681241964839,18.1927744864856
0.033324613025798,18.1939403297728
0.0372079111681229,18.1950645286189
0.0415779970339545,18.1961503451948
0.0464986926173409,18.1971999853852
0.0520484324371379,18.1982168181061
0.0583168678828399,18.1992038978887
0.0654090305327211,18.2001643293663
0.0734522369378345,18.2011016625756
0.0825993946819026,18.2020195694414
0.0930371866330951,18.2029220179107
0.10499645312362,18.2038133732576
0.118768650478591,18.2046986593066
0.134726883635837,18.2055836977084
0.153361120626601,18.2064755640741
0.175336752562993,18.2073833555436
0.201271911367425,18.2083087343488
0.231288180053862,18.2092372557132
0.266145776574215,18.2101783121644
0.306899309623326,18.2111471630405
0.35533250674524,18.2121755693381
0.392005791172259,18.2128992022669
0.42982869592136,18.2136228351956
0.463444142337015,18.2142700649492
0.492958001090314,18.2148662980776
0.51882894095241,18.2154414399777
0.540964862821137,18.2160189256433
0.558774745948711,18.216624035873
0.570883044131095,18.21729603587
0.57394131034884,18.2180490957074
0.565266265412502,18.2188257328783
0.543561009214841,18.2196470789161
0.506974962762856,18.2205281138835
0.456762157591583,18.2214232113388
0.392303047951227,18.2223456101188
0.344291290066839,18.222944247542
0.292357624916471,18.2235428849652
0.246772050886083,18.2240452473819
0.20795118262469,18.2244676412744
0.17397486973753,18.2248413630016
0.143621471051219,18.2251851882053
0.116154954761715,18.225510814512
0.0910652449281639,18.2258269466768
0.067925229842925,18.2261417444629
0.0462585373285885,18.2264656929363
0.0252006080117347,18.2268200548036
0.00755921718186211,18.227161349051
-0.00184645164604352,18.2273669394461
-0.0103724763393434,18.2275725298411
-0.0170288072787652,18.2277492302252
-0.0231420105731051,18.2279273374257
-0.0293135847190561,18.2281266183671
-0.0352845627800058,18.2283435482967
-0.0408884899060843,18.2285759631359
-0.0460322980356846,18.2288230740841
-0.0506671241677195,18.2290850100926
-0.0547708672569737,18.2293625601799
-0.0583378871500622,18.2296570494649
-0.0613726979079836,18.2299702978257
-0.0639363458192196,18.2303139794222
-0.0658869443007289,18.2306696723879
-0.0673395787156851,18.2310525289328
-0.0683097594813327,18.2314670875389
-0.0688099553782791,18.2319188483193
-0.0688487465196793,18.2324147935236
-0.0684286138021499,18.2329639848214
-0.0675406021853185,18.2335797787463
-0.0661594703516997,18.2342800360592
-0.0642329287064644,18.2350916135401
-0.061651217735937,18.2360610102695
-0.0581324557568433,18.2372939460743
-0.053957561122936,18.23870918355
-0.049895158419954,18.2400791257319
-0.0460013347984275,18.2414092653651
-0.0423048756910637,18.2427018547521
-0.0388213365263606,18.2439576466569
-0.0355587082918215,18.2451766416429
-0.0325198694844275,18.2463584840614
-0.0297038546869618,18.2475026712175
-0.0271066629749716,18.2486086620205
-0.0247218764700458,18.2496759293694
-0.0225411921080794,18.2507039791996
-0.0205549016308098,18.2516923484568
-0.0187523282450185,18.252640588779
-0.0171222195807024,18.2535482396199
-0.0155532106747986,18.2544756165721
-0.0140446451104349,18.2554269757927
-0.0126005778571963,18.2564042112694
-0.0112248504060476,18.2574095630499
-0.00992108069301875,18.2584456714212
-0.00869261017649094,18.2595156775999
-0.00754244833562392,18.2606233574143
-0.00647321407319049,18.2617733029039
-0.00548707336156764,18.2629711751454
-0.00458567169686936,18.2642240665904
-0.00377005857346225,18.2655410386399
-0.00304059866281371,18.2669339535059
-0.00239685928704989,18.2684188307658
-0.00183745258190638,18.2700182136456
-0.00138416745594744,18.2716642412213
-0.00102270248600509,18.2733650140963
-0.000737470275294917,18.2751391748913
-0.000513966912155886,18.2770106339991
-0.000338292523869131,18.2790120808706
-0.000196572903396195,18.2811913850285
-7.39602636536775e-05,18.2836257228549
4.77040286057558e-05,18.2864599325641
0.000198562735484506,18.2900603248774
0.000370664166795741,18.2938518014757
0.000584505155884818,18.2980856667755
0.000855679037560543,18.3030245335179
0.00111760980143366,18.3076030035336
0.00136752914995584,18.3119384408865
0.00161548279516103,18.316279393256
0.00187783164622877,18.3209482054663
0.00215279623552792,18.3259225768158
0.0024207787891773,18.3308208568912
0.00268921808309564,18.3357418999527
0.00291879654961995,18.3399254487235
0.00313519437492628,18.3438310685683
0.00334850008122903,18.347627897349
0.00356420652705295,18.3513996405635
0.00378629605143121,18.355199932281
0.00401823309415681,18.3590692830718
0.00426337966470492,18.3630415380825
0.00452525867026164,18.3671474282052
0.00480777268901638,18.3714169585885
0.00511540240115742,18.3758807660423
0.00545348199511602,18.3805713649378
0.00582864066419204,18.3855244623505
0.00624296496531577,18.3906997434908
0.00667212704142334,18.3957435284638
0.00712689760567893,18.4007521501906
0.00760736734668018,18.4056820440269
0.00811886343061857,18.4105421117369
0.00866671024118292,18.4153327361909
0.00925745043726671,18.4200582035312
0.00989831269573733,18.4247209414474
0.0105998935323032,18.4293383168709
0.0113864083202225,18.433991841319
0.012272796514746,18.438674676452
0.0132819609718719,18.4434050341165
0.0144460615276522,18.4482176370581
0.0158185235778214,18.4531950014557
0.0175136922998536,18.4585606883171
0.0199257566993656,18.4651801458879
0.0215488277663784,18.4692203152434
0.0232327463459195,18.4732604845989
0.0246950735140392,18.4768094468652
0.0259254431500815,18.4800025380827
0.0269496953133274,18.4830388597028
0.027736885500549,18.4859634364591
0.0282573270314137,18.4887828191075
0.02850571249865,18.4916203147583
0.0284435409288083,18.4946459606388
0.0279279308362166,18.4982747429505
0.0271185310191738,18.5014495673341
0.0260316211432902,18.5046243917177
0.0249448700728567,18.5073068194808
0.0238700842100081,18.5097212639314
0.0227957465807569,18.512003850145
0.0217214203251507,18.5142148489454
0.0206501213528476,18.5163870392033
0.0195855386407117,18.5185415803489
0.0185313273328372,18.5206936614856
0.0174909197788238,18.5228550176823
0.0164674745804039,18.5250352536479
0.0154638739559091,18.5272426081212
0.0144827278860048,18.5294844503944
0.013526387991994,18.5317676070926
0.0125969575697489,18.5340986064056
0.011696298798595,18.5364838740964
0.0108260453064038,18.5389298824809
0.00998760926940266,18.5414432938415
0.00918218841370181,18.5440310975243
0.00840703746128204,18.5467141920008
0.0076445597532771,18.5495760717268
0.00689861488015005,18.5526368676886
0.00617303946554971,18.5559208465832
0.0054718113481896,18.5594560082484
0.00479906632000827,18.5632747739906
0.00415903306216025,18.5674149087688
0.00355591468227616,18.5719208599493
0.00299370466586244,18.5768459868737
0.00247592756327864,18.5822566335655
0.00200537888134632,18.5882390571097
0.00158405006888932,18.5949089255478
0.00122523897991003,18.6021475470217
0.000926615504548364,18.609990558484
0.0006816021395664,18.6185706391515
0.000491938139073831,18.6280630934468
0.000380597109942874,18.6361843645026
0.0002816637651978,18.6461843645026
0.000212707139229178,18.6561843645026
0.000164771033084446,18.6661843645026
0.000131911530854817,18.6761843645026
0.000109802636418888,18.6861843645026
9.52539835787189e-05,18.6961843645026
8.59799103553437e-05,18.7061843645026
8.03959394145598e-05,18.7161843645026
7.74249503112797e-05,18.7261843645027
7.63382710259356e-05,18.7361843645027
7.6641829739254e-05,18.7461843645027
7.80007826850066e-05,18.7561843645027
8.01906721284339e-05,18.7661843645027
8.30651430360336e-05,18.7761843645027
8.65339403901331e-05,18.7861843645027
9.05476818909344e-05,18.7961843645027
9.50874081113706e-05,18.8061843645027
0.000100157626094506,18.8161843645027
0.000105781934139122,18.8261843645027
0.000112000571607651,18.8361843645027
0.00011886944794826,18.8461843645027
0.000126460380283062,18.8561843645027
0.000134862412009329,18.8661843645027
0.000144184205440161,18.8761843645027
0.000154557614035699,18.8861843645027
0.00016614266074141,18.8961843645027
0.000179134296930645,18.9061843645027
0.000193771515021622,18.9161843645027
0.00021034967097606,18.9261843645027
0.000229237293640293,18.9361843645027
0.000250899303078214,18.9461843645027
0.000275929576540657,18.9561843645027
0.000305097444465112,18.9661843645027
0.000339415429515101,18.9761843645027
0.000380240211316603,18.9861843645027
0.000429427044511832,18.9961843645027
0.000487697047603286,19.0058976132634
0.000553770696856066,19.0148797793192
0.000628505332945837,19.0231693889569
0.000713017721121148,19.0308198460244
0.000808600702105192,19.0378813315898
0.000916725491569583,19.0444003974003
0.0010390596527796,19.0504202481783
0.00117749157387914,19.0559810080139
0.00133416090570118,19.0611199246944
0.00151149134917731,19.0658715640117
0.00171223046708079,19.0702680182618
0.00193949577444297,19.0743391181407
0.00219683174807067,19.078112611154
0.00248827341072965,19.0816143211378
0.00281843145618899,19.084868331751
0.00319259671299594,19.0878971835929
0.00361687488243293,19.0907220552858
0.00409836715008071,19.0933629740481
0.00464541767357177,19.0958390754687
0.00526796545141367,19.0981689093976
0.00597653082373755,19.1003665098994
0.00675797030613754,19.1023864605456
0.00762130414046149,19.1042621109944
0.00858021677155251,19.1060268512954
0.009655486503366,19.107715163158
0.0108824514663222,19.1093692244226
0.0123585262236456,19.1110842283485
0.0143882560123773,19.1131098891608
0.0160875845478287,19.1146118254454
0.0179208847467338,19.11611376173
0.0196103456986185,19.1174462184245
0.0210975326845512,19.1186238793865
0.0224317971929521,19.1197286986239
0.0236235738760545,19.1208087833693
0.0246611508570788,19.1219020223469
0.0255153843764822,19.1230519869362
0.0261297546905445,19.1243304039082
0.0263656427853394,19.1259263795778
0.0259985863042214,19.1276123943482
0.0250940169010829,19.1292984091185
0.0239982153256117,19.1307358979257
0.0227511200035178,19.1321154548138
0.0213568550597107,19.1335197427475
0.0198251717423301,19.1349914995682
0.0181634726707811,19.1365686004644
0.0168442513812317,19.1378457451676
0.0155964964396708,19.1391228898709
0.0137499723182263,19.1411746073246
0.0123752656170551,19.1428593813466
0.0112582039369003,19.14435364283
0.0102623567079574,19.1458023353283
0.00932026998176703,19.1472963063631
0.00837469425926485,19.1489443056207
0.00733000374126438,19.1509837529085
0.00621702837473574,19.1534916113666
0.00524349441643785,19.1560799555072
0.00445641057813159,19.1585580219373
0.00375620243764384,19.1611829233884
0.00311772881334651,19.1640911099166
0.00257553019086316,19.1671656015423
0.0021243830309384,19.1704347517291
0.00176102604453122,19.1739366226997
0.00148638141606715,19.1777182233685
0.00130838404067419,19.1818391633167
0.00124780799643451,19.186172249507
0.00130538431228647,19.1900223983193
0.00145770926717837,19.193486858631
0.0016926322848954,19.1966078781796
0.0020045031512333,19.1994337900298
0.00239242502838438,19.2020125896382
0.00286028319546221,19.2043941931127
0.00341739693281629,19.2066292321242
0.00408144800349247,19.2087737021857
0.00488442182399487,19.2108952316725
0.0058905835965498,19.2130962452029
0.00722844900962155,19.215535567594
0.0090200559045117,19.2182708446742
0.0106144966793314,19.2203665974916
0.0124307795030649,19.2224623503089
0.0142106269388295,19.2242620576872
0.0160210339796143,19.2258686948278
0.0179427588004607,19.2273609804493
0.0200221087974647,19.2287671959193
0.0223204392245297,19.2301144407218
0.0248703204472977,19.2314048130823
0.0277220109097684,19.2326472159179
0.0309143077847594,19.2338424010062
0.0345004055543778,19.2349951214246
0.0385296375753332,19.2361066929102
0.0430652984617441,19.2371807163409
0.0481765016495971,19.2382199210013
0.0539419212982201,19.2392269533247
0.0604574970445223,19.2402052498837
0.0678350997088767,19.2411580813632
0.0762081700597576,19.2420888638751
0.0857398847182781,19.2430014320387
0.0966297482283228,19.2438998829174
0.10912595554547,19.2447887755345
0.123542071376006,19.2456732979994
0.140283849919106,19.246559640378
0.159888612403523,19.2474554088749
0.183097539367798,19.248370659856
0.210246528594701,19.2492962114567
0.241694269446029,19.2502274813849
0.278273110986595,19.2511751956551
0.32119114127183,19.2521579759389
0.37271264771496,19.2532186753088
0.416653935416554,19.2540676767543
0.452333874819353,19.254749961259
0.48320075558631,19.2553602513383
0.510314336533375,19.2559398715233
0.533778832064869,19.2565139603498
0.55318490439724,19.2571061826956
0.567497035908677,19.2577488342798
0.574193450845441,19.2584990538633
0.569436265408494,19.2592656492879
0.552146113843919,19.2600703068484
0.520545874704509,19.260932428007
0.475188996259511,19.2618159184507
0.414849045827794,19.2627382473885
0.364300967788741,19.2633974014251
0.30851751187863,19.2640565554618
0.259956273045719,19.2645972277005
0.219231191922906,19.2650408044934
0.183931345634548,19.2654269718674
0.152564209139182,19.2657784732214
0.124276417784223,19.2661086539434
0.0985071376342615,19.2664268393323
0.0748162015887104,19.2667411166858
0.0527609641805849,19.2670608139064
0.0316690762211022,19.2674020357796
0.00937041752271648,19.2678198406746
-0.00105257783544522,19.2680447486427
-0.0085352768185171,19.2682223803713
-0.0153847448300658,19.2684000120998
-0.0214088263130147,19.2685710355085
-0.027591420311215,19.2687646906608
-0.0336396182386808,19.2689769549029
-0.0393585300818038,19.2692051492393
-0.0446379916341441,19.269448152892
-0.0494189043430694,19.2697058706585
-0.0536729272629088,19.2699789233267
-0.0573905647502464,19.2702684925206
-0.0605739635459582,19.2705762597739
-0.0632263995051338,19.2709044077239
-0.0653819477646234,19.2712615647825
-0.066975281898913,19.2716363295191
-0.0680816303450528,19.2720413430193
-0.0687147499365949,19.2724818583029
-0.0688845298877988,19.2729643866157
-0.0685954608726291,19.2734973180803
-0.0678425554994886,19.274092555662
-0.0666057760394081,19.2747665171796
-0.0648424160443379,19.2755428097846
-0.0624645322524957,19.276460455864
-0.0592647579651709,19.2775995138875
-0.0550707609300207,19.2790303110487
-0.0509708008938787,19.2804116011766
-0.047028040478556,19.281752081232
-0.0432766303837261,19.2830546088079
-0.039734878446513,19.2843202407708
-0.0364124764175119,19.2855491271739
-0.0333135153629951,19.2867409801056
-0.0304379677548097,19.2878953215711
-0.0277825800053688,19.2890116132388
-0.0253415273305238,19.2900893208956
-0.0231069632623246,19.2911279408347
-0.0210695118030902,19.2921270026024
-0.0192187154697942,19.2930860560205
-0.0175434402586534,19.2940046468809
-0.0159594895448436,19.2949258699473
-0.0144346454568688,19.2958707643699
-0.0129732623551527,19.2968410021096
-0.0115792300813215,19.297838732833
-0.0102562303172741,19.2988664830356
-0.00900768234844122,19.2999272510147
-0.00783668834828645,19.3010246306579
-0.00674597562897507,19.302162978635
-0.00573783537035785,19.3033476455812
-0.00481405664199393,19.3045853047458
-0.00397585335747172,19.3058844348655
-0.00322377966963653,19.3072560585273
-0.00255762513412625,19.3087149283434
-0.00197627195911924,19.3102815561193
-0.00149544685164919,19.3119163329155
-0.00111106964012595,19.3136007960696
-0.000806948599820771,19.3153533042168
-0.000568348981326797,19.3171960431436
-0.000381256853515197,19.3191589082862
-0.000231863846611082,19.3212847929551
-0.000105725331434665,19.3236408439631
1.40373184196064e-05,19.3263470503256
0.000152471205940476,19.3296763748757
0.000317788314357707,19.3334260504905
0.000517422385863371,19.3374978414922
0.000775646468966138,19.3422934812185
0.00104163151519297,19.3469790905041
0.00129422363970447,19.3513604646405
0.00154146040521594,19.3556725801741
0.00179704763607009,19.3601972937684
0.00207747749638614,19.3652501687447
0.00234615764450995,19.3701497367572
0.00261906030252279,19.3751534069874
0.00285543275405764,19.3794695682268
0.00307417569352457,19.3834302757191
0.0032876895281355,19.3872474940783
0.00350226495840206,19.3910200631928
0.00372217060120527,19.3948076976566
0.00395096010498984,19.3986537086111
0.00419199605049952,19.4025934375058
0.00444872958858414,19.4066581797527
0.00472493678228783,19.4108780023543
0.00502491040340241,19.4152832362669
0.00535370565346066,19.4199057301154
0.0057175240088543,19.4247801521694
0.00612433252844932,19.4299451067764
0.00654774924166777,19.4350097331235
0.00699547959536841,19.4400354405978
0.00746812276749376,19.4449863834428
0.00797034385842764,19.4498665679297
0.00850724773164634,19.4546764033573
0.00908511888656087,19.4594200427303
0.00971098530846111,19.4641004072536
0.0103926199285335,19.4687189150104
0.0111537734398358,19.4733638948646
0.0120097372607682,19.4780368758964
0.0129813216701647,19.4827513901172
0.0140972667033751,19.4875351449121
0.0154029482891363,19.4924523099886
0.0169871651571581,19.4976671018598
0.0191191498778804,19.5037639818068
0.0208741079456616,19.5082632416248
0.0227333075819132,19.5127625014429
0.0242908543640089,19.516508414299
0.0255860222582937,19.5197839776723
0.0266704383078758,19.522850432858
0.0275370594822815,19.5258291124099
0.0281343762079184,19.528667443019
0.0284634386550373,19.5314856041106
0.0284983467136677,19.534432713022
0.0281445821194859,19.5378030160063
0.0271200473508219,19.5421425690473
0.0262194498735972,19.5448194608304
0.0251602685711556,19.5474963526136
0.0240874235421507,19.5499430459086
0.0230134492122352,19.5522455188243
0.0219389447912292,19.5544677206662
0.0208667480954754,19.556645734176
0.0198005093251302,19.5588024241637
0.0187439156351772,19.560953920765
0.0177004501678544,19.5631125267025
0.0166733290239552,19.5652882008095
0.0156654898783516,19.5674894119531
0.01467959692463,19.5697236745763
0.0137180544699357,19.5719979001744
0.0127830137001279,19.5743186643125
0.0118763852971874,19.5766923990488
0.0109998504061344,19.57912555031
0.0101548630173289,19.5816247375633
0.00934266508651691,19.5841968691092
0.00856428960619541,19.5868492904628
0.00779888944929288,19.5896732507413
0.0070492518237724,19.5926916395867
0.00631919184627324,19.59592799014
0.00561265579046229,19.5994094823455
0.00493374986321565,19.6031675735298
0.00428669130221682,19.6072388530993
0.00367570085160256,19.6116662690746
0.00310483066036041,19.6165011440464
0.0025777346840994,19.6218066244952
0.00209736429301689,19.6276642704717
0.00166586705005965,19.6341829236435
0.00129386168521816,19.6413101312966
0.000983413915128898,19.649019309903
0.000727894980775704,19.6574351157069
0.000526905748535204,19.6667230711704
0.000381803885845424,19.6767230711704
0.000285838750483596,19.686355531286
0.000215702124312027,19.696355531286
0.000166873766242002,19.706355531286
0.000133343349976669,19.716355531286
0.000110750547454452,19.726355531286
9.58646516678913e-05,19.736355531286
8.63582538527199e-05,19.746355531286
8.06126119301887e-05,19.756355531286
7.75265786592497e-05,19.766355531286
7.63558889217065e-05,19.776355531286
7.65964207931162e-05,19.786355531286
7.7906591542647e-05,19.796355531286
8.0057208725343e-05,19.806355531286
8.28984950721541e-05,19.816355531286
8.63376934842934e-05,19.826355531286
9.0323574323917e-05,19.836355531286
9.48357832373821e-05,19.846355531286
9.98777280113055e-05,19.856355531286
0.00010547208465406,19.866355531286
0.000111658257866564,19.876355531286
0.000118491340387703,19.886355531286
0.000126042291741828,19.896355531286
0.000134399201585262,19.906355531286
0.00014366962453745,19.916355531286
0.000153984086085947,19.926355531286
0.000165500979279655,19.936355531286
0.000178413217949419,19.946355531286
0.00019295720736665,19.956355531286
0.00020942497082994,19.966355531286
0.000228180682410548,19.976355531286
0.000249683486512188,19.9863555312861
0.00026634467975199,19.993177765643
0.000284729444419175,20
