ecg,time
0.00460126257179449,15.0005434466073
0.00438892641881519,15.0032649529978
0.00418082521770524,15.0064311063094
0.00401792692343295,15.0099029737638
0.00392045741394459,15.0138361074763
0.00391794263078716,15.0190922704373
0.00401173865211916,15.0235287453156
0.00417688916431301,15.0279652201939
0.00442126854620338,15.032666209928
0.00470103831592912,15.0368574930724
0.00503769035530057,15.0409660555585
0.00542933017119186,15.0449102192159
0.00588319624949258,15.0487083130586
0.00640346378096475,15.0523395387482
0.00699327472007877,15.0557845598254
0.00765488637833297,15.0590305984684
0.00838978860085958,15.0620721652729
0.00919949469576694,15.0649123898231
0.0100856721709899,15.067560041614
0.011050450803709,15.0700277209566
0.0121283472021809,15.0723948742956
0.0133364658549702,15.074674096805
0.0146915251754652,15.0768710313219
0.0162133977895721,15.0789922333594
0.0179250700456007,15.0810440826199
0.0198545531737751,15.0830341871937
0.0220363407508138,15.0849712564959
0.0245128010237741,15.0868646770825
0.0273396823096888,15.0887266815009
0.0305919076266467,15.0905727666877
0.0343765577422864,15.0924244897606
0.0388677014677436,15.0943182229566
0.0442489011536635,15.0962752789698
0.0505667617344026,15.0982697466804
0.05817347415539,15.1003829485549
0.0641976497464226,15.1019163516621
0.0704855407967506,15.1034497547693
0.0760442742420731,15.104801420458
0.080817238153317,15.1060128443185
0.084844488371671,15.1071372588257
0.0880873587785424,15.1082071433218
0.0904549073369846,15.1092458474621
0.0918097819281109,15.1102744693579
0.0919494488163157,15.1113175691704
0.0905373540840196,15.112413652777
0.0868494492927216,15.1136451975808
0.0806717823356113,15.1149130502433
0.074498064357028,15.1158714673829
0.0672205145308315,15.1168298845226
0.0600137910375435,15.1176840080107
0.053060779325271,15.1184611013923
0.0463439680922176,15.1191920304902
0.0398673273736058,15.1198949109909
0.0336426225565675,15.1205820461492
0.0276787478237563,15.1212634708217
0.0219758206548427,15.1219490748207
0.0165172915165376,15.1226510109347
0.0112488024096898,15.1233890130175
0.00598794130463625,15.1242112018356
0.00134862222427597,15.1250398273705
-0.00263865610985018,15.1258684529053
-0.00559998339894937,15.1265884349557
-0.00793107858197358,15.1272484155686
-0.00985513208286039,15.1278838013139
-0.0114739697199652,15.1285118176608
-0.0128977907531165,15.129170637905
-0.0141191087849676,15.1298609627647
-0.0150512186790842,15.1305841784587
-0.0155851624846954,15.1312913022838
-0.0157964892089661,15.1319100049084
-0.0158051486671208,15.1325608546801
-0.0156186629601747,15.1332466501778
-0.015244721487456,15.1339718455205
-0.0146913940624457,15.1347407837371
-0.0139682416942398,15.1355574974765
-0.0130860675525325,15.1364267093812
-0.0120567229887013,15.1373540991193
-0.0108927531391147,15.1383467885281
-0.00960667643733104,15.1394142788506
-0.00822354053146475,15.140558655331
-0.00686818188026599,15.1416996077521
-0.0055475785456072,15.1428493986029
-0.00426989188936963,15.1440157433752
-0.00304178917778382,15.1452054501217
-0.00186869563299365,15.1464250688213
-0.000754900663829929,15.1476814040511
0.000296400375028822,15.1489819784212
0.00128312190571729,15.1503355434273
0.0022043641799902,15.1517527360033
0.00306056648083363,15.1532470224538
0.00385377844555462,15.1548361815859
0.00458814169625343,15.1565448404615
0.00526304019374522,15.1583862422988
0.00585293267056575,15.1602749912521
0.00638156766229711,15.1622430051252
0.00686978703694679,15.1643233422831
0.00733940005459031,15.1665606651691
0.00781599018913416,15.1690216156779
0.00833488314633434,15.171819609589
0.00895915256374214,15.1751932050875
0.00976084486496465,15.1793551076707
0.0106596952077222,15.1837038318429
0.0116249001822857,15.1880062591638
0.0126985510798162,15.1923958453247
0.0138991422088792,15.1968733049407
0.0152636644197627,15.2014830284168
0.0168614514520554,15.2063329184601
0.0188670704925015,15.2117546679903
0.0214577630967386,15.2179893039612
0.0230908355929145,15.2216611784938
0.0247448530046335,15.2253330530264
0.0261833328089388,15.2286360964717
0.0273989110956034,15.2316868983587
0.0284030051572535,15.2346445346051
0.0291353080892844,15.2374487615969
0.029597715413346,15.2401976753193
0.0297764694911754,15.243023071689
0.0296101694685718,15.2461423455422
0.0288091043711069,15.2503570882621
0.0279749999586477,15.2531094436556
0.0269448514515415,15.2558617990492
0.0258943242218669,15.2583253294875
0.0248407632568284,15.2606106988469
0.0237834023441246,15.2627991178758
0.0227248416540655,15.2649332156995
0.0216689053904352,15.2670385876378
0.0206195040666691,15.2691326621438
0.0195803185629916,15.2712283779885
0.0185547180333407,15.273335987552
0.0175457565453333,15.2754640385257
0.0165561744052097,15.2776199957774
0.0155884211625399,15.2798106175429
0.014644655611738,15.282042260802
0.0137267635550233,15.2843210728525
0.0128363602814575,15.2866531692071
0.0119747860263391,15.2890448028685
0.0111431165821147,15.2915024767012
0.0103421518677257,15.2940331057436
0.00955012623348215,15.2967226839647
0.00876823443000508,15.2995952239568
0.00799915696852877,15.3026731051671
0.00724539919817954,15.3059823843029
0.00650912325524599,15.3095534745227
0.00579186016170246,15.3134221504064
0.00509410445100927,15.3176308511594
0.00441471005789155,15.3222307407517
0.00374999656735935,15.3272855407104
0.00309257063352842,15.332878436913
0.00242979681827448,15.339125841602
0.00181829017307714,15.3458573112129
0.00131187190012904,15.3530868951927
0.000931527321613743,15.3600552162805
0.000634461158793698,15.3664935093108
0.000391939086421987,15.3724289321479
0.000191028507850976,15.3778994844709
2.46543085055261e-05,15.3829422764502
-0.000112235620573474,15.3875932091351
-0.000223893130605829,15.3918868586321
-0.000314108193188245,15.3958563965892
-0.000386264779591652,15.399533051691
-0.0004433493088637,15.4029464462706
-0.000487943572842471,15.4061244864377
-0.000522240675490751,15.4090938024956
-0.000548069271121228,15.4118799586107
-0.000566931467842975,15.4145083752933
-0.000580034265544759,15.4170050503565
-0.000588324073582644,15.4193985132215
-0.000592497584636614,15.4217229686798
-0.000592984988221196,15.4240256920271
-0.000589838689260344,15.4263878092182
-0.00058216232494233,15.4290120098823
-0.000571967681711918,15.4313024974404
-0.000558616115014,15.4335929849984
-0.000545248418719995,15.4354855417501
-0.000531672126419915,15.4371617133651
-0.000516982708937993,15.4387852487642
-0.000500259491535996,15.440459095573
-0.000479940263662638,15.4423063971654
-0.000451994324163583,15.4445983361541
-0.000390492964403106,15.4489530247926
-0.000322953068396799,15.4529773618706
-0.000256519667008919,15.4564111709527
-0.000176121270272848,15.4600777439476
-5.83986926769471e-05,15.4647626986299
6.90755751371765e-05,15.4691370774137
0.000224009152066119,15.4737008865879
0.000394434716814173,15.4779320270243
0.000583011255631146,15.4818364548206
0.000794258650175828,15.4854422895778
0.00103584369879773,15.4887846368717
0.00131290671064489,15.4919014487031
0.00163189522642619,15.4948325437414
0.00200209096161428,15.4976275425903
0.0024368845209225,15.5003502541334
0.00295742802271819,15.5030948482581
0.00360605208425959,15.5060463725529
0.00418996788604978,15.508468891094
0.00479085730137829,15.5108914096352
0.00533221945621138,15.5131280951219
0.00586396297104432,15.5154832963719
0.00649278887223768,15.5186053703879
0.00694303101895766,15.5211156126525
0.00736987023208947,15.5236258549171
0.0077832857995733,15.526007844069
0.00820997509796395,15.5282552112208
0.00869101853574675,15.5304650801888
0.00926549807017769,15.5326999061644
0.00993884605535632,15.5348862857935
0.0107290441377791,15.537023065861
0.0116428279997096,15.5390857138275
0.0126966363327442,15.5410798432721
0.0138920409301234,15.5429849390833
0.0152412239503331,15.5448043590225
0.0167547794509201,15.5465382966844
0.018449057039157,15.5481925560754
0.0203432742036193,15.5497728040129
0.0224594992122747,15.5512842224093
0.0248245756416975,15.5527325271687
0.0274688631223203,15.554122588589
0.0304279957320338,15.5554592383841
0.0337432621859832,15.5567470149453
0.0374626397961388,15.5579902381177
0.0416428822350671,15.5591932944093
0.0463510823025177,15.5603605427423
0.0516677188550751,15.5614965062787
0.0576908180116259,15.5626060414224
0.0645416652599331,15.5636945011418
0.0723741609490649,15.5647681026672
0.0813895129836832,15.5658344316338
0.0918620231606123,15.5669033762815
0.104189094748895,15.5679890043793
0.119001218609641,15.5691137516589
0.136198088652982,15.5702430651629
0.156304600199019,15.5713938658695
0.180120504128904,15.5725940142122
0.209083442244561,15.5738973523192
0.23754555983495,15.575077445422
0.262462030254981,15.5760712655198
0.284990512582965,15.5769695621185
0.305356098937063,15.5778114899963
0.323367876949658,15.5786164392206
0.338673607695165,15.5793974464619
0.350813055057089,15.5801653970507
0.359202714587744,15.5809307197057
0.363083285661408,15.5817044015041
0.361426781796862,15.5824992226269
0.3527297769288,15.5833340941149
0.334879308891251,15.5842249395662
0.30741967290696,15.5851263819274
0.269376323180691,15.5860575389096
0.241618878900983,15.5866303563324
0.211232237205277,15.5872031737552
0.183045309441379,15.5877063951526
0.157498244029743,15.5881525961527
0.134119515444232,15.5885618914975
0.112580053369724,15.588947284724
0.0926521184507651,15.5893178937824
0.0741495633391298,15.5896812299361
0.0568866395221037,15.5900448484545
0.0406213469965579,15.5904186870826
0.0248867697045442,15.5908218702974
0.00783505595099993,15.5913283776131
0.000540952834669419,15.5915773597913
-0.00606739718727465,15.5918263419695
-0.0116638106783604,15.592059577196
-0.0167677770977715,15.5922953211802
-0.0217613914117266,15.5925535902127
-0.0264832708441812,15.5928312187093
-0.0308339041247258,15.5931264611729
-0.0347604277564135,15.5934389604901
-0.0382372323269501,15.5937692784223
-0.0412839902663226,15.5941242597274
-0.0437553881963265,15.5944880525031
-0.0457677382901824,15.5948743979784
-0.0473314288990014,15.595286246707
-0.048457197167307,15.5957270208977
-0.0491558791566317,15.5962008781561
-0.0494372505608608,15.5967128904613
-0.0493089000363815,15.5972693025222
-0.0487745474144812,15.5978783003586
-0.0478303771046823,15.5985513438635
-0.0464647984777185,15.5993022780214
-0.044654083894378,15.6001503595431
-0.042352893111731,15.6011245192308
-0.0394690946365797,15.6022744971074
-0.036001429487293,15.6036212468979
-0.0326842566064254,15.6049104541653
-0.0295591309554412,15.6061488383641
-0.0266413811112681,15.6073411328508
-0.0239359270924984,15.6084898620353
-0.0214416447333595,15.6095963494612
-0.0191535176666644,15.610661260935
-0.0170639101318891,15.6116848899516
-0.0151634252019637,15.6126673058112
-0.0134415398269204,15.6136084249595
-0.0118613259733525,15.6145234129927
-0.010338116482701,15.6154613290965
-0.00887693466564405,15.6164235239122
-0.00748185908108673,15.6174120599112
-0.0061567676716785,15.6184293349895
-0.00490528633846219,15.6194781714257
-0.00373074052755399,15.620561926957
-0.00263610361597624,15.6216846429244
-0.00162394219071402,15.6228512465233
-0.000696357821018981,15.6240678344242
0.000145075798203037,15.6253420831073
0.000899382693026419,15.6266838649743
0.00156626607075148,15.6281062162415
0.0021462106022343,15.6296269461573
0.00263503551851826,15.631250325403
0.00301984940939995,15.6329155670217
0.00331789086225544,15.634641249786
0.00354420896520431,15.6364473874448
0.00371293250694865,15.6383604026916
0.00383770209512034,15.6404171304607
0.00393232004956684,15.6426730040547
0.00401195081665236,15.6452211584097
0.00409624489726689,15.6482496503079
0.00421199818301501,15.6519923555757
0.00436052797368543,15.6558931343376
0.00454548563659997,15.6599171290303
0.00476545607889239,15.664088377117
0.00501745465428977,15.6684416022557
0.00529938911290203,15.6730136360765
0.00561164043958143,15.6778452773038
0.00595787235729312,15.6829838863654
0.00632930178954593,15.6882578511956
0.00671281361322545,15.6934397503817
0.00711457964887908,15.6985752620084
0.00753549106017351,15.7036299453364
0.00797967225215663,15.7086087287319
0.00845140203306373,15.7135138595554
0.00895572277802898,15.7183510665173
0.00949806862044131,15.7231240952453
0.0100843291228432,15.7278346012655
0.0107209181499316,15.7324821923729
0.0114169355889851,15.7370778816765
0.0121963554032441,15.7417063538818
0.0130730041579492,15.7463581241595
0.0140686037951257,15.7510494808425
0.0152138081272445,15.7558129008269
0.0165596488412084,15.760727133678
0.0182146974029685,15.7660050575923
0.0205856737296507,15.7725590796098
0.0221819319788497,15.7765592000083
0.0238376715774528,15.7805593204068
0.0252714305447067,15.7840642667887
0.0264819749340453,15.7872101594538
0.0274926099745569,15.7901965406616
0.0282699838708468,15.7930682148172
0.0287832290196798,15.7958323418405
0.0290260360425979,15.7986086719856
0.028960117201915,15.8015587797731
0.0284493936308957,15.8050612405057
0.0276191683091616,15.8082232970891
0.026495898429752,15.8113853536725
0.0253781896827654,15.8140342002964
0.024275761108029,15.8164073350363
0.0231740416769085,15.8186466830354
0.0220715732529349,15.8208137075519
0.0209709662469438,15.8229414153562
0.0198756806301001,15.8250510318559
0.0187892106929511,15.8271578134075
0.0177148619802195,15.8292736119291
0.0166556882983075,15.8314082205487
0.0156144827522615,15.8335701605413
0.0145937791936701,15.8357672019046
0.0135958676456194,15.8380067150869
0.012622799359655,15.8402959645377
0.0116764022747743,15.8426423364362
0.0107582912431719,15.8450535589788
0.00986986829628952,15.8475379526457
0.00901234794158519,15.8501046343543
0.00818675519527004,15.8527638329517
0.0073785782512337,15.8555830773057
0.00658541401668558,15.8586040124381
0.00581128228497776,15.8618532199732
0.0050603346604387,15.8653629603066
0.00433687397443321,15.8691727236637
0.00372226369439113,15.8728390528902
0.00321375013692214,15.8762606352152
0.00278889975842297,15.8794651642949
0.00242983254454363,15.8824840456339
0.00212894020610838,15.8853496645101
0.00188676609339223,15.8880976291824
0.00168586321267312,15.8907714101399
0.00151215681281923,15.8934332339886
0.00135390546535985,15.8961973949365
0.00119375453355267,15.8993993684109
0.00108894972654603,15.9017749954102
0.000994883792069301,15.9041506224095
0.000920882505433227,15.9062286139084
0.000859934313543004,15.9081202653484
0.000805836585939687,15.9099777568201
0.000755244332702093,15.9119177663313
0.00070534135947014,15.9141005645192
0.000651158200555948,15.9169433106307
0.000584332212256476,15.921917256717
0.000555927783868332,15.9259617043698
0.000549378081747171,15.9294988185896
0.000561326081400435,15.9334188166979
0.000606056263555998,15.9383439240531
0.000688329417396977,15.9430185553427
0.000799024223688458,15.9473353892462
0.000934574443308733,15.9513338639299
0.00109536781098705,15.9550526792832
0.00128383835510333,15.9585269364822
0.00150403830825328,15.9617954335246
0.00176188238005494,15.9649051039003
0.00206553355795361,15.96791200791
0.00242694208042959,15.9708932544793
0.00286618775112942,15.9739769397611
0.00343233459756734,15.9774836686114
0.00388525362042608,15.980146246932
0.00432611276882721,15.9828088252525
0.00471350736708767,15.9853811805937
0.00508337769847982,15.9882800620918
0.00547022425135588,15.9921928265519
0.00570104939020539,15.9951965294153
0.00591048908421664,15.9982002322787
0.00611727865704341,16.0009943173932
0.00637032612365856,16.0038692686048
0.00670988831169826,16.006922244365
0.00715758547810838,16.010047740622
0.0077232825971729,16.0131388081384
0.00839756574775869,16.0160764183931
0.00916020748288829,16.0187817891252
0.0100048005985285,16.0212663987149
0.0109276803517702,16.0235492756797
0.0119504928451017,16.0256959490701
0.0130926370456264,16.0277390354107
0.0143669817086218,16.0296869069971
0.0157888443666685,16.0315473880953
0.0173760251915409,16.0333275369007
0.0191484445979759,16.0350331937121
0.0211295324956265,16.0366702824007
0.0233457282771259,16.0382439451894
0.0258280939359016,16.0397594665861
0.0286125058386678,16.0412218286217
0.0317414224501099,16.0426361757119
0.0352650809938663,16.0440076810927
0.0392442616907189,16.0453419015091
0.0437532134366722,16.0466448108792
0.0488854393720875,16.0479233257987
0.0547617224989989,16.049185713617
0.0615452179313172,16.0504426588611
0.0694705889603403,16.0517092915805
0.0789087903089969,16.0530097656804
0.0900925031713541,16.054340090792
0.103172792520852,16.0556918656799
0.118724263812679,16.057104064498
0.133363952195148,16.0583063079235
0.14898725330801,16.0595085513489
0.162996970803304,16.0605569249575
0.175408641401635,16.061497299851
0.186368998514397,16.0623735837836
0.195793872762548,16.0632094486657
0.203475158958343,16.0640199921298
0.209120511599238,16.064816832288
0.212355740290958,16.0656108063549
0.212695283500033,16.0664145760585
0.209442365805881,16.0672474251115
0.201270211163597,16.0681547735902
0.18739371274364,16.0690988400885
0.167385990623758,16.0700788684408
0.151974110174012,16.0707053961207
0.134958554699304,16.0713319238007
0.118667145701629,16.0718965261965
0.103330969386365,16.0724135164352
0.0888665145567157,16.0728996802941
0.0752198859206465,16.0733662226407
0.0623508410602395,16.0738215812639
0.05021477290536,16.0742732809697
0.0387469633252766,16.0747295112749
0.0278317224008969,16.0752017689125
0.0171966509733975,16.0757130047712
0.0056871715752143,16.076351303991
-7.16305533454803e-05,16.0767194180818
-0.00521534574300679,16.0770875321725
-0.00948878494931418,16.0774310842123
-0.0131061472522753,16.0777575649262
-0.0165511668425057,16.0781092184762
-0.0197506065463401,16.0784844365706
-0.0226502846464813,16.07888177755
-0.0252213091519869,16.0793012022464
-0.027449846497877,16.0797436244807
-0.0293311420483463,16.0802106607095
-0.0308660338738902,16.080704514146
-0.0320288593184297,16.0812279356368
-0.032832325183844,16.0818325847257
-0.0331544211533453,16.0823891556299
-0.0331452980947653,16.0829838945373
-0.0328135019656862,16.0836223787905
-0.0321643952680719,16.0843126098708
-0.0312019008612956,16.0850625224007
-0.0299287299840544,16.0858817645631
-0.0283456343946616,16.0867826011908
-0.0264500814939775,16.0877812941388
-0.0242331369579383,16.0889009346821
-0.0217643350773711,16.0901314420261
-0.0194550845804429,16.0912945194558
-0.0173244147247012,16.0923963304481
-0.0153720943011148,16.0934433671599
-0.0135928189690643,16.0944396646033
-0.0119786333225592,16.0953877263561
-0.0104378519132576,16.0963414208372
-0.00895165482671003,16.0973168457698
-0.00752520763920176,16.0983162438154
-0.00616305672807468,16.0993422463498
-0.0048693586038089,16.1003978264577
-0.0036478552809784,16.1014864168981
-0.00250184117926519,16.1026120571553
-0.00143412047191704,16.1037795870323
-0.000446954932915483,16.1049949113429
0.000457999135942108,16.1062653754598
0.00127976860336158,16.1076003195693
0.00201816347832945,16.1090119343064
0.00267391467250832,16.1105166552222
0.0032488824631323,16.1121375966074
0.00372306177975465,16.113815359864
0.00410731036993039,16.1155479179122
0.00441820309795299,16.1173556244802
0.00467113531963809,16.1192639342463
0.00488111515768785,16.1213076491654
0.0050636238295528,16.1235380138572
0.00523619749203739,16.1260386412222
0.00542240189887366,16.1289701297768
0.00566802023781181,16.1327620779859
0.00594302004836554,16.1366487539053
0.0062891212585442,16.1410554656673
0.00672205498545208,16.1460737753897
0.00719183088517338,16.1511288071275
0.00768116266150206,16.1560900753261
0.00819192048241135,16.1609875865744
0.00872647408785118,16.1658155567999
0.00929124965735876,16.1705856983686
0.00989301776589803,16.1753014925901
0.0105387355853234,16.1799624297836
0.0112355402301808,16.1845656898017
0.0119980479704454,16.1891484697292
0.0128479183530241,16.1937655454777
0.013800998770386,16.1984145922309
0.0148810661049257,16.2031153133635
0.0161236067417749,16.2079120201849
0.0175925546071451,16.2129151860134
0.0194461015849583,16.2184569142623
0.0218385093193854,16.2247639155841
0.0233529414722181,16.2284818802056
0.0248848586736925,16.2321998448271
0.0262059744972667,16.2355357464271
0.0273045111113103,16.2386044240527
0.028188349283971,16.2415686951557
0.0288151433352512,16.2443875418809
0.0291861269816919,16.2471412778675
0.0292821469935351,16.2499585978333
0.0290395606843669,16.2530429382005
0.0281946028928866,16.2570693420346
0.0272834853605991,16.2599027723304
0.0261608623653973,16.2627362026262
0.0250303593992612,16.2652440167836
0.0239051774962602,16.2675555690608
0.0227798560032007,16.2697628481826
0.0216549922170479,16.271912472037
0.0205334465686508,16.2740318974612
0.0194185916077116,16.2761396860385
0.0183137850384776,16.2782496370089
0.0172222149030652,16.2803727541663
0.016146846200625,16.2825183468686
0.0150904174233953,16.2846946872431
0.0140554395621482,16.2869094701084
0.0130442043433767,16.2891701455184
0.0120587980190539,16.2914841773864
0.0111010930830012,16.2938593248496
0.0101727762793238,16.2963038341474
0.00927534052450258,16.2988267309696
0.00841008823630669,16.3014381290813
0.00757802472845091,16.3041499804137
0.00675954355419139,16.3070519849043
0.00595903688357644,16.3101685137878
0.00526616506006122,16.3131430056859
0.00467122535595341,16.3159526466005
0.00415517393303922,16.3186257683372
0.00370178966353374,16.3211956647602
0.00329682704012729,16.3237039493194
0.0029263425789946,16.3262118998739
0.00257270812581579,16.3288366710705
0.0022853439534481,16.3311706950656
0.00203569428856611,16.3335047190608
0.00185272329902268,16.3354918903022
0.00169162630485859,16.3374790615437
0.00156023527304,16.3392953020926
0.00144562717526176,16.3410472320897
0.00133878762401092,16.3428443142745
0.00123261404152017,16.3448153548478
0.001116493632135,16.3472311255827
0.000928448981159397,16.3519601499192
0.000799498001324119,16.3562683492992
0.000721218319529924,16.3598444071892
0.000665364968899768,16.3636269200635
0.000632680912692019,16.3683531981588
0.000639858299583605,16.3728828319727
0.00068390682341601,16.3772694863009
0.000759686216777701,16.38128056895
0.00086511018737295,16.3849903422341
0.00100058212305683,16.3884413048232
0.00117008726570039,16.3916691148945
0.00137614774413173,16.3947122941012
0.00162320649559595,16.3976162440971
0.00191859760339443,16.4004357784427
0.00227424324544604,16.4032485246384
0.00271292597892239,16.4061972950632
0.00329270355121781,16.4096477691091
0.00382219499488501,16.4126862554151
0.00422319980911072,16.4151298007233
0.00457450456970308,16.4175758444728
0.00490639182897559,16.420459941721
0.00520995398100384,16.4242177738127
0.00538574657618045,16.4273876894284
0.00551915098373894,16.4302292122346
0.00566126817319437,16.4330394603433
0.00584952225620329,16.4359904558254
0.00612007632610299,16.4391459256773
0.00652144459866627,16.4425981394946
0.00705130926561561,16.4460287486485
0.00768649921731446,16.4492371189204
0.00840841538586384,16.4521740163829
0.00920738461703011,16.4548531715904
0.0100796856723786,16.4573033869116
0.0110252804030089,16.4595541970951
0.0120782268934604,16.4616918598435
0.0132526000823101,16.4637304051165
0.0145624552699351,16.4656775762287
0.0160243171430631,16.4675406913209
0.0176568552879071,16.46932599628
0.0194812130699276,16.4710390575222
0.0215220204956499,16.4726854678879
0.0238075138067967,16.4742704469467
0.0263706028908386,16.4757991935546
0.0292500945891239,16.4772770256924
0.0324918018377983,16.4787092812329
0.0361511820955047,16.4801017408434
0.0402959486580022,16.481460623549
0.0450109425567644,16.482793018657
0.0504060432888137,16.4841075142721
0.0566292984315052,16.4854151242352
0.0638936838581061,16.4867314703417
0.072536027002029,16.4880815064629
0.0828021423656417,16.4894655925377
0.0948125075080057,16.4908718330083
0.109107347856734,16.4923423297955
0.122208152749698,16.4935630256885
0.136149220538739,16.4947837215815
0.148661586568953,16.4958523149151
0.159693316366733,16.4968096413631
0.169371749522841,16.4977002874481
0.1776238730415,16.4985488223314
0.184265103631552,16.4993711682237
0.1890328168425,16.5001798558966
0.191584570517771,16.500986952275
0.191461879024481,16.5018071513274
0.18796910184392,16.5026642291833
0.179640129211785,16.5036180384932
0.166220621183768,16.5045876626754
0.15257202139194,16.5053379709002
0.136454116600851,16.506088279125
0.120928486894202,16.5067382827639
0.106366722018953,16.5073139643615
0.0926028103290419,16.5078448132168
0.0795648634068941,16.5083472889179
0.0672215205718955,16.5088320472929
0.0555478451838988,16.5093073555029
0.0445102893700061,16.5097808718295
0.034052146239409,16.5102613145129
0.0240609024440279,16.5107616004335
0.0142461492185625,16.5113094745957
0.00520926945853257,16.5118865101681
-0.00031627056060486,16.5122888559426
-0.00523113661319889,16.512691201717
-0.00926122144206008,16.513063325674
-0.0126580244763246,16.5134167656638
-0.015832663154038,16.5137915410526
-0.0187681226604833,16.5141907231531
-0.0214181290892858,16.5146130702812
-0.023757503284834,16.5150586263036
-0.0257742610921115,16.5155283819268
-0.0274644449895034,16.5160240280728
-0.0288290979561621,16.5165478385724
-0.0298341954680652,16.5171026283965
-0.0304487480851523,16.5176996780331
-0.030666927308993,16.5182761812152
-0.0305734854869375,16.5188915439423
-0.0301766669202347,16.5195513731967
-0.0294821746123134,16.5202633439878
-0.0284953469692429,16.5210349291878
-0.0272209978015943,16.5218752874768
-0.0256629538521063,16.522795949854
-0.0238231184311847,16.5238120525837
-0.0216990925857562,16.5249448672872
-0.0194391542508634,16.52614155401
-0.0173378928495362,16.5272705994151
-0.0154078444203573,16.5283380765931
-0.0136461892082085,16.5293502101601
-0.0120462462798641,16.5303109278427
-0.010518125398443,16.5312753366346
-0.00904261730934902,16.5322606296123
-0.0076252495539139,16.5332692508677
-0.00627082789412243,16.5343040134026
-0.00498370583742074,16.5353680472294
-0.003767771572614,16.5364649276415
-0.00262642358127855,16.537598830887
-0.00156253425711977,16.5387747361672
-0.000578401957941903,16.5399986997738
0.000324309836885467,16.5412782428148
0.00114465014161678,16.5426229231481
0.00188248324806416,16.5440452194001
0.00253863391254608,16.545561975462
0.00311511185388407,16.5471969317262
0.00359127284710197,16.5488879998888
0.00397867458069151,16.5506349353353
0.0042940446738258,16.5524587713689
0.00455295435652353,16.5543858882247
0.00477066075750991,16.5564524731797
0.00496306213158601,16.5587121525515
0.00514849413810013,16.5612533691098
0.00535240130431627,16.5642493725133
0.00562021638445031,16.5680853026421
0.00592014011242248,16.5720250737591
0.00629856344340447,16.5765238974382
0.00676396689621396,16.5815801637898
0.0072487266280086,16.5864775930302
0.00776086171244688,16.5913486814998
0.00829635115981607,16.5961454206043
0.00886053733948287,16.6008768947592
0.00946064065535029,16.6055474137061
0.0101052691109261,16.610160987714
0.0108033308195258,16.6147167802721
0.011579124315273,16.6192962301057
0.0124501033275323,16.6239076773092
0.0134374605474495,16.6285604743321
0.014570742492826,16.6332806600818
0.0158965652464133,16.638131331305
0.0175067691057385,16.6432776067026
0.019684750105019,16.6493185674728
0.021444253183767,16.6536941872582
0.0233064605108869,16.6580698070437
0.0248757925316153,16.6617361371551
0.0261832761835027,16.6649491716777
0.0272785182311274,16.6679597539918
0.0281504286067945,16.6708735281011
0.0287520192723291,16.6736512817907
0.0290841837962299,16.6764104191001
0.0291205868869328,16.6792961159671
0.0287664395720649,16.6825947427498
0.0279837845450236,16.6860211872337
0.0271012544250671,16.6887468021994
0.0260335275904806,16.6914724171651
0.0249532025226102,16.693920625953
0.0238727947164776,16.6962002434184
0.0227907514819581,16.6983878011822
0.0217091875770987,16.7005240523393
0.0206315370799432,16.7026338372607
0.0195614076473782,16.7047342715946
0.0185022435680433,16.7068382020785
0.0174572295581708,16.7089559210217
0.0164292724037831,16.7110961232211
0.0154210034904185,16.7132665012252
0.0144347900197339,16.7154741414987
0.0134727465113493,16.7177258130216
0.0125367463895617,16.7200281922932
0.0116284311405432,16.7223880584501
0.0107492220936311,16.7248124652148
0.00990032805678453,16.7273089213454
0.00908275917894091,16.7298855636685
0.00828156677693929,16.732607045573
0.00749275589592188,16.7355158412159
0.00672001342108268,16.7386348792508
0.00596715746054009,16.7419912675036
0.00523821645551471,16.745616808128
0.0045373825223892,16.7495491439818
0.00386893425847208,16.7538333766754
0.0032371010844674,16.7585246403347
0.0026458110860561,16.7636929406724
0.00209832498715617,16.7694326025657
0.00189535259179683,16.7718775430511
0.0017136207751738,16.7743224835366
0.00142560866798694,16.7789727063166
0.00112015595107849,16.7852222682962
0.000880020680927213,16.7914669488611
0.000702733824787438,16.7972061512209
0.000570525925176222,16.8024734437009
0.0004714913290482,16.8073187588388
0.000397162947984151,16.8117881568253
0.00034133598618117,16.8159237960938
0.000299452155191852,16.8197646836239
0.000268170619884446,16.8233474938661
0.00024504465037799,16.8267075282261
0.000228282541584519,16.8298800012892
0.000216577695280032,16.8329020259876
0.000208997351515753,16.8358161875569
0.000204922599437679,16.8386781600748
0.000204069857847645,16.8415769106887
0.000206748120761219,16.844711238925
0.000212905832377425,16.8477609608243
0.000220145293173965,16.8501369537511
0.000229529488668315,16.8525129466779
0.000239717768111135,16.854625578749
0.000250970862967834,16.8566195761482
0.000263979271919987,16.8586301419858
0.000279899225321508,16.8607908775803
0.000301404923801708,16.8633399990675
0.000340592533152626,16.8672587301923
0.000391707414503707,16.8713472799777
0.000449837756180842,16.874771875744
0.00052355743856581,16.8782600176492
0.000624487728080697,16.8822596542811
0.000772012988980663,16.887218687797
0.000942809482484935,16.8920822600688
0.00113033751817416,16.8965899289153
0.00133815353719686,16.9007626857264
0.0015718452385138,16.9046416091168
0.00183820668944296,16.9082734984934
0.00214516438948995,16.9117080136707
0.0025026312736699,16.9150049934699
0.00292442725800635,16.9182463697219
0.00343228610363477,16.9215592375652
0.00406884384001352,16.9251959943965
0.00463391304070998,16.9282023228144
0.00520137737762218,16.9312086512324
0.00573034133260034,16.9341427543349
0.00633724514484846,16.9377962454415
0.00680181550757953,16.9407910522006
0.00726532996710558,16.9437858589598
0.00770648593121416,16.9464452758164
0.00818235459752751,16.9489835385329
0.00872940037543148,16.9514789003509
0.00936384844182335,16.9539090979648
0.0100912571328099,16.9562363485816
0.010920354975849,16.9584567694651
0.0118555815265979,16.9605634339647
0.012916882194157,16.9625833046436
0.0141135333795375,16.9645141778316
0.0154551384777872,16.9663554293668
0.0169573023299322,16.9681138017899
0.0186356991419743,16.9697931894274
0.0205110947681524,16.9714000750053
0.0226063076308467,16.9729395026451
0.024948067074433,16.9744165741903
0.0275676115365696,16.975836321481
0.0305006561162642,16.977203296756
0.0337894105838771,16.9785221990327
0.037483109401049,16.9797975374204
0.0416399354726142,16.9810338421289
0.0463298560374213,16.9822358955574
0.0516376275607728,16.9834087377766
0.0576681779418129,16.9845579709303
0.0645545356236825,16.9856900963792
0.0724706183591121,16.9868130536011
0.0816544633981955,16.9879372965005
0.0924532320131473,16.9890778535593
0.105425939442568,16.9902591972995
0.120533238019187,16.991448766585
0.138221224811051,16.9926626699546
0.159256506858723,16.9939348613539
0.185155768846405,16.9953378716678
0.207707109360861,16.9964759821386
0.227431983569601,16.9974476491878
0.245240094810823,16.9983370439322
0.26121548324437,16.9991777466162
0.275145455463277,16.9999871048829
0.286680665156306,17.0007765734474
0.295375181810271,17.0015552263981
0.300686427375677,17.0023315311029
0.301945315865755,17.0031148432875
0.298273714478877,17.0039178434192
0.288277864708083,17.0047666724085
0.270261883468957,17.0056685183488
0.243948616273335,17.0065882287625
0.221072387963388,17.0072320853749
0.195094871553057,17.0078759419872
0.170588170038894,17.0084362456474
0.148226642288011,17.0089273503
0.127601183733748,17.0093751327191
0.108455955635924,17.0097950422285
0.0906319564146836,17.0101972277535
0.0740054511519729,17.0105895601858
0.058456005361644,17.0109793471921
0.0438346719409468,17.0113750883073
0.0298921545932274,17.0117901912415
0.0159700366964306,17.0122581918437
0.00538107149625328,17.0126666386742
-0.00101000937915758,17.0129443095218
-0.0067761355044685,17.0132219803694
-0.0116522053476553,17.0134828706106
-0.0162000696565459,17.0137542734549
-0.0205620103117972,17.0140481795689
-0.0246241952324317,17.014362002558
-0.02831975050739,17.0146946041042
-0.0316140494034678,17.015046072544
-0.0344913795627063,17.0154173322711
-0.0369473466277034,17.0158099476608
-0.0390546817797629,17.0162500625784
-0.0405774793370506,17.0166901774959
-0.0416514824359876,17.0171496646189
-0.0423235840232512,17.0176414620411
-0.0426030779348788,17.0181702201833
-0.0424978383483063,17.0187414810373
-0.042013359159626,17.0193623076067
-0.0411494922330314,17.020042812701
-0.0399013920165528,17.0207943773353
-0.0382574219746656,17.0216320963371
-0.0361948971941832,17.0225770906372
-0.033670497395274,17.0236615977023
-0.0305922226663455,17.024943189411
-0.0275440040112301,17.0262078837524
-0.0246807256440466,17.0274161427873
-0.0220177605917687,17.0285735254032
-0.0195577995637064,17.0296837740066
-0.017297799937097,17.0307490601111
-0.0152312427946853,17.0317706435242
-0.013349423556236,17.0327492344095
-0.0116423060941069,17.0336851837876
-0.010044413431592,17.0346112043573
-0.00850203910606146,17.035560112982
-0.00701986281796246,17.0365335551331
-0.00560180306965505,17.0375337465798
-0.00425149327214058,17.0385632539262
-0.00297222615950678,17.0396250912797
-0.00176689445492738,17.0407228427827
-0.00063792233063304,17.0418608262878
0.000412814649645097,17.0430443178235
0.00138408555974291,17.0442798685585
0.00227542420426476,17.0455757676525
0.00308728807759286,17.0469427455178
0.0038212843416887,17.0483950954563
0.00448051985985127,17.049952575379
0.00505373465198054,17.0515917291841
0.00553820081376741,17.0532780186149
0.00595305601348936,17.055030274561
0.00631647956732006,17.0568703349074
0.00664723731400154,17.0588274165716
0.00696612724571565,17.0609430932238
0.00729873828440816,17.0632817744272
0.00768190338709611,17.0659567509846
0.0081844940715899,17.0692177779597
0.00884043124305684,17.0729789520788
0.00965140567845776,17.0770251934616
0.0107306009891088,17.0817598351375
0.0114932959877605,17.0848580219316
0.0122728388267504,17.0879562087256
0.0129481476182093,17.0907002337984
0.0135144645977207,17.0931674572749
0.0139843696225431,17.095484714573
0.0143588329203407,17.0977387864405
0.0146298810044961,17.1000065102208
0.0147786024802373,17.1023830269279
0.0147624133409252,17.1050423753103
0.0144314607323522,17.1085968096471
0.0139700819096443,17.1112483448337
0.0133564231869245,17.1138998800202
0.0129138313622308,17.1155496759732
0.0127806922755582,17.1160204451034
0.0126460398779381,17.1164912142335
0.0124765171172705,17.1171012656631
0.0118003059177701,17.1197970942282
0.0112045465593258,17.1226393247894
0.0106946235522821,17.125608182054
0.0102666141826805,17.1287301923578
0.00991899842769129,17.1320367909945
0.00965321954003047,17.1355649754002
0.00947479209287757,17.1393596767788
0.00939583093129298,17.1434771364461
0.00943962917041275,17.147959088714
0.00961772611007321,17.1523482629076
0.00991838766374132,17.1564591557007
0.0103137633373702,17.1601449454227
0.0108049951421468,17.163582289909
0.0114118292483953,17.1669342583336
0.0121235305130953,17.1701492694678
0.0129069675227398,17.1731417684344
0.0137476467277437,17.1759391648242
0.0146329444439337,17.1785693260215
0.0155518488749803,17.1810579569739
0.0164955900241153,17.1834305997543
0.0174584684376489,17.1857152417503
0.0184392628439473,17.1879465045964
0.0194444718655752,17.1901747664441
0.0204984706081777,17.1924935706394
0.0216952854199543,17.1951759886935
0.0225724896946972,17.1972398164992
0.0233864440091208,17.1993036443048
0.0240132770480132,17.2010655220259
0.0245158578622228,17.202667569597
0.0249367351439154,17.2042406118126
0.0252899976351937,17.2058816162658
0.0255726476431537,17.2077219729108
0.0257487541020653,17.2100917220453
0.025644384639581,17.2132811958819
0.025219739093024,17.2161961409264
0.024565967284985,17.2189289191204
0.0236189590160846,17.2219036959595
0.0226314916702258,17.2245068682381
0.0216348694673478,17.2268815664094
0.0206267137801401,17.2291415652712
0.0196089705317536,17.2313426052927
0.0185851128523738,17.2335172166074
0.0175582820680767,17.2356885757228
0.0165311683108794,17.2378750893209
0.0155055209925022,17.240093790371
0.0144817246774537,17.2423628655181
0.0134590088792687,17.2447025943667
0.0124340296096312,17.2471401434931
0.0113988252615299,17.2497170725353
0.0103373229295008,17.2525062666412
0.00920827147404898,17.2556698936895
0.00850920294680153,17.2577438477308
0.00828175973208775,17.2584434615164
0.0080753033800023,17.2591430753021
0.0076722215920015,17.260803935577
0.00734928495645525,17.2626222988027
0.00710477923590763,17.2646562647558
0.00694182081450342,17.2670012614467
0.00686999115064633,17.2697784802587
0.00688262953506076,17.2727288785297
0.0069135802882181,17.2752251475149
0.0069158745555391,17.2774214071698
0.00686387041419531,17.2796777984605
0.00672653677894211,17.2821275652893
0.00647546869888286,17.2848507188873
0.00612548056282529,17.2877084202156
0.00577321914428044,17.2902431758861
0.00541423141820424,17.2927645563957
0.00503916077208709,17.2955213882783
0.00465130397398191,17.2987264121369
0.00430823750814305,17.3021640803005
0.00401532757647963,17.3060181784392
0.00376345392291628,17.3109355108774
0.00363722728989166,17.3150283487447
0.00356722596076657,17.3191211866119
0.00353687512451302,17.3245315687589
0.00355908821845614,17.3292526318662
0.00362147647869356,17.3341168323463
0.00372001965096691,17.3388749169438
0.00385842362772897,17.3436875246905
0.00403920995775314,17.3485047157531
0.00426661584127065,17.3533093492418
0.00454445761837451,17.3580578122592
0.00487665879117476,17.3627074511059
0.00526670565149728,17.3672133545484
0.00571800005267506,17.3715389876372
0.00623367572692579,17.3756563917141
0.0068163790361597,17.379546145149
0.00746809598061268,17.3831973000978
0.00819148002944543,17.3866129539573
0.00898886956090915,17.3898007180692
0.009863287977356,17.3927748017952
0.0108176547506042,17.3955504571756
0.0118759248465748,17.3981923511401
0.0130670787806167,17.4007483342751
0.0144110213375755,17.4032280451285
0.0159321017843496,17.4056422680794
0.0176605234827188,17.40800313473
0.0196359555121815,17.4103262938091
0.0219126925046485,17.4126325375955
0.0245708004303982,17.4149524073415
0.0277445170959743,17.4173386709318
0.0315218578121038,17.4197906959098
0.0359772228898221,17.4223093286662
0.0414220379677633,17.4250357690015
0.0452180467881285,17.4268037188167
0.0491002216155689,17.428571668632
0.0524974141410035,17.4301496909801
0.0553753994543667,17.4315828707685
0.057736245378446,17.4329243549314
0.0595407308623014,17.4342095902357
0.0607170027124795,17.4354667100094
0.0611567271192678,17.4367240867955
0.0606891315957069,17.4380195356024
0.0589803097264572,17.4394279837706
0.0556134151866937,17.4409599619334
0.0503095636673412,17.4426025359276
0.0449629889002557,17.4439192095177
0.0400326477047844,17.4449969062143
0.0353117307997116,17.4459662312354
0.0307451100668083,17.4468769168648
0.026331391158679,17.4477528648216
0.0220797857436259,17.4486093805385
0.0179988745112213,17.4494585300773
0.0140918454569247,17.4503118840072
0.0103511188306888,17.4511833522089
0.00674371382137364,17.4520954676167
0.00314854774244752,17.4531044014835
-0.000885288751445147,17.4544151867167
-0.00390713915513917,17.4555914578072
-0.00601007417178309,17.4565671993914
-0.00767551267361873,17.4574821986831
-0.00838637132832435,17.4579273448613
-0.00900726104103454,17.4583724910394
-0.00952331108871911,17.4588380692458
-0.00999236065034912,17.4594181914854
-0.0103014188059696,17.4600252500815
-0.0104532167398469,17.4606613580752
-0.0104515193420233,17.4613277989216
-0.0103018254150212,17.4620261142915
-0.0100104981578383,17.4627593143223
-0.00958406114349343,17.4635312694412
-0.00903044686027194,17.4643447523329
-0.00835861659559244,17.4652030402789
-0.00757830180156502,17.4661101122436
-0.0066884539474049,17.4670829870166
-0.00568682498040392,17.4681403622569
-0.00457121811200331,17.4693040801305
-0.00333592440319536,17.4706059991507
-0.00213469001427722,17.4719114346829
-0.000971116303728412,17.4732366798441
0.00014938712039227,17.4745925366826
0.00122315043751164,17.4759895980957
0.00224815142834807,17.4774392142368
0.00322411646055963,17.4789545144629
0.00415277425667144,17.4805516826077
0.00503834794546583,17.4822518563436
0.00588848115071168,17.4840843505462
0.00671372868230892,17.4860867845058
0.00746964005224568,17.4881374266737
0.00818798170158246,17.4902812516582
0.00889727518823084,17.4925625745696
0.00963084492157092,17.4950428388139
0.0104343668515186,17.497819074434
0.0113855724460173,17.5010748438623
0.0126763778269393,17.5052975133496
0.0141106650414869,17.5096509588722
0.0157637122627388,17.5142392725336
0.0177812899802792,17.5193164824437
0.0205674794331709,17.5256379722555
0.022330360945216,17.5293833076916
0.0241210783118602,17.5331286431277
0.0256830770202013,17.5364836535296
0.0270063935471516,17.5395517704329
0.0281147622149905,17.5425027527847
0.028962675220195,17.5453292041203
0.0295364867598047,17.548077897661
0.0298304615962265,17.5508728829846
0.0298006457421803,17.553900626904
0.0292632921306281,17.5577054675911
0.0285113322844444,17.5606323353156
0.0275175026280326,17.5635592030402
0.0264986316251199,17.5661058299139
0.0254757566975123,17.5684304040304
0.0244458903548908,17.5706396255235
0.0234113281188827,17.5727847768756
0.0223760900638439,17.5748949947372
0.0213442998148606,17.5769894975998
0.020319782532181,17.5790822568472
0.0193059756059215,17.5811841690753
0.0183059244173427,17.5833042138975
0.017322290766253,17.5854501524053
0.0163573668381223,17.5876289700915
0.0154130789568565,17.5898471954621
0.0144909891876279,17.5921111317593
0.013592287535382,17.594427050732
0.0127177779636868,17.5968013626771
0.011867858672902,17.5992407754877
0.0110424949594702,17.6017524571735
0.0102257476890615,17.6043957510746
0.00940885613250408,17.6072173172629
0.00859192492500381,17.6102386669363
0.00777402523253335,17.6134853339836
0.00695296495978099,17.6169872993679
0.00612485398078768,17.6207801495706
0.00528366248267796,17.6249066631246
0.00481632424663675,17.6273168060256
0.00436808436143735,17.6297269489267
0.00402678373456587,17.6317009697347
0.00324284063341606,17.6368010990214
0.00260518272071069,17.6416387437596
0.00208621195077635,17.646114737216
0.00167085491828753,17.6502556239258
0.00133456369870692,17.6540912517078
0.00105244649292531,17.657650027174
0.000810840137945638,17.6609588668167
0.000601656861301821,17.6640433706431
0.000419527912146115,17.6669280858559
0.000260445053798558,17.6696368791439
0.000121134909570745,17.6721935026588
-1.23146606525375e-06,17.6746224996108
-0.000109188607267823,17.6769507305335
-0.000205091285341065,17.6792103425037
-0.000291272998273078,17.681445358236
-0.00037042058922569,17.6837298397796
-0.000447038914401687,17.6862410340702
-0.000507951678600675,17.6885485490906
-0.000559932278600305,17.6908560641111
-0.000595499552487512,17.6927185885509
-0.00062212742429024,17.6943541144767
-0.000643834950184279,17.6959331754526
-0.000662139462811544,17.6975565942688
-0.000677669760654311,17.699341047008
-0.000690342612109905,17.7015349176422
-0.000695629849158566,17.7057798927686
-0.000677460960350849,17.7098568054981
-0.000644234557948411,17.7133640274096
-0.000592107907492934,17.7170758859468
-0.000502488750391986,17.7217676959952
-0.00039837899055942,17.7260083583511
-0.000267298104247995,17.7303615486194
-0.000117071576935186,17.7344652102497
5.10707741592353e-05,17.7382625999179
0.000239471433908622,17.7417811844683
0.00045153718879609,17.7450490556384
0.000691712778877215,17.7480964488884
0.000965985186733509,17.7509605261273
0.00128199775234364,17.7536820706926
0.00165008759857458,17.7563115296328
0.00208596135574022,17.758922115638
0.00261679324204501,17.7616370736002
0.00330967972506146,17.7647645424886
0.00393152392982208,17.7674283192121
0.00442675659360334,17.769608895229
0.00488230564094869,17.7717898593875
0.00533913899729145,17.7743054285031
0.00582850050418093,17.7776322371487
0.00617613526672715,17.7805195610458
0.00646044728377676,17.783054236399
0.00674024848081515,17.7854216321077
0.0070614515543645,17.787794419372
0.00746699294903737,17.7902787203609
0.00797893348061212,17.7928152999308
0.00861590345362617,17.7953580172687
0.00937041869598113,17.7978039693903
0.0102300234062474,17.8000991310225
0.0112027778694249,17.8022661982257
0.0122989690285432,17.8043220629455
0.0135285294866539,17.8062754367411
0.0149018646129131,17.8081318949308
0.0164345960606055,17.8099006212501
0.0181439577703911,17.8115884092242
0.0200511835317318,17.8132024209151
0.0221800513632918,17.8147484338032
0.0245585952066035,17.816232149568
0.0272187375122182,17.8176585759607
0.030197862207821,17.819032659512
0.0335393239097594,17.8203590688837
0.0372943234245209,17.8216425184106
0.0415235728273492,17.822887754644
0.0463002294416515,17.8240997706767
0.0517137790498522,17.8252839660049
0.0578759977592232,17.8264464263416
0.0649305483327031,17.8275943872524
0.0730689440913647,17.8287369699583
0.0825607837462478,17.8298866792399
0.0938166243305734,17.8310625233534
0.10720946998189,17.832269888306
0.122817614484105,17.8334902466197
0.141215625442816,17.834749823817
0.16341593992284,17.8360988060982
0.186670603510124,17.8373895746911
0.206366269494597,17.8384342998386
0.223909388252563,17.8393618429849
0.239701026553582,17.8402261062944
0.253654390344819,17.8410509841131
0.265497788085041,17.8418505520416
0.274852267913374,17.8426349489345
0.281248514031244,17.8434128291718
0.28411435415273,17.8441930143785
0.28272401871313,17.8449865545168
0.276030272400559,17.8458126558928
0.262003309653733,17.8467161943814
0.24041072026479,17.8476304067628
0.218457627636537,17.8483473208652
0.192635293686111,17.8490642349676
0.168709335496457,17.8496639125446
0.147011315434175,17.8501799311827
0.126993368524736,17.850646523662
0.108379780054485,17.8510818495771
0.091019011581603,17.8514971060845
0.0748008375382186,17.8519005884395
0.0596222907047712,17.8522996214498
0.0453613996743475,17.8527021646418
0.0318283733409991,17.8531195949068
0.0185920722794392,17.8535759696276
0.00672996651620916,17.8540443432583
5.40759775908136e-05,17.8543432538197
-0.00595336535263261,17.8546421643811
-0.0109612848750549,17.8549197155576
-0.0153721339671264,17.8551921142942
-0.019640757300721,17.8554885147155
-0.0236456891667967,17.8558060356947
-0.0273099853420542,17.8561430260471
-0.0305928947834033,17.8564992560156
-0.0334748298144734,17.8568754402474
-0.0359487919584776,17.8572729860497
-0.0380103582908151,17.8576938807977
-0.039702047376713,17.8581643360403
-0.0408512037131616,17.8586347912828
-0.0415790954789889,17.8591275838722
-0.0419224124621214,17.8596562431337
-0.0418895708594792,17.8602260324949
-0.0414872905912599,17.8608432610941
-0.0407173118823056,17.8615176161323
-0.0395775152513063,17.8622594499595
-0.0380606726173933,17.8630822464337
-0.0361515166840653,17.8640043797936
-0.0338205839617255,17.8650527392779
-0.0310078392088827,17.8662718674894
-0.028063145181657,17.8675381730908
-0.025294738320197,17.8687458049748
-0.0227226691061804,17.8699001675673
-0.0203501619518168,17.8710057369985
-0.018174267560265,17.8720651635684
-0.0161884258157328,17.873080017421
-0.0143838539527977,17.8740512149165
-0.0127504448135142,17.874979244456
-0.0111987077674468,17.875913038647
-0.00970533849446423,17.8768698718834
-0.00827496917144924,17.8778516345954
-0.00691174706013613,17.8788606527201
-0.00561954841290281,17.8798996222308
-0.00440193625698515,17.8809717119402
-0.00326211515938182,17.8820806960781
-0.00220288125394343,17.8832311321445
-0.00122656749206079,17.884428606254
-0.000334983248497359,17.88568008215
0.000470653827749593,17.8869944155187
0.0011897979851379,17.8883831443094
0.00182267608213429,17.8898617672647
0.00237042646073139,17.8914519519818
0.00281608759961762,17.8931038004445
0.00316774009381213,17.8948077209773
0.00344148230047331,17.896582819796
0.00365207098452405,17.898452641677
0.0038136103461861,17.9004491221505
0.00394015355725718,17.9026186083169
0.00404671617083666,17.905034963559
0.00415156473474028,17.9078342657779
0.00428419483624678,17.9113469815045
0.00444899043030322,17.9151456633003
0.00464917628387883,17.9190604428947
0.0048853305552016,17.9230946562419
0.00515589229339086,17.9272803441249
0.00545928540576591,17.9316498922224
0.00579586577353871,17.9362372821157
0.00616905837301281,17.9410797198299
0.00658290637795863,17.9461812149164
0.00701101521504153,17.9511640970018
0.00746529748988275,17.9561282120152
0.00794597312628244,17.9610225228795
0.00845847545881582,17.9658498985073
0.00900822717121968,17.9706065904571
0.00960198486099357,17.9752949117049
0.0102472352368312,17.979916220235
0.0109574614796687,17.9845029674207
0.011755447247963,17.989119684959
0.0126575342285685,17.9937628965164
0.0136877023869445,17.9984502816375
0.0148801787897848,18.0032186381002
0.0162929481721576,18.0081572170078
0.0180552223266,18.0135157369117
0.0205075133625383,18.0199765186782
0.0221226352901209,18.0238482355723
0.0237919870610696,18.0277199524664
0.0252525529820199,18.0311583862137
0.0264856799421107,18.0342736999417
0.0275119696284772,18.0372492555685
0.0282912014532276,18.0400979579818
0.0288034664265348,18.0428538002541
0.0290417857600343,18.0456387721419
0.0289638223623204,18.0486259087123
0.0284092261352646,18.0522655416839
0.0275967381094793,18.0553044166474
0.0265210428430457,18.058343291611
0.0254385066573835,18.0609409433288
0.0243640915542419,18.0632903458097
0.0232886175754018,18.0655148255263
0.0222121731469674,18.0676707198901
0.0211378794584235,18.069789121973
0.020069430960355,18.0718902370396
0.019010450584122,18.0739886342525
0.0179643221198957,18.0760956089769
0.0169341474586798,18.0782204376582
0.0159227455978216,18.080371113636
0.0149326639786747,18.0825548168682
0.0139661887009877,18.0847782455251
0.0130253595228001,18.0870478524124
0.0121119796815406,18.0893700416653
0.0112276249138663,18.091751339141
0.0103736562307447,18.0941985392035
0.00955122728517632,18.0967188633528
0.00875290076539457,18.0993488323464
0.00796578855896064,18.1021549589186
0.00719365458325124,18.105157771404
0.006440299031406,18.1083817879774
0.005709758231263,18.1118554761993
0.00500626867340047,18.1156120712958
0.00433421289027226,18.1196905923526
0.00369801712781803,18.1241373033699
0.00310196874361587,18.1290081669184
0.00254994222506693,18.1343733116118
0.00204505502236892,18.1403254103969
0.00159473921338285,18.1469066210184
0.0012246789424785,18.1539628392806
0.000934831698748224,18.1616399532228
0.000733772603954889,18.1687540934979
0.000548786782416896,18.1773629697982
0.000405392297449647,18.1865663805012
0.000297254975537328,18.1965663805012
0.000225657965333589,18.2065663805012
0.000180327191340789,18.2165663805012
0.000153912386285791,18.2265663805012
0.000141643881899985,18.2363258667667
0.00013959835923753,18.2452203158438
0.000143815344063255,18.2533144354774
0.000152014879019523,18.2606924886528
0.00016286862767384,18.2674306351575
0.000175557466758017,18.2735972450721
0.000189552847924028,18.2792540354885
0.000204501819032605,18.2844570598103
0.000220175546586463,18.2892575688414
0.000236423472016348,18.2937028590508
0.000253167409574364,18.2978371703649
0.00027037873668183,18.3017027454915
0.000288528799233899,18.3053412411068
0.000308524303377201,18.3087958786373
0.000330327967356144,18.3121152388381
0.000354146009997109,18.315361175095
0.000380728904300871,18.3186292338468
0.000412228270862578,18.3221224635857
0.000449357210325249,18.3258157357304
0.000478945451458447,18.3284834717742
0.000511092916922977,18.3311512078181
0.000542176825759231,18.3335314262032
0.000573697664308598,18.3357702312044
0.000607858842030301,18.3380213143596
0.00064750902219748,18.3404339217362
0.000698587193769484,18.3432694131148
0.000786766197442503,18.3475819762697
0.000893889603295017,18.3520509690971
0.000996735783869594,18.3557593564277
0.00111534602805184,18.3595330314771
0.00126828306142076,18.3638172416135
0.00148358047628219,18.3690189454885
0.00172656739289759,18.373950384087
0.00199511679578708,18.3784814650932
0.00229578722204231,18.3826697431234
0.00263523767590089,18.3865610645848
0.00302282776568159,18.3902221802597
0.00347158905528942,18.3937322278154
0.00400263157492825,18.3971994140793
0.00465585390639969,18.4007981005836
0.0054501013948147,18.4045611175724
0.00643953679202311,18.4087099498018
0.00767523375532276,18.4134198318276
0.00848292775409529,18.4162735579604
0.0093555433168391,18.4191272840932
0.0102038623583106,18.4216330091268
0.0110585223352071,18.4238769482324
0.0119433410799832,18.4259205622204
0.0129215697435334,18.4278910689786
0.0140072658302332,18.4297834802568
0.0152250863778516,18.4316112014371
0.0165871739938581,18.4333662194171
0.0181147090677922,18.4350539361264
0.0198217813509944,18.4366708210309
0.0217315335792693,18.4382221341369
0.0238663262130824,18.4397102545314
0.0262506960684406,18.4411376786357
0.0289147422487698,18.442508469743
0.031893512087232,18.443826854918
0.0352268384601174,18.4450967031676
0.0389606561151878,18.4463217787405
0.0431500627653005,18.4475062826437
0.0478594003040924,18.4486542404343
0.0531652956655018,18.4497697985148
0.059159949553371,18.4508573007893
0.065956596196733,18.451921536842
0.073696039997,18.4529678252975
0.0825579104488082,18.4540023917665
0.0927787177618968,18.4550329230034
0.104683781796883,18.4560695776415
0.118748427604282,18.4571269241802
0.135477479863105,18.4582129005637
0.154904012454624,18.4593061114185
0.177627763076232,18.4604232300866
0.204548897498514,18.4615909506956
0.237015338853282,18.4628510282086
0.269601211879544,18.4640166217875
0.298160295350141,18.4649982751434
0.32384194880413,18.4658798923872
0.346918305219153,18.4667005237428
0.367244657375105,18.4674811774312
0.384513158773838,18.468237348887
0.398280166343448,18.4689828470287
0.407916040885454,18.4697314395284
0.412504959029848,18.4704981312219
0.410671873566306,18.4713008756511
0.400219824809068,18.4721657194085
0.379741149286774,18.4730505782234
0.348383558096331,18.4739517458672
0.305019862835441,18.4748853815326
0.273406374323736,18.4754598658591
0.238789568245948,18.4760343501857
0.206953580837148,18.4765346578574
0.178441597101489,18.4769732060922
0.152593006489216,18.477372022412
0.128946259915943,18.4777452032723
0.107190019170948,18.4781023846029
0.087081258134469,18.4784512838252
0.0683916922314947,18.4787994454741
0.0508428951513568,18.4791565347022
0.0339271575417301,18.4795407479627
0.0157212491207524,18.4800207141086
0.00801889606492616,18.4802541911604
0.00103917898142825,18.4804876682122
-0.00481236171639827,18.4807040345036
-0.0101488355472176,18.4809224399688
-0.0154047119335156,18.4811630427892
-0.0203931946430692,18.4814225008009
-0.0249979064063876,18.4816989041673
-0.0291560391098677,18.4819917534291
-0.0328300295150213,18.4823014789907
-0.0361593791664072,18.4826484824534
-0.0387533205425763,18.4829926750339
-0.0408529478641916,18.483358181385
-0.0424690701219713,18.4837480070459
-0.0436112483979699,18.4841654676069
-0.0442887407354241,18.4846146084646
-0.0445090767549969,18.4851003899555
-0.0442765880560813,18.4856289535671
-0.0435907079275271,18.4862080188595
-0.0424407179177288,18.4868489770037
-0.040804508279198,18.4875657828238
-0.0386427417474581,18.4883777957431
-0.0358853493713554,18.4893143896633
-0.0323961271739534,18.4904267993735
-0.0279178715085213,18.4918082018863
-0.0236037059154531,18.4931317053665
-0.0195180785543809,18.4944060493892
-0.0156985246697328,18.4956359794366
-0.0121692579285913,18.4968238706686
-0.00894491000467534,18.4979708553287
-0.00603180663785509,18.4990774101463
-0.00342866831807444,18.5001436639142
-0.00112739988336636,18.5011695576306
0.000885849422994476,18.502154923281
0.00262939809284805,18.503099515263
0.00413489280612495,18.5040095757715
0.00550157083461226,18.5049425402611
0.00672122577430061,18.5058996203788
0.00778816962276968,18.5068828118371
0.00869839839600445,18.5078944372969
0.0094495872073177,18.508937232032
0.010041000499827,18.5100144498562
0.010473335252761,18.5111300042247
0.0107485106835923,18.5122886603849
0.0108694170785896,18.5134963038812
0.0108396310296307,18.514760327237
0.0107980249951419,18.5151859235911
0.0107441306694517,18.5156115199451
0.010639796607943,18.5163080949631
0.010373309605375,18.5177296091749
0.0100222324352848,18.5192501469897
0.00959072997261151,18.5208719714269
0.00910572552332782,18.5225358736271
0.00857656686237242,18.5242603156411
0.00801192213117362,18.5260652784981
0.00741915434741567,18.5279771576849
0.00680420602206597,18.5300327673185
0.00617106810772192,18.5322875281924
0.00552019224431986,18.5348345845358
0.00484305126181892,18.5378620996519
0.00422820155214869,18.5411251215425
0.00368921846896076,18.5446126345331
0.00322166520754063,18.5483683428262
0.00281530160847594,18.5524486953928
0.00245580542831183,18.5569268583203
0.00212698425468647,18.561900905132
0.00182334916181599,18.5673473187393
0.00158139368615696,18.5724827754641
0.0014068440586756,18.5770746729994
0.00129705369920756,18.5811622975928
0.0012484010325198,18.5847737239816
0.00125462981073209,18.588172668871
0.00131730017846497,18.5914843603892
0.00143206905716321,18.5946002614885
0.00159177037789664,18.5975411217774
0.00178918322283121,18.6003333049143
0.00201830686319608,18.6030061404259
0.002275441043423,18.6055949984027
0.00256044020759364,18.6081477204677
0.00287970494433054,18.6107437277368
0.00325741772256075,18.6135651760121
0.0036770243278351,18.61647127975
0.0039971614970516,18.6185646792194
0.00433134685029441,18.6206580786887
0.0046445523929003,18.6225472119409
0.00495169025060457,18.6243397157932
0.00527198054873412,18.6261521570248
0.00562791422308068,18.628104374909
0.00606382703263835,18.6304139913309
0.00669389270992233,18.6336081642847
0.00738928041985257,18.6369513241589
0.00804933125405801,18.6399611164039
0.00875960842531838,18.6430352436129
0.00961223473162742,18.6465167172547
0.0105115564340824,18.649961576859
0.011465814981929,18.6533851416107
0.0125287987011229,18.6569467908566
0.0137667659914196,18.6608010034333
0.0152597179664227,18.6650951520634
0.0170946254821875,18.6699611579588
0.0188008638222194,18.6742105432186
0.0205556018891627,18.6784599284783
0.0220357169059779,18.6821029425973
0.0232711084312183,18.685361714346
0.0242988315257111,18.6884555264604
0.0251182058109572,18.691543243742
0.0256708295439872,18.6945997161291
0.0259322202431866,18.6977637001667
0.0258312326724348,18.7013190153789
0.0251404993482276,18.7057930844018
0.0241275531747167,18.7096045179345
0.0229535356347948,18.7130416300098
0.0217659971032718,18.7160794790859
0.0205601896698141,18.7189421868086
0.0193361813943623,18.7217340482764
0.0180990391272734,18.7245104808606
0.0168538898005255,18.7273107633414
0.0156055056313619,18.7301672944883
0.0143582145648425,18.7331102481708
0.0131169309655892,18.7361680101714
0.0118875256058614,18.7393680418694
0.0106752814311709,18.7427424224217
0.0094857481448194,18.7463277687874
0.00832629050400798,18.7501621963204
0.00720495973318835,18.7542896910368
0.00613030362645273,18.7587626655669
0.00545138161722229,18.7621615021887
0.00491090323682616,18.7655603388105
0.00449019793208363,18.7686775206117
0.00399926281184503,18.7727863166907
0.0035618217779698,18.7768349346634
0.00314947814021814,18.7809783143629
0.00272897323042928,18.7855793643554
0.00233899311730957,18.7902674397792
0.00198520117900882,18.7949503649864
0.00168658544590802,18.7992680787834
0.00144150149623853,18.8030753741284
0.00122294908537954,18.8066660234786
0.00101918022232811,18.8101639965682
0.000823718176365203,18.8136344063582
0.000671188042169482,18.8171192555217
0.000587811025671251,18.8206494446774
0.000550544115110204,18.8242499254109
0.000543273284812804,18.8279423372353
0.000556587766872989,18.8317465424835
0.000585783731837046,18.8356816188858
0.000628967166321143,18.8397665861019
0.000685381058561477,18.8440209968938
0.000754071992877155,18.8484655102893
0.000832982053725036,18.8531225036941
0.00091853215844289,18.8580167790304
0.00100569805198808,18.8631764385992
0.00108846506077598,18.8686340353871
0.00116049070916639,18.8744279983745
0.00121578330771785,18.8806043490957
0.00124926938564347,18.8872186641321
0.00125720045511714,18.8943381308657
0.00123741973365839,18.9020442522898
0.00118952172701597,18.910437213233
0.00111491403154719,18.919642540122
0.00101856678069107,18.929642540122
0.000924218476543212,18.9388201452172
0.000835243958195489,18.9474777376383
0.000751610374996887,18.9559229263088
0.000673482666682808,18.9643132585445
0.000598467364874953,18.9730535022567
0.000527084147727951,18.9822471279963
0.000459853064531732,18.9919856387971
0.000399288075967333,19.0019856387971
0.000346493957500698,19.0119856387971
0.000300510015673633,19.0219856387971
0.000260340316915361,19.0319856387971
0.000225020119055366,19.0419856387971
0.000193653496968074,19.0519856387971
0.00016543195683239,19.0619856387971
0.000139641146926769,19.0719856387971
0.00011566061324572,19.0819856387971
9.81305357942793e-05,19.0919856387971
9.04503716584306e-05,19.1019856387971
8.54379023737696e-05,19.1119856387971
8.06555081695693e-05,19.1219856387971
7.58890109447861e-05,19.1319856387971
7.14854617299277e-05,19.1419856387971
7.10433395976333e-05,19.1519856387971
7.37446488521874e-05,19.1619703475449
7.79295579699526e-05,19.171191284472
8.27922694969388e-05,19.1796751059341
8.80563230194077e-05,19.1874794929974
9.36557686741675e-05,19.194659495737
9.95877537300144e-05,19.2012663202355
0.000105857235243933,19.2073475306843
0.000112459790327595,19.2129472860088
0.00011937916883607,19.2181064864207
0.000126591641598844,19.2228630209522
0.00013406584195506,19.2272519480113
0.000141768610777897,19.2313056962809
0.000149666375746883,19.2350542738482
0.000157724702631543,19.2385254635203
0.000165915217488002,19.2417450363888
0.000174211457880697,19.2447369632167
0.000182592787998932,19.2475236446021
0.000191047152336344,19.2501261624924
0.000199568575961038,19.2525645725378
0.00020816095961369,19.2548582689003
0.000216842402944318,19.2570264748253
0.000225647095826516,19.2590889721141
0.000234632660204838,19.2610673018384
0.000243898152440591,19.2629869934768
0.00025361681534294,19.2648823511176
0.000264123634901029,19.2668090153375
0.00027624233743006,19.268889989263
0.000289954694315088,19.2710818293758
0.000300761009547779,19.2726995948391
0.000312196041592873,19.2743173603023
0.000322980948991918,19.2757620413327
0.000333674131391401,19.2771231406343
0.00034532538484863,19.2784908543578
0.000359166616059802,19.2799512982136
0.000377156232951959,19.2816482583253
0.000406599151626095,19.284066445729
0.000452663839189084,19.287228412679
0.000500297519312982,19.2899494289027
0.000554782963117521,19.2925957092782
0.000628868427975026,19.2956559439304
0.00074614158774164,19.2997333636958
0.000933992787590868,19.3052761250077
0.00113367025189051,19.3103981266134
0.001344036010519,19.3150801166333
0.00157041103650349,19.319335931081
0.00182002836918123,19.3232062384659
0.00210012888386447,19.326730149067
0.00241849901277381,19.3299496410871
0.002783827135038,19.3329070114694
0.00319833005378276,19.3355996606407
0.00367475966184505,19.3381030112736
0.00423621662255486,19.3405127447677
0.00492834808406227,19.3429665518141
0.00578884573814474,19.3455363512236
0.0065716153385293,19.3476095309332
0.00740684874420431,19.3496827106428
0.00820077058659457,19.3516053613166
0.0090342839619646,19.353633460395
0.0101122562393805,19.3563108574394
0.0108914081151509,19.3582605568984
0.0116896697469395,19.3602102563574
0.0124916151001796,19.3620542001343
0.0133272707134102,19.3638067048722
0.0142443036697838,19.3655178958812
0.015286989400148,19.3672161236199
0.0164669192048636,19.3688716414473
0.0178207022865425,19.3704958803706
0.0193587653024097,19.3720677380056
0.0210999777616723,19.3735822932019
0.0230672144926127,19.3750396638776
0.0252807480030318,19.3764381548738
0.0277601047933706,19.3777763844992
0.030537681744068,19.379059420366
0.0336472575058175,19.3802905551413
0.037127889912256,19.3814732317767
0.0410244962247398,19.3826108370429
0.0453905448603553,19.3837070890551
0.0502878081691424,19.3847654740532
0.0557885630346331,19.3857894275139
0.0619777253628077,19.3867823486328
0.0689561138715642,19.3877477014501
0.0768440069322908,19.3886890160627
0.0857863286443058,19.3896099712207
0.09595963306002,19.3905144856852
0.107581752210684,19.3914068348085
0.120925567731605,19.3922918160185
0.136338791573025,19.3931749639581
0.154274397045269,19.3940629115724
0.17534054412941,19.3949640279907
0.200369051458224,19.3958889272604
0.229293536292943,19.3968148235435
0.262819424854595,19.3977501212763
0.301894814148202,19.3987077684056
0.34800650085304,19.3997125537265
0.386178505630328,19.4004776910331
0.426079038900203,19.4012428283398
0.461411103174974,19.401915636268
0.4922620767592,19.4025237113321
0.519376816718655,19.4031022137062
0.542835519552371,19.4036758755553
0.562218307065184,19.4042684677537
0.576469413359129,19.4049128183571
0.582991678890422,19.4056624871486
0.578038694147476,19.4064292251312
0.56051641385118,19.4072347099972
0.528628403423147,19.4080983192837
0.483101948015024,19.4089808195007
0.422571991232791,19.4099030349178
0.372173220689919,19.4105588882957
0.316617423698199,19.4112147416737
0.268240802108748,19.4117533063108
0.227644535717568,19.4121956820435
0.192442494301414,19.4125811164802
0.161156742159445,19.4129321421337
0.132940487524515,19.4132620165245
0.107235977770388,19.4135800317165
0.0836042596334626,19.4138942780571
0.0616018509652839,19.4142141404321
0.0405492602552261,19.4145559615253
0.0182092912445527,19.4149766786009
0.00805304259701831,19.4151970482054
-0.00108876354328377,19.4154174178098
-0.00774141115729321,19.415594715286
-0.0138335006290202,19.4157730223431
-0.0199766808111392,19.4159724218364
-0.0259144796003045,19.4161894321922
-0.0314817114089158,19.4164219100342
-0.0365859335390414,19.4166690787183
-0.0411785294827641,19.4169310748983
-0.0452374067363963,19.4172086930378
-0.0487567661766692,19.4175032626736
-0.0517408263330352,19.4178166078176
-0.0541938119395491,19.4181510632539
-0.0561462164146535,19.4185154497778
-0.05754138558756,19.4188984414245
-0.0584479149334594,19.41931304843
-0.0588775765282375,19.4197648757945
-0.0588374471205703,19.4202609136061
-0.0583279876702504,19.4208102333813
-0.0573372333391929,19.4214262115344
-0.0558357270379758,19.4221267328753
-0.0537646230641039,19.4229387073276
-0.0510025326720957,19.4239087634024
-0.04724066701615,19.4251431107522
-0.0427748924875363,19.4265582385885
-0.0384127007321561,19.4279281286124
-0.0342104991297547,19.4292582409495
-0.0301984650327479,19.4305508176826
-0.0263943477592034,19.4318066059503
-0.0228089659442628,19.4330256030802
-0.0194485115836609,19.4342074514911
-0.0163156676737768,19.4353516472888
-0.0134102536126293,19.4364576486121
-0.0107296713665893,19.4375249278493
-0.00826926227202693,19.4385529905905
-0.00602262034945097,19.4395413735458
-0.00398188188330262,19.4404896281945
-0.00213800026430886,19.4413972938902
-0.000368668343322549,19.4423246601078
0.00132243263419809,19.4432760082072
0.00292541241000563,19.4442532318221
0.00442976065977304,19.4452585708419
0.00582434132902724,19.4462946653605
0.00709746292954454,19.4473646563569
0.00823698057895457,19.4484723193614
0.00923042712583642,19.4496222460308
0.0100651630133953,19.4508200969398
0.0107285234018145,19.4520729638633
0.0112079239656769,19.4533899072614
0.0114908584672916,19.4547827879867
0.01156466801888,19.456267623555
0.0114158455505693,19.457866953862
0.0110563353878937,19.4595129617201
0.0105098903217932,19.4612137069919
0.0101170071511745,19.4622289041141
0.00982157454381639,19.4629322329198
0.00952245654214331,19.4636355617255
0.00871598153000391,19.465553993658
0.00787999040792831,19.4676122790404
0.00701397969911739,19.4698713676253
0.0061137806145545,19.4724257180605
0.00521632140632691,19.4752760739886
0.00439487053538411,19.4782659207057
0.00365072940126959,19.4814189176867
0.00297874816364147,19.4847676980079
0.00236969887914893,19.4883512778983
0.00181132258826249,19.4922175814393
0.00128973294678789,19.4964272466742
0.00079175010155224,19.5010594477876
0.00031221887075211,19.506192304864
-6.81497755450466e-05,19.5109561082358
-0.000331034445195456,19.5149295198363
-0.000515825078752905,19.5184893391362
-0.000639523509544506,19.5218850146439
-0.000706094211983749,19.5253091169134
-0.000708425647121344,19.5290181090851
-0.00063132682720846,19.5329715638395
-0.000483124588919929,19.5368090317974
-0.000273937186468748,19.5406063421031
-5.31629950997377e-05,19.5438528683377
0.000181190762424715,19.5468752412364
0.000429929233124222,19.5498005189808
0.000693102856038331,19.552690659076
0.000970742231306125,19.5555838757098
0.00126301361138442,19.5585073334471
0.00157026348919123,19.5614823088721
0.00189305107224294,19.5645267341417
0.00223218791877693,19.567656586174
0.00258879594314513,19.5708867311473
0.00296439291320118,19.5742314936149
0.00336099563064533,19.5777050568129
0.00378125942427394,19.5813217851801
0.00422865435668448,19.5850965081241
0.00470770283624126,19.5890448136224
0.00522431676079143,19.5931833986344
0.00578627993663549,19.597530504954
0.006403939112133,19.6021063652261
0.00709120615122671,19.606933581469
0.00780658713320519,19.6116510207182
0.00856515893658043,19.616312195938
0.00937516602922316,19.6209139081493
0.0102647703063889,19.6255476487461
0.0112484733871858,19.6302034238077
0.0123496763013773,19.6348986209549
0.0136011160991713,19.6396665449514
0.0150570230296388,19.6445866049096
0.0168322660859764,19.6498717247256
0.0193546858370504,19.6564283518644
0.0210550372200858,19.6604482505505
0.0228194512248945,19.6644681492365
0.0243495515434111,19.6679877976775
0.0256383551474481,19.6711457277009
0.0267167707575671,19.6741428721908
0.027556474331504,19.6770299550744
0.0281260893802956,19.6798086936934
0.0284226770134978,19.6825995548731
0.0284114671964352,19.6855654107917
0.0279629301126521,19.6890882836153
0.0271876628777355,19.6922666936291
0.0261187931483211,19.6954451036428
0.0250460605320197,19.6981089042527
0.0239831048275811,19.7004973352271
0.0229179920755606,19.7027526043177
0.0218504050829812,19.7049363830528
0.0207835436716449,19.7070818845839
0.0197212317660278,19.7092105260334
0.01866721617449,19.7113377395396
0.0176249911308463,19.713475540725
0.016597764462831,19.7156338646609
0.0155884587224465,19.7178213565664
0.0145997299049156,19.7200458658661
0.0136339811054865,19.7223147996765
0.0126933808786959,19.7246353749764
0.0117798779774104,19.7270148229507
0.0108952107046948,19.7294605749976
0.0100409254369876,19.7319804073421
0.00921838215096376,19.7345826145535
0.00842877077694591,19.737276155313
0.00766132875980872,19.7401163524174
0.00690993797787573,19.7431567176674
0.00617858728476735,19.7464215494806
0.00547135460574403,19.7499395777752
0.00479251141997215,19.7537442303422
0.00414645159626847,19.7578746639197
0.00353757263123764,19.7623772708069
0.00297007739560952,19.7673082769142
0.00244769985681185,19.7727384586233
0.00197338639609827,19.7787618898235
0.00155345829447941,19.7854324870812
0.00120078303358128,19.7925966123507
0.00090834232133364,19.8003525562075
0.000669457689570286,19.8088310705417
0.000477988034139519,19.8182027332332
0.000334107354700983,19.8282027332332
0.000234191531563756,19.8382027332332
0.000165170466071405,19.8482027332332
0.000117661744626767,19.8582027332332
8.50455556387335e-05,19.8682027332332
6.27363248385194e-05,19.8782027332332
4.75528952437143e-05,19.8882027332332
3.72867378729045e-05,19.8982027332332
3.04045635706197e-05,19.9082027332332
2.58427029147221e-05,19.9182027332332
2.28644780741172e-05,19.9282027332332
2.0961016510019e-05,19.9382027332332
1.97821403502476e-05,19.9482027332332
1.90881471591932e-05,19.9582027332332
1.87161415014487e-05,19.9682027332332
1.85565225208593e-05,19.9782027332332
1.85365713066497e-05,19.9882027332332
1.85698961530516e-05,19.9941013666166
1.8628421942189e-05,20
