ecg,time
0.002605535909821,15.0031912025313
0.00295753290076985,15.0063516200364
0.00335723781135697,15.0092965463817
0.00381137907629635,15.0120469304068
0.00432783483031617,15.014622712047
0.00491594727356871,15.017043123991
0.0055869832247563,15.0193270859875
0.00633567291878456,15.0214443005218
0.00716327774686255,15.0234038190629
0.00808199838024827,15.0252400440265
0.00911034849645131,15.0269881245427
0.010278923837298,15.0286890124388
0.0116475102498332,15.0304041324839
0.0134589499269531,15.0323574732437
0.0152369290030166,15.0340418419618
0.0171845148252967,15.0357262106799
0.0188867125401102,15.0371303302132
0.0203611603254934,15.0383451034109
0.0216797865566951,15.0394756298273
0.0228578512241627,15.0405748643088
0.0238858913919482,15.041681519655
0.024737420523273,15.0428377726307
0.0253614289583543,15.0441092787505
0.0256406247620815,15.0456539591012
0.0253089970648188,15.0474798954276
0.0243620922661915,15.0493058317539
0.0232535528626217,15.0507817949433
0.0220107829741319,15.0521771011674
0.0206274362721947,15.053592322296
0.019111545311705,15.0550722634821
0.0174703804163189,15.0566545814419
0.0160711754606831,15.0580367848942
0.01475521866081,15.0594189883466
0.0124657521622398,15.0620769560484
0.0105588554726355,15.0646188455603
0.00898431187729091,15.0670316129085
0.0076717377068677,15.0693408451495
0.00656272172297174,15.0715777066759
0.00560821324205852,15.0737839070099
0.00476299336685221,15.0760273754467
0.00397110879752132,15.078461629488
0.00320105407517262,15.081253256352
0.00277339065164551,15.0830483538977
0.00239180589146041,15.0848434514434
0.00207976941782221,15.0864803701287
0.00181047683761849,15.0880437430822
0.00156278603829386,15.0896321350895
0.00132118088680916,15.0913513561038
0.00106548255165451,15.0933985263518
0.000723861427539624,15.096618664786
0.000421030671661882,15.1001399304201
0.000206153864381149,15.1032161378843
2.66313761243382e-05,15.1063527374272
-0.000143646415123439,15.1100956222722
-0.000314984735791686,15.1153406282251
-0.000416501435718899,15.1206264458285
-0.000444988058782044,15.1253453753604
-0.000410746930639906,15.1296095472217
-0.000316609631964424,15.1334502301752
-0.000162345211086227,15.1369150548432
5.4150823305677e-05,15.1400511088781
0.000336798914824537,15.1429095673101
0.000692003157626777,15.1455442688141
0.00112971030851834,15.1480098243848
0.00166658693781605,15.1503679911601
0.00233192521243122,15.152694728074
0.00317909750921816,15.1550917250281
0.00434289873420125,15.1577800554085
0.00587470968665773,15.1606991869799
0.00732025599207884,15.1630467502358
0.00898446533771493,15.1653943134917
0.0105656559032594,15.1673335358813
0.0121678881430187,15.1690504043767
0.0138610470882209,15.1706327673575
0.0157098759777881,15.1721336039676
0.0177400541980479,15.1735591133273
0.0200028484924735,15.174929136265
0.0225267919931251,15.1762437288003
0.0253576053300715,15.1775104995398
0.0285284266505268,15.1787288418598
0.0320900822587798,15.1799038999134
0.0360922306685162,15.1810379011483
0.0405879143121345,15.1821324977383
0.0456478280502437,15.1831917914342
0.0513501899936183,15.1842188919222
0.0577872520693404,15.1852170623159
0.0650692878436356,15.1861897921001
0.0733273388329246,15.1871405904643
0.0827258640250998,15.1880737750782
0.0934666227249206,15.1889938672506
0.105803884325381,15.1899060123792
0.120065020602041,15.1908162803722
0.13668271725664,15.1917321298784
0.156249021242755,15.1926632199793
0.179468622638061,15.1936173998183
0.206340083420707,15.1945739696474
0.237544708952048,15.1955422867619
0.273993136134355,15.1965360343072
0.317066478932352,15.1975794397458
0.355109872041438,15.1984232080622
0.395169570397293,15.1992669763785
0.430359354723955,15.1999978029096
0.460918617210556,15.2006500929203
0.487695965339468,15.2012636611836
0.510844455178016,15.2018647229783
0.530034114416867,15.2024761484123
0.544398639743942,15.2031256794373
0.552018605854454,15.203860837427
0.549320174766258,15.2046431458161
0.534693023181013,15.2054537223494
0.506622658264127,15.2063106040221
0.463051001742464,15.2072273194865
0.403421229058787,15.2081867144067
0.355565770288118,15.2088368028859
0.302632242985318,15.2094868913651
0.256054023227916,15.2100248532317
0.216621916022841,15.2104695774921
0.182252502480584,15.2108582869471
0.151613583874699,15.2112127674803
0.123925909332135,15.2115460319294
0.0986694099215373,15.2118672624507
0.0754319775401724,15.2121844373972
0.0537981166864107,15.2125066951014
0.0331440665991666,15.2128495102205
0.0115547194985182,15.2132630663828
0.00051648640519267,15.2135066361182
-0.00694681726802029,15.2136884919742
-0.0137735002796982,15.2138703478302
-0.0197208485526313,15.2140438578525
-0.02582520354684,15.2142403558108
-0.0317964692944071,15.2144557486385
-0.0374407862892212,15.2146872770308
-0.0426489131520646,15.2149337841762
-0.0473624102705226,15.215195163038
-0.0515533139263527,15.2154720352373
-0.0552122750304771,15.2157655904315
-0.0583363245100167,15.2160775224677
-0.0609840780230121,15.2164187925952
-0.0630219916487653,15.216772172324
-0.0645617284501734,15.2171519037132
-0.0656187109707391,15.2175622772882
-0.0662057942810973,15.2180084705872
-0.0663325040785738,15.2184970144972
-0.0660030464234417,15.2190363118955
-0.065212090842882,15.2196383696711
-0.0639396738598357,15.2203195198328
-0.0621437187120519,15.2211032632853
-0.0597381479131079,15.2220282821598
-0.0565216670020215,15.2231732855603
-0.0523582176575198,15.2245977297165
-0.0482994674169259,15.2259723223622
-0.0444059677856249,15.2273053917433
-0.0407095875419077,15.2285999208141
-0.0372270101493442,15.2298570600565
-0.0339665790403895,15.2310770355682
-0.0309312023827803,15.2322596238266
-0.0281198090010018,15.2334044021127
-0.025528239151861,15.2345108792713
-0.0231499015664096,15.2355785603043
-0.0209763228745535,15.2366069723743
-0.0189976355564264,15.2375956668648
-0.0172030176070801,15.2385442055322
-0.0155810860003959,15.2394521351673
-0.0140214217727947,15.2403795099015
-0.0125229100373368,15.2413308559858
-0.0110896237129424,15.2423080652816
-0.00972542188607646,15.243313377651
-0.00843394478026951,15.2443494327286
-0.00721856223687043,15.2454193705664
-0.00608232004282414,15.2465269652057
-0.0050278837441696,15.2476768060987
-0.00405747957615072,15.2488745506541
-0.00317283155430679,15.2501272861219
-0.00237509275703113,15.2514440664162
-0.00166476696685461,15.2528367426695
-0.00104161314972015,15.2543213173651
-0.000504517257292008,15.2559203057451
-7.41599764764503e-05,15.2575662738516
0.000263584779729501,15.2592669162992
0.00052413941366188,15.2610408757789
0.000721780405425726,15.2629120423001
0.000870086861641404,15.2649130705589
0.000982455453283595,15.2670917659106
0.00107295694783839,15.2695251709522
0.00115827905124576,15.2723577770694
0.0012647799219158,15.2759544699318
0.00139280522167068,15.2797454786778
0.00156071332570198,15.2839773130475
0.00178058977539828,15.2888615947295
0.00201855614277373,15.2937774867948
0.00225009837324209,15.2984172538836
0.00245614015630631,15.3025061666227
0.00265153717250382,15.3063746809288
0.00284326659276505,15.3101599679117
0.00303569520872935,15.3139357015012
0.00323225650523341,15.3177514467933
0.00343601393873586,15.3216457905697
0.00364990629505467,15.3256517138354
0.00387692867018012,15.3297999493848
0.00412027218097246,15.3341209580494
0.00438347032668199,15.3386462933069
0.00467061823662561,15.3434099565339
0.00498673373263188,15.3484497446177
0.00533835360254611,15.3538084026937
0.0057021781039776,15.3590745743176
0.00608271546266438,15.3642814212354
0.00648094691637999,15.3694004609153
0.00690078583591493,15.3744382485339
0.00734648599482301,15.3793992250311
0.00782304093070073,15.3842905391261
0.00833586137039474,15.3891173663624
0.00889080421794644,15.3938826308876
0.00949424193157624,15.3985870977345
0.0101531677670139,15.4032298232888
0.0108829042028394,15.4078545468324
0.0117041240749129,15.4125091878286
0.0126340026697552,15.417194178989
0.0136977140208757,15.421930464667
0.0149326348120255,15.4267634861675
0.0164054713606613,15.431804721226
0.0182797524959973,15.4373869616865
0.020721842634851,15.4437389167138
0.0222861125921514,15.4474938826859
0.0238820342485048,15.451248848658
0.0252732494063378,15.4546166666086
0.0264476949579073,15.4577134442962
0.0274161160525732,15.4607040053127
0.0281253065618858,15.4635527928261
0.0285681069609083,15.4663351170058
0.0287314042770852,15.469181042859
0.0285580653272872,15.4722963228774
0.0278001405996845,15.4763639155927
0.0269504574341456,15.4792246877228
0.0258903285552106,15.482085459853
0.0248163293777594,15.4846177860438
0.0237444239955081,15.4869520791593
0.0226711972933406,15.489180944339
0.0215982638092068,15.4913512631582
0.02052905161047,15.4934905785977
0.0194672841959175,15.4956174197575
0.0184165500614963,15.4977454497278
0.0173802319077224,15.4998854417284
0.0163613837043536,15.5020463603485
0.0153627661614,15.5042360142546
0.0143868744722748,15.5064614767154
0.0134359476647435,15.5087293880797
0.0125119810292016,15.5110461761761
0.0116167381188252,15.5134182307643
0.0107517547960992,15.5158520721695
0.00991835476732084,15.5183544768992
0.00911765425660346,15.5209326292472
0.00833724993064437,15.5236423659119
0.00757013676368293,15.5265352396262
0.00682009407041914,15.5296327604179
0.00609099527626414,15.5329602734479
0.00538692729755548,15.536547102505
0.00471214804501507,15.5404273071961
0.00407101407382681,15.5446406564847
0.00346784955041325,15.5492341145753
0.00290673222178453,15.5542644647545
0.00239122097189091,15.5598029497547
0.00192408055768716,15.5659433284911
0.00151090707729857,15.5727446316788
0.0011635100003276,15.5800644777631
0.000927356005274584,15.5863958193159
0.00074935086076483,15.5927271608687
0.000565835086410789,15.6015565996112
0.000425670892850096,15.6109885677465
0.00032063201706793,15.6209885677465
0.000247718249126574,15.6309885677465
0.000197738193537689,15.6409885677465
0.00016402020913284,15.6509885677465
0.00014169420482908,15.6609885677465
0.000127303382763873,15.6709885677465
0.000118464866439216,15.6809885677465
0.000113563256114023,15.6909885677465
0.000111508105738995,15.7009885677465
0.000111563217082022,15.7109885677465
0.000113234202274862,15.7209885677465
0.000116195530312256,15.7309885677465
0.000120242289442229,15.7409885677465
0.000125257547179642,15.7509885677465
0.00013119020065879,15.7609885677465
0.00013804037413388,15.7709885677465
0.000145850487270879,15.7809885677465
0.000154700725272369,15.7909885677465
0.000164708099229242,15.8009885677465
0.000176028692703461,15.8109885677465
0.000188863078287061,15.8209885677465
0.000203465286470225,15.8309885677465
0.000220156172268554,15.8409885677465
0.00023934263693251,15.8509885677465
0.000261545052810291,15.8609885677465
0.000287436621192733,15.8709885677465
0.000317900632676289,15.8809885677465
0.00035411536238073,15.8909885677465
0.00039768287265901,15.9009885677465
0.000450829773575558,15.9109885677465
0.000511749246692581,15.9202973801182
0.000580971822616791,15.9288885513213
0.000659562773936735,15.936815089418
0.000748781522520604,15.94412916259
0.000850067863620443,15.9508792510657
0.000965055193855531,15.9571103352005
0.00109559360467296,15.9628641677795
0.00124377821083324,15.9681795124413
0.00141198262103498,15.973092351399
0.00160289560298661,15.9776360927769
0.00181956702383959,15.9818417743622
0.00206546003879999,15.9857382561865
0.00234451588934254,15.9893523966243
0.00266123314960795,15.9927092339824
0.00302076782745826,15.9958321786143
0.00342906397862216,15.9987432097881
0.00389302459815687,16.0014630895872
0.00442074712677586,16.004011617208
0.00502185786639908,16.0064079422286
0.00570800548427637,16.0086709813777
0.0064693808445497,16.0107593238549
0.00731135259962372,16.0126956522892
0.00824703059593291,16.0145144956553
0.0092963958578667,16.0162514643437
0.0104932174588919,16.0179494872498
0.0119167831525618,16.0196888512164
0.0138542562919446,16.0217229578504
0.0155195888387211,16.0232692365788
0.0173217248960574,16.0248155153072
0.018988852791643,16.0261886058129
0.0204508899152666,16.0273947868724
0.0217602842449743,16.0285219435019
0.0229291008258474,16.0296205251163
0.023946700593779,16.0307289989102
0.0247853999997687,16.0318903014891
0.0253918612186005,16.0331728814471
0.0256401579384428,16.0347477062086
0.0252728166697925,16.0365511932161
0.0243124884600345,16.0383546802235
0.0231980488990692,16.0398226422864
0.0219486258780344,16.0412174475194
0.0205588684441504,16.0426348486026
0.0190369924739736,16.0441187299962
0.017390054442481,16.0457068702599
0.0156481186371339,16.0474467005328
0.0142414048912373,16.0489603127767
0.012040589043926,16.0515892152608
0.0102089586667755,16.0541022116357
0.00869393267872014,16.0564912233491
0.00742783205244752,16.0587826532869
0.00635450927716844,16.061009198177
0.00542627460961814,16.063216136579
0.00459750954684226,16.0654812489432
0.00380483313371402,16.0679990793705
0.00305496295476791,16.0708186076993
0.00265658368029158,16.0725512857203
0.00229970848492458,16.0742839637412
0.00200243197561484,16.0758884976691
0.00174078216195542,16.0774495271768
0.00149627465094675,16.0790618320778
0.00125332888719356,16.0808441161905
0.000986955330960229,16.0830581981497
0.000608137245835421,16.0868480404377
0.000317745090871151,16.0905167103641
0.000110356873870046,16.0937819673814
-6.77706837814695e-05,16.0972789491099
-0.000240236471279224,16.1017469528257
-0.00038333668578415,16.1074211595526
-0.000440738646833068,16.1123309231794
-0.000433037330118463,16.1167936984554
-0.000364650429101752,16.1208118527097
-0.000236453242264627,16.1244352902641
-4.72839734215212e-05,16.1277058736873
0.000206240020562967,16.1306787380614
0.000529211326005939,16.1334041262079
0.000929463137739746,16.1359341492878
0.0014198757761023,16.1383265691669
0.00202290374045932,16.1406501812993
0.0027839938333347,16.1430077034228
0.00378548731714184,16.145532457586
0.00517210619782606,16.1484003410167
0.00690066248280851,16.151371926912
0.00825352658525626,16.1533787489231
0.00978771526460689,16.1553855709341
0.0113545899880371,16.1571806960496
0.0130137701332513,16.1588409755859
0.0147706780828611,16.1603705373144
0.0167129976774927,16.1618364593389
0.0188500795443095,16.1632292015918
0.0212404177745031,16.1645710057199
0.0239119196659233,16.1658601959767
0.0269079437872092,16.1671019763979
0.0302722103596249,16.1682991833014
0.0340460965283348,16.1694523952971
0.0382883291264322,16.1705660560243
0.0430606700651304,16.171642912147
0.0484349782543275,16.1726859135115
0.054493119991374,16.1736977842664
0.0613387389411673,16.1746824794893
0.0690930321701659,16.1756436164734
0.0779030251117953,16.1765850803264
0.087949629142519,16.1775111411718
0.0994589351984082,16.1784266011617
0.112717622998028,16.1793369442475
0.128101986423134,16.1802489496672
0.146116345142482,16.1811710602683
0.167467805315261,16.1821146305433
0.192442749049942,16.1830690009495
0.221389374117399,16.1840300835613
0.255088415286173,16.1850090178313
0.294635130608935,16.1860234410785
0.341903961269068,16.1871094382826
0.37749839442056,16.1878712853306
0.414136147829533,16.1886331323787
0.44669862238603,16.1893155561006
0.475241042192999,16.1899439005016
0.500152118207803,16.1905481203879
0.52131990261139,16.1911515935686
0.538163548780953,16.19177858495
0.549388929155891,16.1924640700783
0.552028175782073,16.193239963839
0.5432533022221,16.1940345530649
0.521833570004023,16.1948673057781
0.48595278472828,16.1957540948531
0.433365345874713,16.1967055183199
0.369081209958493,16.1976335067299
0.32465322071223,16.1981958723853
0.277019438849982,16.1987582380408
0.234748451501971,16.1992384985253
0.198195008242188,16.1996502108063
0.165891848942408,16.2000190732011
0.136865855739666,16.2003612019141
0.110499509798767,16.2006871804729
0.0863431423808303,16.2010052962268
0.0639981811287827,16.2013237715322
0.0429829909780584,16.2016539444019
0.0223109875239783,16.2020212442012
0.0071986863572682,16.2023289395041
-0.00148575832277078,16.2025268204983
-0.00939322014468992,16.2027247014924
-0.0159203973224227,16.2029041146983
-0.0219756270973874,16.203086954129
-0.0280609934017291,16.2032909037648
-0.0339285598729508,16.203512484683
-0.0394210544555863,16.2037496209867
-0.0444511573769944,16.2040015957397
-0.0489735079534206,16.2042685983511
-0.0529680954803568,16.2045514730116
-0.0564304703939554,16.2048515993474
-0.0594550474218827,16.2051832355537
-0.0618110945919887,16.2055218952137
-0.0636591891158561,16.2058846767817
-0.0650155666722778,16.2062754039394
-0.0658943142885041,16.2066985883123
-0.0663072346233275,16.2071598686927
-0.0662621155743819,16.2076664067302
-0.0657605024573603,16.208227502598
-0.0647917181093341,16.2088571232324
-0.0633289921117571,16.2095735309508
-0.0613175011111352,16.2104046060431
-0.0586418920258403,16.211399184667
-0.054998940607721,16.212671428831
-0.0508665965730301,16.2140752864318
-0.0468628765312545,16.2154342965424
-0.0430384235539198,16.2167531598233
-0.0394183912035044,16.2180340436746
-0.0360159450518578,16.2192776899535
-0.0328372289460772,16.2204841232646
-0.0298835799278152,16.2216530277629
-0.0271527191149543,16.222783945738
-0.0246395350958543,16.2238763800763
-0.0223366932342904,16.2249298426143
-0.0202351599523186,16.2259438702448
-0.0183246725242169,16.2269180205337
-0.0165941620917187,16.2278518533435
-0.0149986564498733,16.2287646345934
-0.0134610544477364,16.2297006712527
-0.0119861571913967,16.230661325392
-0.0105779317970542,16.2316486283355
-0.00924016262594486,16.2326649573225
-0.00797639620256871,16.2337131235014
-0.0067898891440601,16.2347964832367
-0.00568355357538183,16.235919087272
-0.0046598999452478,16.2370858850821
-0.00372097669034717,16.2383030122319
-0.00286830548958169,16.239578207135
-0.00210280957504743,16.2409214383285
-0.00142473020018332,16.2423458925457
-0.000833521533357996,16.2438696227819
-0.000335215947213498,16.2454906645449
5.93157375245845e-05,16.2471545868098
0.000367082700611295,16.2488797020271
0.00060299300247469,16.2506861110815
0.000781019338834673,16.2526004223252
0.000914603150777607,16.2546598415319
0.00101725760222377,16.2569205554648
0.00110367649393794,16.2594774297542
0.00119264052351862,16.2625236992768
0.00130724157268804,16.2662569804263
0.00144714778692814,16.2701620716418
0.00163412091809903,16.2746398689451
0.00186014134332626,16.2795059805901
0.00210432521261872,16.2844807936369
0.00232412636781001,16.2888623696781
0.00252531554600735,16.292850651878
0.00271882546413072,16.2966790466569
0.00291036789103822,16.3004542707211
0.00310387877099295,16.3042391104409
0.00330262163260383,16.3080783645952
0.00350959468851473,16.3120082170708
0.00372773706712951,16.3160605352995
0.00396009811568355,16.320265792663
0.00420996989122315,16.3246546860674
0.00448105174544354,16.3292594651432
0.00477771174049838,16.3341153208474
0.00510541425970323,16.3392616404807
0.00546493442722568,16.3446471493632
0.00583318889930583,16.3498762317003
0.00622000405750488,16.3550584397289
0.00662520789081332,16.3601467564538
0.00705361225082962,16.3651574125513
0.00750950806826084,16.3700931163611
0.00799812288198745,16.3749614188691
0.00852499543418949,16.3797664732819
0.00909615871020843,16.3845104725092
0.00971818715383141,16.3891935014243
0.0103983252564864,16.3938142018855
0.0111586386953835,16.3984517718282
0.0120153663769167,16.403115164501
0.0129887032472851,16.4078150262956
0.0141069990703304,16.4125778129633
0.0154149200956146,16.4174651787993
0.016999379289698,16.4226346626366
0.0191184234097622,16.4286356926075
0.0209054445719369,16.4331623856178
0.0228050033236545,16.4376890786281
0.0243885926140828,16.441428594762
0.0257041404823151,16.4446862925164
0.0268075511496805,16.4477303366625
0.027694004565412,16.4506864357165
0.0283103463513472,16.4534992185202
0.0286586406902195,16.4562873037799
0.0287147352552728,16.4591956660788
0.0283897557992243,16.4625025880928
0.0273867658608735,16.4668302558417
0.0264939995464772,16.4694944548868
0.0254381481178819,16.4721586539319
0.0243674910643589,16.4745879850088
0.0232952048102337,16.476870023807
0.0222217515838024,16.4790700642199
0.0211499270216646,16.4812246517268
0.0200833825301981,16.483356787886
0.0190258103749872,16.4854826271804
0.0179807186377442,16.4876144470715
0.0169513600042923,16.4897621630613
0.0159406605794746,16.4919341905061
0.0149512680321804,16.4941379879292
0.013985568758597,16.4963804163016
0.0130456994970807,16.4986680001335
0.0121335557266343,16.5010071350853
0.0112508057732917,16.5034042444707
0.0103988951775932,16.5058659399999
0.0095790602700656,16.5083991498737
0.00879233328803887,16.5110112714239
0.00801692867736972,16.5137948631014
0.00725643728316716,16.5167698805199
0.00651459650227241,16.51995963685
0.00579537249568716,16.5233910483823
0.00510293113914331,16.5270952992063
0.00444158315106689,16.5311086804474
0.00381569012927961,16.5354737361039
0.00322950505958976,16.5402410985075
0.00268693036247196,16.5454727875835
0.00219121589017993,16.5512482643035
0.00174476710827663,16.5576737150493
0.001359674393016,16.5646779634673
0.00103747289268867,16.5722407040303
0.000779504647376465,16.5804801188779
0.000579346290071002,16.5897051206831
0.000445958644109617,16.598361831857
0.000335122980052443,16.6083402687221
0.000257801551985148,16.6183402687221
0.000204618156558696,16.6283402687221
0.000168619949145408,16.6383402687221
0.000144702103518406,16.6483402687221
0.000129206479980976,16.6583402687221
0.000119594497811844,16.6683402687221
0.000114141249410881,16.6783402687221
0.000111683112733054,16.6883402687221
0.000111435248350447,16.6983402687221
0.000112870101835245,16.7083402687221
0.00011563876499563,16.7183402687221
0.000119519404263948,16.7283402687221
0.000124382569260502,16.7383402687221
0.000130167635333331,16.7483402687221
0.000136867149299286,16.7583402687221
0.000144517081613524,16.7683402687221
0.000153191646052486,16.7783402687221
0.00016300181284893,16.7883402687221
0.000174097048698157,16.7983402687221
0.000186670204193891,16.8083402687222
0.000200965862970028,16.8183402687222
0.000217292915074607,16.8283402687222
0.000236042697833239,16.8383402687222
0.00025771488148154,16.8483402687222
0.000282954559375326,16.8583402687222
0.000312606068281335,16.8683402687222
0.000347792515454785,16.8783402687222
0.000390035954758341,16.8883402687222
0.000441443833293558,16.8983402687222
0.00050104417001059,16.9077697431048
0.000568811340916128,16.9164769130932
0.000645756516836856,16.9245105391154
0.00073310781002868,16.9319232616536
0.000832273891398021,16.9387641675951
0.000944854234134611,16.9450788009926
0.0010726609213818,16.9509094350901
0.00121774600132777,16.9562953171744
0.00138243426578849,16.9612728786365
0.00156935895279589,16.9658759425377
0.00178150641575079,16.9701359279172
0.00202226654572931,16.9740820454638
0.00229549605516953,16.9777414749098
0.00260559410162648,16.9811395449433
0.00295759897041175,16.9842999237076
0.00335731285990703,16.9872448150243
0.00381146438683274,16.989995167545
0.00432793191425034,16.9925709210642
0.0049160579376425,16.9949913081894
0.00558710967161646,16.9972752486715
0.00633581262117622,16.9993924330549
0.00716343244378568,17.0013519274466
0.00808217074750319,17.0031881343958
0.00911054269816478,17.004936203478
0.0102791472081078,17.0066370884793
0.0116477787122124,17.0083522206985
0.0134593370650483,17.0103056373905
0.0152371888816316,17.0119898529855
0.0171846099902303,17.0136740685805
0.0188867734665813,17.0150781595863
0.0203612113312675,17.016292926878
0.0216798305122736,17.0174234514173
0.0228578882158697,17.0185226858628
0.0238859206822802,17.019629342821
0.0247374405827403,17.0207855995513
0.0253614367506836,17.0220571133791
0.0256406118120202,17.0236018136224
0.0253089593450395,17.0254277367603
0.0243620442999236,17.0272536598983
0.0232535007656979,17.0287296181195
0.0220107265455973,17.0301249243105
0.0206273758323142,17.0315401472006
0.0191114812953527,17.0330200913097
0.0174703131190498,17.0346024134213
0.0160710332535552,17.0359846969532
0.0147550119500159,17.0373669804851
0.0124655817893129,17.0400249359706
0.0105587161950286,17.0425668129217
0.00898419692508668,17.0449795700834
0.00767164147780108,17.0472887949121
0.00656263958395947,17.0495256525165
0.00560814112125902,17.0517318540398
0.00476292697512462,17.053975333109
0.0039710407594375,17.0564096240374
0.00320099423503943,17.0592012621575
0.00277334389261777,17.0609963301875
0.00239177008262534,17.0627913982175
0.00207974007167804,17.064428300618
0.00181045051505305,17.0659916718895
0.00156276069333109,17.0675800741109
0.00132115456065317,17.0692993218536
0.00106545158312281,17.0713465585833
0.000723800951715051,17.0745670629839
0.000420978466090695,17.078088375841
0.000206107820538598,17.0811646314433
2.65869733909866e-05,17.0843013637521
-0.000143691258963113,17.0880445140981
-0.000315032401137625,17.0932902296303
-0.000416520744703658,17.0985757598591
-0.000444986609885202,17.1032945494612
-0.000410726136371118,17.1075585761936
-0.000316569786956063,17.1113991314779
-0.000162285872099478,17.1148638430965
5.42304770660268e-05,17.1179997978815
0.000336900778452766,17.1208581774411
0.000692129843971912,17.123492817126
0.00112986580396677,17.1259583283498
0.00166677836795255,17.1283164728892
0.00233216713177297,17.1306432216149
0.003179416305963,17.1330402752328
0.00434335829773704,17.1357287532758
0.00587528532043267,17.1386479235373
0.00732074581021076,17.1409952265516
0.00898483371447695,17.1433425295659
0.0105659981552315,17.1452816603664
0.0121682538815242,17.1469985024862
0.0138614369139629,17.1485808387375
0.0157103118929522,17.1500816644595
0.017740535596744,17.1515071583461
0.0200033898041587,17.1528771711123
0.0225273965154603,17.1541917513875
0.0253582819484818,17.1554585107053
0.0285291855754501,17.1566768426463
0.0320909334765222,17.1578518907178
0.0360931863978153,17.158985882712
0.0405889901167297,17.1600804712046
0.0456490384343966,17.1611397571053
0.0513515540936487,17.1621668505756
0.0577887926905204,17.1631650147661
0.0650710322450981,17.1641377391965
0.073329322022343,17.1650885333381
0.0827281253409836,17.16602171454
0.0934692129547672,17.1669418043894
0.105806868215288,17.1678539484607
0.120068482564679,17.1687642169181
0.136686772020848,17.1696800688763
0.156253827122038,17.1706111639658
0.1794741772422,17.1715653436091
0.206346520986226,17.172521915064
0.237552203229671,17.1734902363111
0.274001928813879,17.1744839918874
0.317076975686813,17.1755274131389
0.355118860789501,17.1763711337894
0.395176567351083,17.17721485444
0.430365248040022,17.1779456593068
0.460923753695462,17.1785979392334
0.487700434669579,17.1792115032101
0.510848238317294,17.1798125649416
0.530037108310705,17.1804239946539
0.544400617380485,17.1810735361032
0.552019036970812,17.1818087170459
0.549318438385203,17.1825910290427
0.534688889867192,17.18340161288
0.506615785974767,17.1842585048694
0.463040964238497,17.1851752326392
0.403408869310356,17.1861346236993
0.355554680687858,17.186784676353
0.30262322839999,17.1874347290067
0.256046657382635,17.1879726681101
0.216615613702498,17.1884173797802
0.182246939741805,17.1888060818439
0.151608587937404,17.1891605577981
0.123921373681664,17.1894938194787
0.0986652573128856,17.1898150486424
0.0754281400895733,17.190132223618
0.0537945143644829,17.1904544832188
0.0331405462706061,17.1907973041683
0.0115505599495282,17.1912108851578
0.000515166630277236,17.1914543987807
-0.0069479637724565,17.1916362530637
-0.0137744892088146,17.1918181073467
-0.0197217159995351,17.19199161631
-0.0258260662526349,17.1921881171311
-0.0317972961481654,17.1924035124244
-0.0374415568022379,17.1926350430243
-0.0426496160124228,17.1928815522984
-0.0473630397010228,17.1931429333319
-0.0515538675056627,17.1934198078355
-0.0552127524017951,17.1937133655412
-0.0583367247803282,17.1940253003667
-0.060984345840305,17.1943665655909
-0.0630221980755151,17.1947199482094
-0.0645618759545374,17.1950996830303
-0.0656188012519959,17.1955100605932
-0.0662058287356712,17.1959562585749
-0.0663324835937868,17.196444808051
-0.0660029711030896,17.1969841121649
-0.0652119592426412,17.1975861783861
-0.0639394825426501,17.1982673392672
-0.0621434606900732,17.1990510969313
-0.0597378084726877,17.1999761361878
-0.0565212074516898,17.2011211744845
-0.0523577663220885,17.2025456119069
-0.0482990315723717,17.2039201998221
-0.0444055521171364,17.2052532649289
-0.0407091944663555,17.2065477899151
-0.0372266409341512,17.2078049251287
-0.0339662342530114,17.2090248966008
-0.0309308820981836,17.2102074807781
-0.0281195129182926,17.2113522549299
-0.0255279666737706,17.2124587278983
-0.0231496518631286,17.2135264046872
-0.0209760949393527,17.2145548124625
-0.018997428255848,17.21554350261
-0.0172028297261614,17.2164920368859
-0.0155809162828909,17.217399962078
-0.0140212581970712,17.218327339306
-0.0125227531375451,17.2192786880129
-0.0110894739053261,17.2202559001496
-0.0097252795671801,17.2212612156157
-0.00843381032087746,17.2222972740927
-0.00721843597648163,17.2233672156919
-0.00608220228385384,17.2244748145298
-0.00502777474587542,17.2256246601568
-0.00405737954822328,17.2268224101106
-0.00317274064997827,17.2280751518167
-0.00237501106540674,17.2293919394338
-0.00166469450392261,17.2307846244486
-0.00104154984694141,17.2322692098828
-0.000504462945405393,17.233868211849
-7.41166421411724e-05,17.2355141847306
0.00026361895955942,17.237214834034
0.000524166032730888,17.238988802607
0.000721800961395797,17.2408599811986
0.000870102801221976,17.242861025717
0.000982468240385568,17.2450397437035
0.00107296819160984,17.2474731822501
0.0011582908469959,17.2503058442765
0.00126479644936967,17.2539026623972
0.00139282507163415,17.2576936936122
0.00156073922750804,17.2619256029971
0.00178061754164395,17.2668098694825
0.00201858599459831,17.2717257779396
0.00225012280348253,17.276365425939
0.00245616252294624,17.2804542952311
0.00265155875227796,17.2843227922093
0.0028432880543852,17.2881080740594
0.00303571702309118,17.2918838100285
0.00323227906611511,17.295699563222
0.00343603760934274,17.2995939194327
0.00364993143388438,17.3035998591806
0.00387695565233077,17.307748115131
0.00412030141408906,17.3120691481742
0.0043835022719459,17.3165945120158
0.00467065344322468,17.3213582084401
0.00498677289466338,17.3263980349031
0.00533839765540431,17.3317567372617
0.00570222287567145,17.337022884902
0.00608276258975371,17.3422297272223
0.00648099626044946,17.347348754978
0.00690083804911505,17.352386533316
0.00734654160302594,17.3573475007614
0.00782310059084198,17.3622388067921
0.00833592576816428,17.3670656264396
0.00889087410022791,17.3718308836218
0.00949431811030956,17.3765353431086
0.010153251136246,17.3811780611173
0.0108829978883688,17.3858027890981
0.0117042297062414,17.3904574329398
0.0126341228688282,17.3951424288479
0.0136978523803174,17.3998787227356
0.0149327970982819,17.4047117606955
0.0164056690139449,17.4097530333682
0.0182800199441669,17.4153353852386
0.0207221113417947,17.4216872558168
0.0222863587891834,17.4254421428709
0.0238822464483467,17.4291970299249
0.025273428084498,17.4325647930263
0.0264478447497908,17.4356615454686
0.0274162364021933,17.4386521011657
0.0281253888064351,17.4415008713795
0.0285681508641121,17.4442831946985
0.028731405724529,17.447129141035
0.0285580101029603,17.4502444845948
0.0277999432956568,17.4543123697099
0.0269502372229667,17.4571730211373
0.0258901143179477,17.4600336725647
0.0248161182625339,17.4625659403284
0.0237442129267818,17.4649002053362
0.02267098603668,17.4671290552578
0.0215980529314056,17.4692993656487
0.0205288418367622,17.4714386770025
0.0194670762504898,17.4735655171595
0.0184163446330005,17.475693548488
0.017380029629737,17.4778335437646
0.0163611851457136,17.4799944672965
0.0153625718373583,17.4821841275698
0.0143866848467939,17.4844095977415
0.0134357631529546,17.4866775180986
0.0125118019989588,17.488994316448
0.0116165648933987,17.4913663825582
0.0107515876556117,17.4938002367932
0.0099181939499839,17.4963026557287
0.00911749996165081,17.498880823751
0.0083370978637342,17.5015905945384
0.00756998768090644,17.5044835061854
0.0068199487089107,17.5075810695428
0.00609085441851394,17.5109086304863
0.00538679176473063,17.5144955136549
0.00471201868585152,17.518375779673
0.00407089174601427,17.5225891987483
0.00346773508740629,17.5271827367042
0.00290662638425817,17.532213179116
0.00239112438624896,17.5377517722491
0.00192399368158385,17.5438922804238
0.00151083365826956,17.5506936749221
0.0011634486563542,17.5580136302139
0.000927273689975316,17.5643459676084
0.000749265469189362,17.5706783050029
0.000565767345109121,17.5795081569573
0.000425632868735625,17.5889393375544
0.000320605258363325,17.5989393375544
0.000247699657841204,17.6089393375544
0.000197725544093847,17.6189393375544
0.000164011789265112,17.6289393375544
0.000141688736874715,17.6389393375544
0.000127299963500861,17.6489393375544
0.000118462882116267,17.6589393375544
0.000113562296210673,17.6689393375544
0.000111507895319517,17.6789393375544
0.00011156357128915,17.6889393375544
0.000113234997716551,17.6989393375544
0.000116196686990278,17.7089393375544
0.000120243758834515,17.7189393375544
0.000125259304108885,17.7289393375544
0.000131192237768847,17.7389393375544
0.000138042698323205,17.7489393375544
0.000145853117651066,17.7589393375544
0.000154703692348519,17.7689393375544
0.000164711445115955,17.7789393375544
0.000176032472308998,17.7889393375544
0.000188867361519267,17.7989393375544
0.000203470161649701,17.8089393375544
0.000220161751097061,17.8189393375544
0.00023934906159001,17.8289393375544
0.000261552506093405,17.8389393375544
0.000287445341145947,17.8489393375544
0.000317910934055547,17.8589393375544
0.000354127668804991,17.8689393375544
0.000397697765982155,17.8789393375544
0.000450848071913287,17.8889393375544
0.000511770105786458,17.8982479177056
0.000580995505964558,17.9068388657134
0.000659589651354126,17.9147651978037
0.000748812024450113,17.9220790812409
0.000850102480875926,17.9288289950789
0.000965094483129447,17.9350599185828
0.00109563819645865,17.9408136035308
0.00124382881929227,17.9461288126255
0.00141204005505187,17.9510415272119
0.00160296077939923,17.9555851546128
0.00181964098279921,17.9597907318792
0.0020655439629761,17.9636871183653
0.00234461112578532,17.9673011718258
0.00266134123886216,17.9706579300078
0.00302089053957077,17.9737808027684
0.00342920336033731,17.9766917689436
0.00389318303699176,17.9794115902595
0.00442092743929653,17.9819600656448
0.00502206342620133,17.984356344523
0.0057082404161202,17.9866193436262
0.00646964043104822,17.9887076311451
0.0073116401684573,17.9906439155159
0.00824735128718383,17.9924627259994
0.00929675778892856,17.9941996740122
0.0104936352874587,17.9958976926129
0.0119173116973112,17.9976371068001
0.0138550528554446,17.9996713889766
0.0155201817156243,18.0012174169201
0.0173220561137402,18.0027634448637
0.0189891124701284,18.0041364711049
0.020451120034695,18.0053426315995
0.0217604915125427,18.0064697797918
0.0229292850291908,18.0075683597474
0.0239468586172178,18.0086768381469
0.0247855256653108,18.0098381536072
0.0253919422801848,18.0111207620698
0.0256401590111084,18.0126956660641
0.0252727355501274,18.0144990752113
0.0243123932373666,18.0163024843585
0.0231979461733308,18.0177704250807
0.0219485107029829,18.0191652286863
0.0205587407575487,18.0205826338831
0.0190368529836154,18.0220665228718
0.017389903474268,18.02365467443
0.0156479612804513,18.0253945212611
0.0142409893887827,18.026908434342
0.0120402376797075,18.0295373227389
0.0102086658104004,18.0320503002271
0.00869368680709428,18.0344392964039
0.00742762348925047,18.0367307148592
0.00635432999684735,18.0389572534384
0.00542611761451198,18.0411641933221
0.00459736758187602,18.0434293224011
0.00380469306519528,18.0459472179167
0.00305483990999017,18.0487667702885
0.00265648236763431,18.0504994070943
0.00229962569341543,18.0522320439002
0.00200236059335943,18.0538365581254
0.00174071729814147,18.055397588405
0.0014962130831402,18.057009913422
0.00125326716650787,18.0587922486553
0.000986885588126659,18.061006472222
0.000608077171720884,18.0647963685456
0.000317710201603539,18.0684648527504
0.000110334433417755,18.071730002001
-6.77886561731115e-05,18.0752269798872
-0.000240252310678943,18.0796950547528
-0.000383345753703544,18.0853692098938
-0.000440743258504576,18.0902789466851
-0.000433038031796385,18.0947416942304
-0.000364647455484516,18.0987598236724
-0.000236446604331013,18.102383239131
-4.72735608435069e-05,18.1056538031917
0.000206254430928655,18.1086266510138
0.000529230166036722,18.1113520261214
0.000929487077722457,18.1138820396156
0.00141990588427021,18.1162744535468
0.00202294263019013,18.1185980668333
0.00278404564348805,18.120955597226
0.00378555875007402,18.12348036781
0.00517219766419184,18.1263482576444
0.00690077492266398,18.129319845995
0.0082536455774006,18.1313266553542
0.00978784177885947,18.1333334647135
0.0113547107568133,18.1351285630241
0.0130139115795385,18.1367888442788
0.0147708284393546,18.1383183953908
0.0167131588665533,18.1397843079963
0.0188502598708933,18.141177045947
0.0212406186555022,18.142518845259
0.0239121466242945,18.1438080322814
0.0269081984177971,18.1450498088623
0.0302724961438482,18.1462470121282
0.0340464179972457,18.1474002209018
0.0382886904774479,18.1485138785168
0.0430610766371997,18.1495907317793
0.0484354363076187,18.1506337305514
0.054493637313249,18.1516455990614
0.0613393241288834,18.1526302922826
0.0690936958921467,18.1535914275688
0.0779037804313919,18.1545328900556
0.0879504922715799,18.155458949903
0.0994599267845031,18.1563744093299
0.11271876941817,18.1572847523483
0.12810332263213,18.1581967583138
0.146117919065477,18.1591188702581
0.167469686143536,18.1600624429958
0.192444925821238,18.1610168136976
0.221391902104374,18.1619778973787
0.255091368306709,18.1629568338439
0.294638619576303,18.163971261245
0.34190820572587,18.1650572672087
0.377502259871543,18.1658191024721
0.414139480272717,18.1665809377355
0.446701510348646,18.1672633542174
0.475243563891758,18.1678916950992
0.500154286275137,18.1684959139335
0.521321684481855,18.1690993882378
0.538164861102278,18.1697263833817
0.549389590704264,18.1704118767265
0.552027826817242,18.1711877713301
0.543251857487584,18.1719823632686
0.521830890547037,18.1728151203227
0.485948681693281,18.1737019149449
0.433359608154093,18.1746533446364
0.36907504355625,18.1755813231989
0.324647655700868,18.1761436751564
0.277014752974765,18.1767060271138
0.234744494346427,18.1771862782978
0.198191556248082,18.1775979850882
0.165888770809385,18.1779668441207
0.136863074535757,18.1783089707489
0.110496973765258,18.1786349481316
0.0863408103378456,18.1789530635019
0.0639960116753749,18.1792715393301
0.0429809231912734,18.1796017142297
0.0223088515037972,18.1799690205116
0.00719776833589697,18.1802766950602
-0.00148630246792924,18.180474569069
-0.00939344747601115,18.1806724430777
-0.015920581485974,18.1808518556388
-0.0219758169647948,18.1810346958188
-0.0280611796557939,18.1812386460778
-0.0339287360027131,18.1814602275258
-0.0394212167800413,18.1816973643186
-0.0444513039225622,18.1819493395548
-0.0489736377669763,18.1822163426673
-0.0529682082319336,18.1824992178652
-0.0564305661374348,18.1827993447907
-0.0594551524585311,18.1831309850868
-0.061811177899768,18.1834696457733
-0.0636592510186175,18.1838324284667
-0.0650156078087289,18.1842231569224
-0.0658943352358968,18.184646342808
-0.066307235826053,18.1851076249712
-0.0662620972624599,18.1856141651376
-0.0657604645352095,18.1861752635891
-0.0647916598180206,18.1868048875008
-0.0633289118555554,18.1875212994353
-0.0613173956563161,18.1883523802469
-0.0586417541754776,18.1893469674713
-0.054998747762424,18.1906192284794
-0.0508664081882998,18.1920230837644
-0.0468626954966762,18.1933820919754
-0.0430382514064179,18.1947009535014
-0.0394182287513685,18.1959818356538
-0.0360157927073746,18.1972254802455
-0.0328370868659419,18.1984319118596
-0.0298834480825352,18.1996008146415
-0.0271525973305572,18.2007317308775
-0.0246394230843361,18.2018241634535
-0.0223365906189183,18.2028776242074
-0.0202350662900851,18.203891650033
-0.0183245873261168,18.204865798497
-0.016594084840942,18.2057996294616
-0.0149985817693802,18.2067124117565
-0.0134609825792815,18.2076484495093
-0.0119860883218769,18.2086091048289
-0.0105778661062067,18.2095964090537
-0.00924010028372398,18.2106127394409
-0.00797633736679686,18.2116609071613
-0.00678983395797426,18.2127442686075
-0.00568350216506521,18.2138668745596
-0.0046598524169298,18.2150336745394
-0.00372093312754828,18.2162508041751
-0.00286826595000237,18.2175260019665
-0.00210277408706272,18.2188692365728
-0.00142469875862182,18.2202936949071
-0.000833494093950926,18.2218174302434
-0.000335193668039056,18.2234384735808
5.93336930856333e-05,18.2251023982417
0.000367097036235162,18.2268275166585
0.000603004371873664,18.2286339299535
0.000781028361001701,18.2305482468463
0.000914610431997382,18.2326076737358
0.00101726377084962,18.2348683985608
0.00110368227370741,18.2374252895346
0.00119264696416942,18.2404715890466
0.00130724854864145,18.2442048694792
0.0014471563232867,18.2481099781384
0.00163413183358234,18.2525878077287
0.00186015298511917,18.257453919077
0.00210433769388837,18.262428742357
0.00232413748919427,18.2668102889969
0.00252532608451402,18.2707985590614
0.00271883579375519,18.2746269490693
0.00291037823993583,18.2784021722493
0.00310388931466655,18.2821870136503
0.00330263252586771,18.2860262714554
0.0035096060793008,18.2899561292502
0.00372774910571076,18.2940084543347
0.00396011096205731,18.2982137200658
0.00420998372217942,18.3026026233948
0.00448106676473432,18.3072074140628
0.00477772819571619,18.312063283208
0.00510543246957715,18.3172096183652
0.00546495299830952,18.3225951184018
0.00583320841750385,18.3278241992725
0.00622002443500236,18.3330064023278
0.00662522936327512,18.3380947149829
0.00705363501825136,18.3431053670589
0.00750953238470573,18.348041067258
0.00799814901905558,18.3529093664191
0.0085250236876723,18.3577144176505
0.00909618940170632,18.3624584137462
0.00971822063639029,18.3671414394895
0.0103983619219073,18.3717621366872
0.011158679970167,18.3763997085259
0.0120154130205667,18.381063102573
0.0129887564870227,18.3857629667423
0.0141070606604356,18.3905257577559
0.0154149930305106,18.3954131326889
0.0169994702044299,18.4005826386854
0.0191185584797067,18.4065837486997
0.0209055516729025,18.4111103457554
0.0228050737302655,18.4156369428111
0.0243886476166066,18.4193764254315
0.0257041865880382,18.4226341106086
0.0268075894248608,18.425678149872
0.0276940324432566,18.4286342410487
0.0283103643275927,18.4314470206027
0.0286586484822795,18.4342351073362
0.0287147311970094,18.4371434777308
0.0283897338720079,18.4404504248399
0.0273867278148954,18.4447780818163
0.0264939577822756,18.4474422671985
0.0254381060329688,18.4501064525806
0.0243674490623322,18.4525357756747
0.0232951627458307,18.4548178102112
0.0222217095187268,18.4570178482453
0.0211498850903203,18.4591724344779
0.020083340879322,18.4613045701034
0.0190257691460862,18.4634304094087
0.0179806779640974,18.4655622297382
0.0169513200066452,18.4677099465213
0.0159406213671185,18.4698819750676
0.0149512297039647,18.4720857738704
0.0139855314031692,18.4743282038832
0.0130456631937325,18.4766157896069
0.0121335205454813,18.4789549266996
0.0112507717752561,18.4813520384803
0.0103988624155938,18.4838137366676
0.00957902878851258,18.4863469494785
0.00879230312393754,18.4889590742646
0.00801689900653461,18.4917426729698
0.00725640825852575,18.4947176982086
0.00651456827272248,18.497907463325
0.00579534521843481,18.5013388847613
0.00510290497840775,18.5050431467858
0.00444155827514739,18.5090565407408
0.00381566670590075,18.513421610895
0.00322948324786968,18.5181889899455
0.00268691030290577,18.5234206983472
0.0021911976925172,18.5291961979081
0.0017447508492041,18.5356216762578
0.00135966070988164,18.5426259445026
0.00103746152062229,18.5501887088139
0.00077949587444481,18.5584281526915
0.00057935017439373,18.5676526303101
0.000445958145127498,18.5763095786296
0.000335122687892249,18.5862880026782
0.000257801318176675,18.5962880026782
0.000204617989398034,18.6062880026782
0.000168619837181824,18.6162880026782
0.000144702029900724,18.6262880026782
0.000129206431157147,18.6362880026782
0.000119594465290962,18.6462880026782
0.000114141228400295,18.6562880026782
0.000111683100476922,18.6662880026782
0.000111435243107656,18.6762880026782
0.000112870102431813,18.6862880026782
0.000115638770659941,18.6962880026782
0.000119519414550819,18.7062880026782
0.000124382583991872,18.7162880026782
0.000130167654546117,18.7262880026782
0.000136867173206613,18.7362880026782
0.000144517110582822,18.7462880026782
0.000153191680599586,18.7562880026782
0.000163001853646041,18.7662880026782
0.000174097096594523,18.7762880026782
0.000186670260249822,18.7862880026782
0.000200965928506953,18.7962880026782
0.000217292991746093,18.8062880026782
0.000236042787724854,18.8162880026782
0.000257714987251925,18.8262880026782
0.00028295468445785,18.8362880026782
0.000312606217177356,18.8462880026782
0.000347792694169158,18.8562880026782
0.000390036171462345,18.8662880026782
0.000441444099363009,18.8762880026782
0.000501044476125029,18.8857174739763
0.000568811691406593,18.8944246409863
0.00064575691748631,18.9024582642475
0.000733108267539517,18.9098709842326
0.0008322744134044,18.9167118878158
0.000944854829291465,18.9230265190369
0.00107266159949014,18.9288571511285
0.00121774677348779,18.9342430313661
0.00138243514457707,18.9392205911306
0.00156935995246959,18.9438236534734
0.00178150755249391,18.948083637425
0.00202226783794973,18.952029753666
0.00229549752385121,18.9556891819211
0.00260559577078628,18.9590872508718
0.00295760086766427,18.9622476286553
0.00335731501721465,18.9651925190885
0.0038114668415092,18.9679428708186
0.00432793471034678,18.9705186236378
0.00491606112795471,18.9729390101527
0.00558711332070944,18.9752229501158
0.0063358166565503,18.9773401337238
0.00716343691812645,18.9792996275117
0.00808217574234849,18.9811358340362
0.00911054834143799,18.9828839028906
0.0102791537269042,18.9845847879269
0.0116477866032183,18.9862999206557
0.013459348605086,18.9882533398539
0.0152371962976319,18.9899375507
0.0171846120877027,18.9916217615461
0.0188867743775032,18.993025851722
0.0203612118352939,18.9942406188879
0.0216798307067023,18.9953711434231
0.0228578881086059,18.9964703779195
0.0238859202551921,18.9975770349786
0.0247374397935602,18.9987332918764
0.0253614355117999,19.0000048059954
0.0256406098714231,19.001549506909
0.0253089566095927,19.0033754296978
0.0243620412562865,19.0052013524865
0.0232534976187107,19.0066773106029
0.0220107233036577,19.0080726168315
0.0206273725204138,19.0094878398073
0.0191114779424469,19.0109677840308
0.0174703097508031,19.0125501062865
0.0160710273504581,19.0139323926159
0.0147550038717898,19.0153146789453
0.0124655761671086,19.0179726326983
0.0105587124603795,19.0205145080359
0.00898419450113386,19.0229272638758
0.00767163990901323,19.0252364877153
0.00656263849938034,19.0274733447437
0.00560814018302279,19.0296795462897
0.00476292578384231,19.0319230264792
0.00397103850438449,19.0343573215665
0.00320099224938731,19.0371489601569
0.00277334290311582,19.0389440247786
0.00239176990010249,19.0407390894003
0.00207974026862099,19.04237598989
0.00181045074997338,19.0439393609144
0.00156276075902556,19.045527764243
0.00132115424256885,19.0472470149697
0.00106545045143294,19.0492942591958
0.000723796095130451,19.0525148050481
0.000420974196375221,19.05603612352
0.000206103995928634,19.0591123850504
2.65831342635258e-05,19.0622491328942
-0.000143695332476805,19.0659923140647
-0.000315036991612165,19.071238112159
-0.000416522171658813,19.0765236093044
-0.000444985703242024,19.0812423828814
-0.000410723032995945,19.0855063929577
-0.000316564507443158,19.0893469335751
-0.000162278360013207,19.0928116321973
5.42403163330494e-05,19.0959475755643
0.000336913159552658,19.0988059460453
0.000692145062119994,19.1014405786157
0.00112988431192133,19.1039060847464
0.00166680098182063,19.1062642267638
0.00233219553202011,19.1085909769459
0.00317945357066618,19.1109880373319
0.00434341195376993,19.1136765330266
0.00587535229670555,19.1165957079627
0.00732080268292066,19.1189429809926
0.00898487629449943,19.1212902540225
0.0105660374235689,19.1232293742829
0.0121682954038058,19.1249462132334
0.0138614809125303,19.1265285464574
0.0157103607911256,19.1280293708996
0.0177405893933677,19.1294548630483
0.0200034501075081,19.1308248746652
0.0225274637160056,19.1321394535684
0.0253583570443534,19.1334062116083
0.0285292697071506,19.1346245423863
0.0320910277583892,19.1357995893382
0.0360932921899375,19.1369335802944
0.0405891091484769,19.1380281678752
0.0456491723106431,19.139087452896
0.0513517049333108,19.1401145455718
0.0577889630155137,19.1411127090572
0.0650712250654614,19.1420854328755
0.0733295412061201,19.1430362265297
0.0827283752126304,19.1439694073312
0.093469499096444,19.1448894968983
0.105807197730015,19.1458016408241
0.120068864691926,19.1467119092994
0.136687219289236,19.1476277614885
0.1562543567515,19.1485588570787
0.179474789322767,19.1495130366663
0.206347230223586,19.1504696082596
0.2375530285982,19.1514379299112
0.274002896614735,19.1524316863063
0.317078129912561,19.1534751092073
0.355119853309159,19.1543188246416
0.395177345943309,19.155162540076
0.430365908598746,19.1558933425472
0.460924333538197,19.1565456213364
0.487700943442974,19.1571591848083
0.510848673944219,19.157760246497
0.530037459610261,19.1583716766422
0.544400859679979,19.1590212191984
0.552019112449183,19.1597564026254
0.549318278872069,19.1605387149877
0.534688469995324,19.1613492995992
0.506615067995752,19.1622061926997
0.463039900928595,19.1631229218092
0.403407556168609,19.1640823123901
0.355553500705078,19.1647323612031
0.302622267899426,19.1653824100161
0.256045871603847,19.1659203466753
0.216614940581513,19.1663650569901
0.182246344912533,19.1667537582556
0.151608053086813,19.1671082337136
0.123920887526649,19.1674414950923
0.0986648116645872,19.167762724106
0.075427727729083,19.1680798990807
0.0537941267319964,19.1684021588818
0.033140166884259,19.1687449804559
0.0115501109298047,19.16915856412
0.0005150237073691,19.1694020716852
-0.00694808808918364,19.1695839257934
-0.0137745966109784,19.1697657799015
-0.0197218103807123,19.1699392887457
-0.0258261602187387,19.1701357898704
-0.0317973863569538,19.1703511854244
-0.0374416410491438,19.1705827162568
-0.0426496930775416,19.1708292257549
-0.0473631089580416,19.1710906070166
-0.0515539286882361,19.1713674817625
-0.0552128054651361,19.1716610397325
-0.0583367696373069,19.1719729748519
-0.0609843770069653,19.1723142396122
-0.063022222613322,19.1726676225405
-0.0645618941202358,19.1730473577289
-0.065618813225368,19.1734577357198
-0.0662058346639677,19.1739039342047
-0.0663324835691297,19.1743924842801
-0.0660029651324037,19.1749317891182
-0.0652119471642737,19.1755338562518
-0.063939463977245,19.176215018293
-0.0621434348697607,19.176998777498
-0.0597377737836464,19.177923818969
-0.0565211596543085,19.1790688610664
-0.0523577193571808,19.1804932977625
-0.0482989862252614,19.1818678851708
-0.0444055088929921,19.1832009498212
-0.0407091536251717,19.1844954743725
-0.0372266026120664,19.1857526091581
-0.0339661985110952,19.1869725802015
-0.0309308489448937,19.1881551639461
-0.0281194823220763,19.1892999376597
-0.0255279385715899,19.1904064101842
-0.0231496261672857,19.1914740865238
-0.0209760715434129,19.1925024938443
-0.0189974070399594,19.1934911835319
-0.0172028105618577,19.194439717343
-0.0155808990373411,19.1953476420647
-0.0140212415980082,19.1962750195565
-0.0125227372413777,19.1972263685407
-0.0110894587559798,19.198203580978
-0.00972526520648521,19.1992088967716
-0.00843379678793976,19.2002449556083
-0.00721842330708568,19.2013148976054
-0.00608219050985389,19.2024224968876
-0.00502776389455134,19.2035723430153
-0.00405736964159851,19.2047700935404
-0.00317273170408631,19.2060228359065
-0.00237500308947877,19.2073396242983
-0.00166468749942736,19.2087323102402
-0.00104154380636995,19.2102168968106
-0.000504457850544011,19.2118159002144
-7.41127031861745e-05,19.2134618736011
0.000263621935545031,19.2151625236299
0.000524168214442602,19.2169364931649
0.000721802507389928,19.2188076730336
0.000870103864698542,19.2208087192723
0.000982468976411514,19.2229874396539
0.00107296877069151,19.2254208817456
0.0011582914912109,19.2282535496878
0.00126479760170232,19.2318503810629
0.00139282658188107,19.2356414146554
0.00156074138331794,19.2398733319778
0.00178061991606066,19.2447575972387
0.00201858857601582,19.249673507125
0.00225012492040868,19.2543131447715
0.00245616445880676,19.2584020102854
0.0026515606152974,19.2622705057558
0.00284328990213461,19.2660557871581
0.00303571889687149,19.2698315233323
0.00323228100084017,19.273647277211
0.00343603963728443,19.2775416345007
0.0036499335867792,19.2815475756794
0.00387695796317855,19.2856958334013
0.00412030391853424,19.2900168685614
0.00438350501012378,19.2945422348854
0.00467065646278129,19.299305934193
0.00498677625571243,19.3043457639894
0.00533840143891962,19.3097044701944
0.00570222672009937,19.3149706157658
0.00608276663675652,19.320177457696
0.0064810004978488,19.3252964844257
0.00690084253322075,19.3303342619659
0.00734654637917398,19.3352952286328
0.00782310571568588,19.3401865339703
0.00833593130079822,19.3450133529655
0.00889088010498898,19.3497786095167
0.00949432465710773,19.354483068371
0.0101532583020359,19.3591257857312
0.0108830059420536,19.363750514094
0.0117042387880315,19.3684051581808
0.0126341332043012,19.3730901544975
0.013697864278564,19.3778264490916
0.0149328110554253,19.3826594884678
0.016405686014301,19.3877007643768
0.0182800429500697,19.3932831258334
0.020722134456231,19.3996349891459
0.0222863799669389,19.40338986941
0.023882264701071,19.4071447496741
0.0252734434531807,19.4105125080564
0.0264478576332143,19.4136092583267
0.0274162467525015,19.4165998135663
0.0281253958783239,19.4194485822918
0.0285681546372326,19.4222309055368
0.0287314058448504,19.4250768536359
0.0285580053472465,19.4281922026631
0.0277999263139658,19.4322601129407
0.0269502182703563,19.4351207539832
0.0258900958792763,19.4379813950257
0.0248161000925305,19.4405136577622
0.0237441947608677,19.4428479203514
0.0226709678546976,19.4450767689602
0.0215980347821287,19.4472470786259
0.0205288237825961,19.4493863896282
0.0194670583537515,19.4515132296989
0.0184163269529533,19.4536412611444
0.0173800122209078,19.455781256703
0.0163611680570445,19.4579421806576
0.0153625551131811,19.4601318414788
0.0143866685270273,19.4623573123142
0.0134357472733151,19.4646252334453
0.0125117865910939,19.466942032677
0.01161654998512,19.4693140997789
0.0107515732710184,19.4717479551181
0.00991818010956726,19.4742503752761
0.00911748668254846,19.4768285446475
0.00833708477646133,19.4795383183712
0.00756997485052538,19.4824312332826
0.00681993619885265,19.4855288003029
0.00609084229611382,19.4888563653696
0.00538678010064969,19.4924432531947
0.00471200755312256,19.4963235244903
0.00407088121844092,19.500536949571
0.00346772523670455,19.5051304943997
0.0029066172758804,19.5101609447485
0.00239111607409194,19.5156995471868
0.00192398620502249,19.5218400665001
0.00151082733974355,19.5286414688564
0.00116344337692903,19.5359614335464
0.000927266603399617,19.5422938567175
0.000749258117053294,19.5486262798887
0.000565761512605686,19.5574561674241
0.000425629594419063,19.5668872802301
0.000320602953991955,19.5768872802301
0.000247698056653639,19.5868872802301
0.000197724454448065,19.5968872802301
0.000164011063717044,19.6068872802302
0.000141688265400942,19.6168872802302
0.000127299668318521,19.6268872802302
0.000118462710366697,19.6368872802302
0.000113562212533548,19.6468872802302
0.000111507876027927,19.6568872802302
0.000111563600450971,19.6668872802302
0.000113235064690353,19.6768872802302
0.00011619678486888,19.6868872802302
0.000120243883418338,19.6968872802302
0.000125259453205206,19.7068872802302
0.000131192410715474,19.7168872802302
0.00013804289568048,19.7268872802302
0.000145853341024957,19.7368872802302
0.000154703944318614,19.7468872802302
0.000164711729252217,19.7568872802302
0.000176032793271333,19.7668872802302
0.000188867725244316,19.7768872802302
0.000203470575640523,19.7868872802302
0.000220162224845248,19.7968872802302
0.000239349607178959,19.8068872802302
0.000261553139060361,19.8168872802302
0.00028744608172626,19.8268872802302
0.000317911809008173,19.8368872802302
0.000354128714147247,19.8468872802302
0.000397699031189511,19.8568872802302
0.000450849626557108,19.8668872802302
0.000511771877886904,19.8761958406072
0.000580997517878709,19.8847867696103
0.000659591934483336,19.8927130841606
0.000748814615346584,19.900026951444
0.000850105421219207,19.9067768504142
0.000965097820193573,19.9130077602433
0.00109564198378462,19.9187614326237
0.00124383311752591,19.9240766301781
0.00141204493288224,19.9289893341775
0.00160296631468175,19.9335329518764
0.0018196472638595,19.937738520263
0.00206555109024003,19.9416348986339
0.00234461921363452,19.9452489446907
0.00266135041810516,19.9486056961329
0.00302090096049902,19.9517285627752
0.00342921519672946,19.954639523417
0.00389319649155206,19.9573593397535
0.00442094275114505,19.9599078106908
0.00502208088173232,19.9623040856389
0.00570826036547338,19.9645670813303
0.0064696624735757,19.9666553641718
0.00731166458643149,19.9685916447905
0.00824737851656018,19.970410452471
0.00929678851806687,19.9721473987165
0.0104936707591477,19.9738454169379
0.0119173565616786,19.9755848353704
0.0138551204502042,19.9776191324137
0.0155202320617114,19.9791651390968
0.0173220843000931,19.9807111457799
0.0189891346055996,19.9820841665663
0.0204511396753636,19.9832903253106
0.0217605092261019,19.9844174727812
0.0229293007970018,19.9855160525902
0.0239468721745113,19.9866245313743
0.0247855364875794,19.987785847921
0.025391949328157,19.9890684587948
0.0256401592825417,19.9906433695024
0.0252727288549598,19.9924467720402
0.0243123853453378,19.994250174578
0.0231979376420959,19.9957181134849
0.0219485011114256,19.9971129169481
0.0205587300986543,19.9985303224902
0.019051547051708,20
