ecg,time
0.00325807144479799,15.001893592588
0.00366220039794447,15.0043235304307
0.00416183915815478,15.0065818750869
0.00476665914586967,15.0087205278759
0.00549832121086131,15.0107988891287
0.00639964694611973,15.0128943267332
0.00756087205091847,15.0151309337532
0.00918722361027053,15.017736378106
0.0112242993728311,15.0204721828228
0.0128354823719863,15.0223488809646
0.0146551618096634,15.0242255791065
0.0164999983529058,15.0258999793418
0.0184154120175767,15.0274265629053
0.0204663552490782,15.0288561886103
0.0227157734085916,15.0302206257152
0.0251985949635766,15.0315251421783
0.0279640683035466,15.0327794993566
0.0310534355537281,15.0339862223096
0.0345162439390585,15.0351493000656
0.038401453211007,15.036270538039
0.042768774099627,15.0373532187932
0.0476821616931739,15.0383996617559
0.0532187357271922,15.0394130542298
0.0594661336255165,15.0403962601568
0.0665293025279882,15.0413525568759
0.0745325042515343,15.0422852777181
0.0836249172070316,15.0431979355367
0.0939887859468495,15.0440943871097
0.105848192906758,15.0449788108246
0.11948304228002,15.0458558788601
0.135249225456405,15.0467309793266
0.153608296856408,15.0476105161456
0.175177158956144,15.0485025321632
0.200822642504273,15.0494180902953
0.230473029713187,15.0503344046326
0.264849789526065,15.0512598022006
0.304933228709356,15.0522075749318
0.352305037595302,15.053204274265
0.390092321167388,15.0539381258037
0.429388758664352,15.0546719773424
0.464247858183017,15.0553218167944
0.494785005644797,15.0559142346842
0.521633928774781,15.056481761875
0.544804171021237,15.0570483787192
0.563802890075332,15.0576385617162
0.577431312373382,15.058288562005
0.582635227598472,15.0590318561507
0.576163437682471,15.0597963085833
0.556823096599505,15.060603877476
0.523217930180316,15.0614626212467
0.476712536093548,15.0623303580861
0.414944128274415,15.0632465866136
0.364016052003291,15.063895676194
0.308097173941883,15.0645447657745
0.25949590334323,15.0650782916669
0.218731676626491,15.0655171422275
0.18338799415697,15.065899983631
0.151977768830637,15.0662490077188
0.123648472567585,15.0665773110521
0.0978368055934707,15.066894126827
0.0740965446637384,15.0672075762762
0.0519705434771274,15.0675272405827
0.0307383051839706,15.0678702698661
0.00785918448008479,15.0683004715422
-0.00167001347523987,15.0685069538596
-0.0103009462282781,15.068713436177
-0.016955498806404,15.0688887437712
-0.0231089234640946,15.0690666405881
-0.0293142716298735,15.0692654984108
-0.0353143989831502,15.0694818514549
-0.0409447690037402,15.0697135978943
-0.0461134149669701,15.0699599846744
-0.0507721518216188,15.0702211617293
-0.0548993503820871,15.070497931324
-0.0584897453992785,15.0707916280517
-0.0615481832124326,15.0711040798605
-0.064080989294362,15.0714376254532
-0.0661507207063687,15.0718076723206
-0.067627044336497,15.0721902834349
-0.0686217306753548,15.0726045196163
-0.0691484345434561,15.0730560979532
-0.069216099752384,15.0735520648476
-0.0688275526136907,15.0741015766699
-0.0679741675083645,15.0747181687733
-0.066630918398114,15.0754199537565
-0.0647453139555378,15.076234333209
-0.0622059147370391,15.0772091603576
-0.0587206874272019,15.0784554156304
-0.0546253078836908,15.0798705131581
-0.0506351168999619,15.0812409439291
-0.0468061652226928,15.0825719085834
-0.0431673806302036,15.0838655447634
-0.0397346576907767,15.08512253847
-0.0365164354041329,15.0863428487605
-0.0335161016314748,15.08752609256
-0.0307332294048312,15.0886717480296
-0.0281643611972339,15.0897792601644
-0.0258036093485432,15.0908480915624
-0.0236431747876554,15.0918777406268
-0.0216738182334331,15.0928677391198
-0.0198852916908791,15.0938176356639
-0.0182667290804878,15.0947269688363
-0.0167122984483305,15.0956533579414
-0.015216558844963,15.0966036814959
-0.0137835867525208,15.0975797985356
-0.0124172082582458,15.0985839344019
-0.011121027476947,15.0996187109719
-0.00989837196916591,15.1006872464054
-0.00875223548105639,15.1017932872154
-0.0076852170252212,15.1029413875199
-0.00669945541460803,15.1041371583304
-0.00579655744215975,15.1053876243652
-0.0049775162657998,15.1067017526117
-0.00424261352660004,15.1080912686912
-0.00359129261379666,15.1095719849595
-0.00302197696147599,15.111166109922
-0.00255576506206153,15.1128102729264
-0.00217996824079332,15.1145083781669
-0.00187887246741921,15.1162790083692
-0.001637816225589,15.1181457886317
-0.0014426436701613,15.1201409421721
-0.0012790738203271,15.1223114994619
-0.00113158568831249,15.124732917291
-0.000980788810205149,15.1275456448546
-0.000793787499060155,15.1310983527914
-0.000581527092890661,15.1348813638474
-0.000330232910519709,15.1389957025542
-4.7519226329775e-05,15.143338056827
0.000260917509984599,15.1479321746743
0.000588425523941743,15.1528032684411
0.000895046250143304,15.1574391075585
0.00117738580441043,15.1618088695429
0.00145132830392301,15.1661508019784
0.00173620443336878,15.1707644738335
0.00204159572156547,15.175797000485
0.00233737919844064,15.1807179033501
0.00264128136172219,15.1857880319627
0.00289825218232234,15.1900496020695
0.00313852727228431,15.1939989141276
0.00337431852194784,15.1978250825577
0.00361201151955671,15.2016183173941
0.00385611783021208,15.2054349504451
0.00411050775702329,15.2093168254121
0.00437892455776358,15.2132986715849
0.00466527234271424,15.2174115720989
0.00497388567816126,15.2216856633879
0.00530976419276553,15.2261515287137
0.00567889353699861,15.2308414667526
0.00608874398957531,15.235790725039
0.00653452262471406,15.2408760089547
0.00699953281981146,15.2458608157613
0.0074922997417268,15.2508018531474
0.00801442570338409,15.2556698942593
0.00857143157867878,15.2604688451897
0.00916936798143612,15.2651992286488
0.00981545328643843,15.2698638076609
0.0105199413024449,15.274477988473
0.0113076283140393,15.2791275061974
0.0121933231041575,15.2838053461817
0.013199781684484,15.2885296954494
0.0143586537812418,15.2933340779036
0.0157219353355663,15.2982974841907
0.0173988681824567,15.3036311812214
0.0197900931260949,15.3102254585903
0.0214316018836719,15.3143229419734
0.0231394744464591,15.3184204253566
0.0246172136935048,15.3219972126279
0.0258590128785301,15.3252025993662
0.0268940238364716,15.3282432173526
0.0276948130764247,15.3311757404547
0.0282284543067217,15.333997442962
0.0284907564725796,15.3368308925734
0.0284455223977674,15.3398420299375
0.0279597344371947,15.3434209451159
0.0271569934168836,15.3466405134057
0.0260657354089944,15.3498600816955
0.0249774386525184,15.3525595676898
0.0239027714233017,15.3549807323111
0.022828785265986,15.3572666304158
0.0217547296343887,15.3594793479515
0.0206835693748594,15.3616522861338
0.0196189933326861,15.3638068909234
0.0185646688876303,15.3659585028715
0.0175240431085489,15.3681189421796
0.0165002899178455,15.3702978591793
0.015496306759328,15.3725035119367
0.0145147177653284,15.3747432711627
0.0135578892066314,15.3770239466136
0.0126279371210721,15.3793520381133
0.0117267367835959,15.3817339261342
0.0108559350172645,15.3841760196221
0.0100169546166111,15.3866849045938
0.00921100467419281,15.3892674686625
0.00843563046264762,15.3919434365227
0.00767279328908389,15.3947973754108
0.006926325290023,15.3978492753962
0.00619998855526455,15.4011232573769
0.00549775230885316,15.4046471471669
0.00482375383869174,15.4084531621734
0.00418223468881676,15.4125788237345
0.00357752044910848,15.417068279203
0.00301363435763842,15.4219744950677
0.00249410995713422,15.4273632412749
0.00202175850146771,15.4333199377639
0.00159858571940647,15.4399591079129
0.00123742345191182,15.4471742141638
0.000936723370436354,15.4549891234412
0.000689880774001003,15.4635349800557
0.000493076195274687,15.4729852890695
0.000368506418320815,15.4818281357315
0.000269660978802594,15.4918281357315
0.000200959591761192,15.5018281357315
0.000153088921431361,15.5118281357315
0.000120074434743734,15.5218281357315
9.76621572825499e-05,15.5318281357315
8.27221286763508e-05,15.5418281357315
7.29945104302315e-05,15.5518281357315
6.68982982917946e-05,15.5618281357315
6.33515914497895e-05,15.5718281357315
6.16195140935645e-05,15.5818281357315
6.12017659296313e-05,15.5918281357315
6.17566325561168e-05,15.6018281357315
6.30513912004762e-05,15.6118281357315
6.49296059577827e-05,15.6218281357315
6.72889064603549e-05,15.6318281357315
7.00655471882062e-05,15.6418281357315
7.32236417378449e-05,15.6518281357315
7.67477528179858e-05,15.6618281357315
8.06379129989051e-05,15.6718281357315
8.49063991046635e-05,15.6818281357315
8.9575774583805e-05,15.6918281357315
9.4677867742167e-05,15.7018281357315
0.000100253471782571,15.7118281357315
0.00010635264036461,15.7218281357315
0.000113035518587457,15.7318281357315
0.000120373702978301,15.7418281357315
0.000128452172984412,15.7518281357315
0.000137371887198506,15.7618281357315
0.000147253196552259,15.7718281357315
0.000158240301636423,15.7818281357315
0.000170507082512018,15.7918281357315
0.000184264772045392,15.8018281357315
0.000199772151217154,15.8118281357315
0.000217349253938678,15.8218281357315
0.00023739603981183,15.8318281357315
0.000260418226529693,15.8418281357315
0.000287063641678518,15.8518281357315
0.000318174360493232,15.8618281357315
0.000354863093420879,15.8718281357315
0.00039862781009897,15.8818281357315
0.000451528447304292,15.8918281357315
0.000512306613198417,15.9012382459667
0.000580968677526595,15.9099344485855
0.000658443027864313,15.9179649848907
0.000745856482818762,15.925381040613
0.000844500890952982,15.9322303610938
0.000955841645653362,15.9385572934379
0.00108153786959793,15.9444030695031
0.00122346761874061,15.9498060408222
0.0013837591950479,15.9548018210609
0.00156482066182191,15.9594234701279
0.00176938337464669,15.9637017064001
0.0020005453490757,15.9676651236667
0.0022618289823472,15.971340323903
0.00255724267077502,15.9747520615776
0.00289136346074085,15.9779234369791
0.00326944370111986,15.9808760816429
0.00369753670473633,15.9836303056373
0.00418267313531677,15.9862053030336
0.00473310213817689,15.9886193979183
0.00535862123413246,15.9908903043061
0.00607035668613038,15.9930335416328
0.00685393872636306,15.9950013152555
0.00771774963397442,15.9968253911665
0.0086744154897576,15.9985372787936
0.00974262515783613,16.0001685967
0.0109529461366944,16.0017560707608
0.0123870491037644,16.0033782726152
0.014269745537372,16.0052120498245
0.0167078114571973,16.0072666144593
0.0183729761794065,16.0085455422709
0.0201049832761633,16.0098244700825
0.0216785898752875,16.0109830953398
0.0230938618257644,16.0120642396389
0.0243638993110975,16.0131158627309
0.0254800245622992,16.0141754788967
0.0264159471024636,16.0152841620133
0.0271203993653363,16.0165061883665
0.0274750297152678,16.0179976376821
0.0271197007326512,16.0199701501207
0.0262338977894394,16.0215828734556
0.0251376857622868,16.0229857494407
0.0238771606150779,16.0243424411166
0.0224602166862336,16.0257288556572
0.0208972206724569,16.0271869814037
0.0191954012209502,16.0287553241946
0.0185729312938492,16.029333085706
0.0179597812887391,16.0299108472173
0.0168633183304673,16.0309835956484
0.0147429382631329,16.0332341937698
0.0127864754632331,16.0355785119791
0.0110113582305733,16.0380133941137
0.00937342322957293,16.0406267255157
0.00804651394621489,16.0431127642293
0.00691381789234097,16.0456131259922
0.00593893231144699,16.0481727949636
0.00510367142621186,16.050815771237
0.00439539105393564,16.0535650189428
0.00380575831554443,16.0564446961982
0.00333068203965809,16.0594815709523
0.00297114176028365,16.0627064969088
0.00273538895123248,16.0661562133021
0.00264375071045235,16.0698757596113
0.00270652138425502,16.073191008408
0.00289067090824242,16.0761797631131
0.00317837435024687,16.0788891946537
0.00356093765702512,16.0813649014914
0.00403812154151513,16.0836582304118
0.0046174013661102,16.0858195640177
0.00531709510274448,16.0879057492449
0.00617464407021807,16.0899904391902
0.00726717686997459,16.092185309836
0.00876097307889172,16.0946808489229
0.0107072649839783,16.097403438374
0.0123359096719261,16.099372905254
0.0141813293190438,16.101342372134
0.0160248096981598,16.1030716334013
0.0179179230281357,16.1046316902811
0.0199281895411495,16.1060821770893
0.0221225875839489,16.1074617957535
0.024542076985141,16.1087808464658
0.0272294332336855,16.1100466338038
0.0302322714138896,16.1112653536646
0.0335942601916474,16.1124390236342
0.0373664321615354,16.1135706800061
0.0416045502000124,16.1146628960601
0.0463716956961889,16.1157183065997
0.0517415677475816,16.116739909343
0.0577981860223201,16.1177305108783
0.0646423023761067,16.1186933886752
0.0723922906958609,16.1196317848045
0.0811907744570264,16.1205492135524
0.0912107179379383,16.121449430412
0.10266415805989,16.1223364986461
0.11581540262177,16.1232149686693
0.130998558322392,16.124090017281
0.148644428114595,16.1249677411888
0.169323882384221,16.1258556828287
0.193826740077454,16.1267639321589
0.222378226496516,16.1276793639729
0.255451089341277,16.1286014132691
0.293940860396593,16.1295416452414
0.339209552040062,16.1305216634644
0.378342673719654,16.1312966803733
0.4195245968382,16.1320716972821
0.45579007417348,16.1327454173906
0.487348575772375,16.1333489993782
0.515117066540543,16.1339204344858
0.539252983675915,16.1344851303938
0.55939434296284,16.1350665992601
0.574571427569837,16.1356964478994
0.582425581225747,16.1364381448168
0.578787850337967,16.1371956144406
0.562626951812677,16.1379911348397
0.532183994324494,16.1388451492797
0.489008733898166,16.1397040109528
0.430710368031809,16.1406118733381
0.377900456636041,16.1413080438364
0.319026107181453,16.1420042143348
0.268223185095164,16.1425663194329
0.226109063914418,16.143020380184
0.189860653972951,16.1434119170545
0.157771668507469,16.1437662597993
0.128898264902501,16.1440977664117
0.102637959641418,16.1444161617928
0.0785316639836667,16.1447296062014
0.0561362968091891,16.1450471261047
0.0348213216755971,16.1453834346552
0.0127914429403816,16.1457834119038
0.000261598518733173,16.1460460673316
-0.00737296672896767,16.1462236199279
-0.0143632587216428,16.1464011725241
-0.0204588005826564,16.1465705537605
-0.02667630505869,16.1467608737932
-0.0327897463872258,16.1469701119602
-0.0385926636366021,16.1471954434214
-0.0439664151092484,16.1474356053878
-0.0488467921848778,16.1476904029917
-0.0532023901152223,16.147960380715
-0.0570218985921914,16.1482466545165
-0.0603064399889883,16.1485508424614
-0.0630645193030192,16.1488750599062
-0.0654370884151828,16.149247804952
-0.0671068979081175,16.1496193666372
-0.0682884010556392,16.1500205443493
-0.068997246587622,16.1504567361419
-0.0692441385754722,16.1509343431031
-0.0690346136124536,16.1514616011454
-0.0683653540514256,16.1520500585375
-0.0672184178601785,16.1527158488677
-0.065554253354298,16.1534819235979
-0.0632908566367018,16.1543858982769
-0.0602368216241414,16.1555035427141
-0.0561197625367302,16.1569400469147
-0.052082010903631,16.1583259081834
-0.0481894321732846,16.1596709353869
-0.044478470705147,16.1609780907366
-0.0409688336440006,16.1622484759234
-0.0376712972148398,16.1634822542205
-0.0345909115055396,16.1646791347879
-0.0317285379511129,16.1658386290278
-0.0290817519382859,16.1669601850434
-0.0266454921453761,16.1680432549081
-0.0244126027326907,16.1690873228989
-0.0223743198340087,16.1700919095705
-0.0205207173988814,16.171056559818
-0.0188411130931875,16.1719808194708
-0.0172668218952347,16.1728987989785
-0.0157493882692568,16.17384029455
-0.0142932994093809,16.1748068610707
-0.0129024462331187,16.1758006019916
-0.0115805192513579,16.1768239858066
-0.0103309522593501,16.1778799382437
-0.00915686630780585,16.1789719611642
-0.00806101017012729,16.1801042926812
-0.00704569666818449,16.1812821277891
-0.00611273343543076,16.1825119307155
-0.00526334538110407,16.1838018915783
-0.00449808371711829,16.1851626204484
-0.00381671170091876,16.1866082539493
-0.00321804721843641,16.1881583298953
-0.00271435813155469,16.1897876178913
-0.00230748683463225,16.1914640007526
-0.00198087526129553,16.1932057693703
-0.00171956867642986,16.1950342820383
-0.00150928590519756,16.1969781176732
-0.001335885086286,16.1990778706978
-0.00118448313915125,16.2013961942547
-0.00103760820027329,16.2040425259034
-0.000869605832190768,16.2072546827504
-0.000666125747742339,16.2109926630198
-0.00042914487281715,16.2149948649543
-0.000157811183270775,16.2192483124726
0.000141703853659703,16.2237444136954
0.000462711969675499,16.2285076479356
0.00078235476353745,16.2333041634514
0.00107220948819631,16.2377492280342
0.00134738629818397,16.2420722952336
0.00162523410923,16.2465369674209
0.00193436830182877,16.2516039411789
0.00223189947196145,16.2565403884209
0.00253063783720713,16.2615233418415
0.00279985205322435,16.2660008402644
0.00304458674407598,16.2700401664027
0.00328119262988753,16.2739011228861
0.00351752470972704,16.2776994078039
0.00375861130135167,16.2815012295461
0.00400849012699002,16.2853528967644
0.0042709141190117,16.289291432695
0.0045496873575832,16.2933489476863
0.00484894832149313,16.2975557676257
0.00517340204644093,16.3019421468399
0.00552859748970396,16.3065395597161
0.00592134151664951,16.3113819343827
0.00636036204212742,16.3165067818582
0.00681508068325936,16.321502285728
0.00729754773970043,16.3264708701508
0.00780751295380246,16.3313654308651
0.00835036372136889,16.336191902566
0.00893156430497309,16.3409484813218
0.00955801303066116,16.3456383621081
0.0102374557502523,16.3502637323232
0.0109912492590431,16.3549004956957
0.0118365423908694,16.35956570207
0.0127930170559319,16.3642693782472
0.0138880427944808,16.3690366994027
0.0151635886869409,16.3739239258571
0.0166982999088164,16.3790713820994
0.0187082797546909,16.3849389290698
0.0205530570186041,16.3897403555771
0.0225283913780971,16.3945417820845
0.0241312599072267,16.3983854912393
0.0254515650256512,16.401696134699
0.0265577750320669,16.4047762217627
0.0274527287116085,16.407776182739
0.0280769169946982,16.4106233231005
0.0284334995925915,16.4134376473124
0.0285002610559728,16.416363297857
0.0281941579806077,16.4196671248271
0.0272125423461191,16.4240348938683
0.0263218648911883,16.4267486655191
0.0252635309611084,16.4294624371699
0.0241907192602782,16.4319301510831
0.0231171768754565,16.4342436836137
0.022042938861425,16.436471927974
0.0209706558684571,16.4386530288713
0.0199039509783739,16.4408108072423
0.018846529976511,16.4429619027409
0.0178019062926321,16.4451189152071
0.0167733303652296,16.4472919798028
0.0157637722293417,16.4494896727199
0.0147759289989924,16.4517195630504
0.013812235923442,16.4539885819803
0.0128748736960307,16.4563032955931
0.0119657831466686,16.4586700953536
0.0110866709962588,16.4610953698007
0.0102390189430329,16.463585645642
0.00942409286544084,16.4661477164684
0.00864294973130836,16.4687887757542
0.00787635695701044,16.4715930815939
0.00712511867654318,16.4745895764268
0.00639297856089413,16.4778013430771
0.00568385541066562,16.4812551418958
0.00500184624902202,16.4849819360218
0.00435116735639223,16.4890177197733
0.00373614161662001,16.4934046960244
0.0031609029120246,16.4981931931104
0.00262914531489201,16.5034449213813
0.00214388595041717,16.509239245044
0.00170733899107345,16.5156818627085
0.00132869597747458,16.5227527099017
0.00101233249986022,16.5303943908426
0.000751574944498144,16.5387277496126
0.000540148542365484,16.5479137683727
0.00040642148025572,16.556358459266
0.000301772664384202,16.5657436823421
0.000223371863285626,16.5757436823421
0.000168676335713652,16.5857436823421
0.000130770641271157,16.5957436823421
0.000104879633224697,16.6057436823421
8.74998462049272e-05,16.6157436823421
7.60743000572585e-05,16.6257436823421
6.87937044441329e-05,16.6357436823421
6.44121768275308e-05,16.6457436823421
6.20826291718008e-05,16.6557436823421
6.12292643665161e-05,16.6657436823421
6.1459121397524e-05,16.6757436823421
6.25040064800968e-05,16.6857436823421
6.41825151281719e-05,16.6957436823421
6.63745230260204e-05,16.7057436823421
6.90035683882964e-05,16.7157436823421
7.20245537718813e-05,16.7257436823421
7.54152271381775e-05,16.7357436823421
7.91703998219942e-05,16.7457436823421
8.32981426410246e-05,16.7557436823421
8.78174087570028e-05,16.7657436823421
9.27566988855047e-05,16.7757436823421
9.81535152824892e-05,16.7857436823421
0.000104054448997844,16.7957436823421
0.000110515817931765,16.8057436823421
0.000117604830525841,16.8157436823421
0.000125401299776795,16.8257436823421
0.000133999981599744,16.8357436823421
0.00014351366675028,16.8457436823421
0.000154077223588076,16.8557436823421
0.000165852879093566,16.8657436823421
0.000179037150847522,16.8757436823421
0.00019387002297408,16.8857436823421
0.000210647225410085,16.8957436823421
0.000229736878448821,16.9057436823421
0.000251602386365709,16.9157436823421
0.000276834446153943,16.9257436823421
0.000306196626118266,16.9357436823421
0.000340691606198411,16.9457436823421
0.000381659676118094,16.9557436823421
0.000430929029279159,16.9657436823421
0.000488963027797585,16.9754233631386
0.000554617250334169,16.9843790644743
0.000628711597980882,16.9926495342196
0.000712309545457293,17.0002869638502
0.000806641643469048,17.0073404206653
0.000913106984511342,17.0138554748288
0.00103329043741475,17.0198744791164
0.00116898581403612,17.0254368298563
0.00132222537706711,17.0305791336847
0.00149530965690795,17.035335371383
0.00169084546135706,17.0397371004527
0.00191178878262207,17.0438136788889
0.00216149947937328,17.0475924316635
0.00244379651466802,17.0510987764034
0.00276303671126904,17.0543563992823
0.00312420918493768,17.0573874588724
0.00353305320884176,17.0602127332991
0.00399621497635749,17.0628518003828
0.00452146001975331,17.065323278852
0.00511796606592597,17.0676450717739
0.00579674829382015,17.0698346947785
0.00655259887995963,17.0718638966217
0.00738520651990601,17.0737378262006
0.00830542640874231,17.0754879736677
0.00932924936959391,17.0771454996509
0.0104817411440573,17.0787443628326
0.0118077907244138,17.0803298434338
0.0134807787394179,17.0820553759885
0.0158269558609154,17.0841340206763
0.0175557781113783,17.0855052320997
0.0193873344482661,17.0868764435231
0.0210433935523276,17.0880914374398
0.0225219717558523,17.0891982592012
0.0238525161910105,17.0902573601982
0.0250349430837251,17.09130917264
0.0260503905578999,17.0923915703302
0.0268600092069136,17.0935555646197
0.0273841263980048,17.0949017931904
0.0273535730947598,17.0968211588931
0.0266255723350743,17.0985462459194
0.0256008311893812,17.1000095017679
0.0244060908816938,17.1013717815038
0.0230512161925596,17.102740249192
0.0215461793848623,17.1041648860293
0.0199000724778562,17.1056836134791
0.0186856134337598,17.1068064767732
0.0175038515069793,17.1079293400673
0.0161960051576203,17.1092436832628
0.014185430903319,17.1114512089469
0.0123141568457616,17.1137724780675
0.0105701309983048,17.1162561886534
0.00901820790784275,17.1188332713608
0.00774887266925579,17.1213092768398
0.00665759596920065,17.123821716953
0.00571884769636602,17.1263999364305
0.00491614157521765,17.1290671468039
0.00423795877558241,17.1318464618696
0.00367699497343851,17.1347625585899
0.00323030018819061,17.1378430737806
0.00290038438038011,17.1411201369903
0.00269790192306549,17.144632292237
0.00264603954181662,17.1482527184772
0.00273906432296702,17.1514884652362
0.00294834122006085,17.154408612177
0.00325823979567009,17.1570583891315
0.00366248147301977,17.1594881503428
0.00416223336601504,17.1617463661068
0.0047671763975688,17.1638849380578
0.0054989806293312,17.165963261837
0.0064005216764696,17.168058792756
0.00756208668569985,17.1702956362689
0.00918892376811983,17.1729013783434
0.011226362563697,17.1756371788467
0.0128375266257781,17.1775135287102
0.0146571734210845,17.1793898785738
0.0165020804083085,17.181064062791
0.0184176705144311,17.1825905248801
0.0204688507007905,17.1840200614786
0.022718559827937,17.1853844250549
0.0252017241738365,17.186688877241
0.0279675947675903,17.1879431760888
0.0310574121340678,17.1891498434047
0.0345207310542745,17.1903128687335
0.0384065192017702,17.1914340578346
0.0427744965402538,17.1925166931888
0.0476886301508209,17.1935630944936
0.053226054769014,17.1945764491959
0.0594744270399756,17.1955596215564
0.0665387168224053,17.1965158890058
0.0745432160206346,17.1974485852237
0.0836371405433187,17.1983612233827
0.0940027842192553,17.1992576607455
0.105864294663431,17.2001420763681
0.119501663226199,17.2010191433027
0.135270902778364,17.2018942509678
0.153633742409625,17.2027738052464
0.175207352729557,17.2036658522553
0.200857568486283,17.2045814128659
0.230513519481731,17.2054977397006
0.264896927718305,17.2064231643103
0.304988584105678,17.2073709888669
0.352371501959199,17.2083677950689
0.390152335387668,17.2091014631826
0.429439614293548,17.2098351312962
0.464291145808917,17.2104848584677
0.494822490790017,17.2110772263793
0.521666042523634,17.2116447416425
0.544830562533521,17.212211378763
0.563822445867568,17.2128016213352
0.577441487322164,17.2134517506195
0.582629929119653,17.2141950627292
0.576141562123366,17.2149595629305
0.556782598328789,17.2157672071971
0.5231620776034,17.2166259183223
0.476637055203616,17.2174937278292
0.414850201831764,17.2184099923316
0.363933456852314,17.2190588221344
0.308031646773441,17.2197076519371
0.25944318309403,17.2202410180003
0.218686942993319,17.2206797826382
0.183348705989267,17.2210625746595
0.151942606954493,17.2214115686888
0.123616635199476,17.221739854289
0.0978077152071204,17.222056661971
0.0740696934958435,17.2223701129685
0.0519453219675281,17.2226897923016
0.0307134773767233,17.2230328670075
0.00782763477493789,17.2234632940736
-0.00168833115072953,17.2236695417749
-0.0103081549577306,17.2238757894763
-0.0169613290913038,17.2240510767758
-0.0231149445152448,17.2242289960186
-0.0293201951346689,17.2244278725462
-0.0353200215209271,17.2246442414985
-0.0409499748864631,17.224876002613
-0.0461181416514766,17.2251224038645
-0.0507763687630457,17.2253835958972
-0.0549030466178593,17.2256603815231
-0.0584929220650864,17.2259540958133
-0.0615508488288081,17.2262665671871
-0.0640831415433035,17.226600134858
-0.0661520187817971,17.2269701362211
-0.0676279544698358,17.2273527698551
-0.0686222679089201,17.227767033176
-0.0691486074877344,17.228218643455
-0.0692159130892626,17.22871464843
-0.0688270051127056,17.2292642063994
-0.0679732462829417,17.2298808569023
-0.0666295952829196,17.2305827168671
-0.0647435316991594,17.23139719778
-0.062203546682465,17.2323721768536
-0.0587173427153792,17.2336187266267
-0.0546220054412677,17.2350337822289
-0.0506319115000062,17.2364041798047
-0.0468030884811094,17.2377351136739
-0.0431644502124541,17.2390287199323
-0.0397318838901952,17.2402856838133
-0.0365138238153191,17.2415059640055
-0.0335136544013399,17.2426891772764
-0.0307309459480943,17.2438348017394
-0.0281622387046229,17.2449422823972
-0.0258016432124048,17.2460110818786
-0.0236413589874266,17.2470406986209
-0.0216721456946275,17.248030664411
-0.0198837546160438,17.2489805278771
-0.0182653192491633,17.2498898275758
-0.016710925755351,17.2508162355079
-0.0152152276145693,17.2517665788533
-0.0137823004311401,17.252742717325
-0.0124159701539301,17.2537468765445
-0.0111198407103931,17.254781678742
-0.00989723942842354,17.2558502425207
-0.00875115977371896,17.2569563149594
-0.00768420042778932,17.2581044509084
-0.00669849981810529,17.2593002623476
-0.00579566429218485,17.2605507753057
-0.00497668649355426,17.2618649585964
-0.00424184746422352,17.2632545404824
-0.00359058988068214,17.2647353373238
-0.00302133629260642,17.2663295640865
-0.00255520367114873,17.2679737626481
-0.00217947271712557,17.2696719190697
-0.00187843108035936,17.2714426171667
-0.00163741783213744,17.273309487525
-0.00144227733064417,17.2753047623214
-0.00127872817605005,17.2774754881236
-0.00113124772227223,17.2798971546093
-0.000980440427409726,17.2827102944229
-0.000793389420103903,17.2862639088155
-0.000581108485495314,17.2900470764842
-0.000329778912786649,17.2941617856189
-4.70316126393255e-05,17.2985045477576
0.000261433812424885,17.3030991142761
0.000588965611704666,17.3079707020067
0.000895530464742249,17.3126058751495
0.00117784115491432,17.3169753643978
0.00145178522608867,17.3213174812612
0.00173670714229618,17.3259320466107
0.00204206300098049,17.3309640964359
0.00233784294272979,17.3358849973556
0.00264177564594922,17.3409556398143
0.00289869695529926,17.345216334257
0.00313895351441014,17.349165269538
0.00337474208135561,17.352991300173
0.00361244240025312,17.3567845334056
0.00385656389980458,17.3606012589389
0.00411097621682942,17.3644833010177
0.00437942264481193,17.3684653790078
0.0046658078434838,17.37257857193
0.00497446738072582,17.3768530158331
0.00531040239208454,17.3813192961793
0.00567960078724248,17.3860097163724
0.00608953631115984,17.3909595310556
0.00653533865363902,17.3960445481011
0.00700039832874204,17.4010293261337
0.00749321201821346,17.4059702261639
0.00801539459755163,17.4108381442209
0.00857246661018806,17.4156369671412
0.00917048167142355,17.4203672303164
0.00981665951086112,17.4250316934649
0.0105212843281641,17.4296459388671
0.0113091308491339,17.4342954978708
0.0121950210449467,17.4389734051387
0.0132017218586406,17.4436978606902
0.014360906683649,17.4485024390388
0.0157246271263023,17.4534662577492
0.0174023085776211,17.4588010099776
0.0197959688053686,17.4654002003196
0.0214366334487223,17.4694947687308
0.023143374144553,17.4735893371421
0.0246204139012688,17.4771647403121
0.0258617016215824,17.480369521378
0.0268962258539527,17.4834099299429
0.0276963749115336,17.486342047681
0.0282293914228031,17.4891636255686
0.0284910310511789,17.4919972673119
0.0284449852355503,17.4950091124599
0.0279577665034921,17.4985904412737
0.0271547221998584,17.5018077264442
0.0260637193065785,17.5050250116147
0.0249755238225939,17.5077236366027
0.0239008689964108,17.5101444614923
0.0228268817992555,17.512430187874
0.0217528283381557,17.5146428107114
0.0206816764973064,17.5168157001366
0.0196171154811926,17.5189702876289
0.0185628123751162,17.5211219057836
0.0175222137975971,17.5232823699886
0.0164984931713941,17.5254613275568
0.0154945474528366,17.527667034601
0.0145130003038637,17.5299068605915
0.0135562175358597,17.5321876145636
0.0126263147701052,17.5345157959381
0.0117251668575874,17.5368977851422
0.0108544202004858,17.5393399913745
0.0100154972408073,17.5418490009907
0.00920960667545313,17.544431702337
0.00843425189175029,17.5471079717754
0.00767144087363017,17.5499622453511
0.00692500555555873,17.5530145202392
0.006198708435224,17.5562889233655
0.00549651906106561,17.5598132878161
0.00482257497143302,17.5636198395737
0.00418111796078863,17.5677461104556
0.00357647342977389,17.5722362612263
0.00301266384402191,17.577143277
0.00249322165566573,17.5825329559512
0.00202095668294743,17.5884907609502
0.00159787332621694,17.5951312765146
0.00123682639327404,17.6023473759079
0.000936229627250776,17.6101634786116
0.000689478768815402,17.618710801354
0.000492773574566302,17.6281629377691
0.000368136752146642,17.6370184542445
0.000269407206341721,17.6470184542445
0.000200784569569821,17.6570184542445
0.00015296871107532,17.6670184542445
0.000119992752349168,17.6770184542445
9.76075299683444e-05,17.6870184542445
8.26864262957363e-05,17.6970184542445
7.29720344989536e-05,17.7070184542445
6.68851073363487e-05,17.7170184542445
6.33449815818916e-05,17.7270184542445
6.16176355193432e-05,17.7370184542445
6.12033543359732e-05,17.7470184542445
6.1760826985274e-05,17.7570184542445
6.3057611451322e-05,17.7670184542445
6.49374692716995e-05,17.7770184542445
6.72981702074869e-05,17.7870184542445
7.00760692470921e-05,17.7970184542445
7.32353532578491e-05,17.8070184542445
7.67606397860009e-05,17.8170184542445
8.06520041065314e-05,17.8270184542445
8.49217581563884e-05,17.8370184542446
8.95924962363707e-05,17.8470184542446
9.46960757755589e-05,17.8570184542446
0.000100273319407802,17.8670184542446
0.000106374312303239,17.8770184542446
0.000113059234840571,17.8870184542446
0.000120399724362645,17.8970184542446
0.000128480808671243,17.9070184542446
0.000137403504666487,17.9170184542446
0.000147288234581673,17.9270184542446
0.000158279287257035,17.9370184542446
0.00017055065321214,17.9470184542446
0.000184313705116819,17.9570184542446
0.000199827402946064,17.9670184542446
0.000217412012611314,17.9770184542446
0.000237467798441425,17.9870184542446
0.000260500884260064,17.9970184542446
0.000287159647730693,18.0070184542446
0.000318286922634916,18.0170184542446
0.000354996486722897,18.0270184542446
0.000398787845900912,18.0370184542446
0.000451723206148947,18.0470184542446
0.000512527276673908,18.0564261093049
0.000581217723341447,18.0651199487356
0.000658723978280852,18.0731483002495
0.000746173453396662,18.0805623403753
0.000844858575343546,18.0874098024085
0.000956245366017848,18.0937350223368
0.00108199365150941,18.0995792218144
0.00122398228747841,18.1049807427912
0.00138434048160746,18.1099751898727
0.00156547732039282,18.1145956145849
0.00177012533554595,18.1188727277046
0.00200138389935362,18.1228351160352
0.00226277694464373,18.1265093749622
0.00255831467478159,18.1299202529463
0.00289257624146688,18.133090844993
0.00327081649881415,18.1360427778474
0.00369909178017409,18.1387963573774
0.00418443645148164,18.1413707742812
0.00473510432373732,18.143784350072
0.00536089895534579,18.1460547972504
0.00607286311404908,18.1481973850254
0.00685669767318435,18.1501646208756
0.0077207967421197,18.1519882682247
0.00867780145022071,18.1536998314796
0.00974642795905579,18.1553309359412
0.010957301258129,18.1569183386326
0.0123924690667989,18.158540939029
0.0142774037390048,18.1603759447114
0.01671635316199,18.1624303334451
0.0183809664079867,18.1637084880444
0.0201120972141175,18.1649866426437
0.0216849367212942,18.1661447873183
0.0230995779713544,18.1672257157617
0.0243689896201448,18.1682772957495
0.0254844145666539,18.1693370265729
0.0264194821949716,18.1704460292954
0.0271227739631956,18.1716687552328
0.0274753922416817,18.1731620939071
0.0271173889143849,18.1751328312918
0.0262304933251651,18.1767447577546
0.0251336920693765,18.178147291718
0.0238726224389589,18.1795039937005
0.0224551705231607,18.1808905862464
0.0208916991952729,18.1823490157489
0.0191894183128791,18.1839178022445
0.0185649967428027,18.1844974271093
0.0179500721434946,18.1850770519741
0.0168221416529732,18.1861819093907
0.0147050070835768,18.1884338591442
0.0127540521198738,18.1907769805698
0.0109812545225771,18.1932147803619
0.00934927026675875,18.195825541348
0.00802703016798486,18.1983093468311
0.00689706346864623,18.2008103842526
0.00592452853685281,18.2033712004184
0.00509137779072874,18.2060156908297
0.00438504127671891,18.2087668248412
0.00379725188447521,18.2116487913093
0.00332398964362924,18.2146884112515
0.00296632731457979,18.2179166169429
0.00273266067168842,18.221370258985
0.0026435909626759,18.2250845738335
0.00270833322211392,18.2283946587225
0.0028941004345689,18.2313789346554
0.00318324163784504,18.234084668288
0.00356718404459471,18.2365574036218
0.00404578945973645,18.2388484357486
0.00462667249117812,18.2410082549691
0.00532834556483613,18.2430938333437
0.0061886319617017,18.2451791826211
0.00728542578318596,18.2473766397754
0.00878713381998408,18.2498786589429
0.0107392191483344,18.2526022878731
0.012366589633147,18.254565601788
0.0142101176977552,18.256528915703
0.016053455048769,18.2582545794549
0.0179477694576132,18.2598124754426
0.0199603479977558,18.2612616089844
0.0221580617659984,18.2626403277055
0.0245812939635036,18.2639584743646
0.0272733147411965,18.2652235692385
0.0302812984568819,18.2664415509333
0.0336493320535955,18.267614585075
0.0374282483906818,18.2687456042713
0.0416740958905765,18.2698372420079
0.0464499706672988,18.2708921039341
0.0518298003957989,18.271913205692
0.0578977938069584,18.2729033528097
0.0647549693913457,18.2738658261664
0.0725200491147892,18.2748038731299
0.0813360331614878,18.2757210065992
0.0913764358888043,18.2766209886309
0.102854000772314,18.2775078892236
0.1160339506337,18.2783862659804
0.131251663619529,18.2792613079805
0.148939730875236,18.2801391297546
0.169671670333473,18.2810273020427
0.194241692487629,18.2819359699846
0.222858236097543,18.282851442507
0.256008123780017,18.283773674207
0.294591556111109,18.2847143234594
0.339982082102646,18.2856952523771
0.378995364716991,18.2864669642903
0.420021438878388,18.2872386762035
0.456208815407562,18.2879110197244
0.48771583931237,18.2885139987137
0.515439279393707,18.2890852084377
0.539528633596415,18.2896499647087
0.559615693926541,18.2902318124921
0.574720665873839,18.2908625510372
0.582448784837868,18.2916042932591
0.578677060943951,18.2923620684342
0.562366644557129,18.2931581393423
0.531749966491573,18.2940129168082
0.488414114058995,18.294872120995
0.429935616024989,18.295780510286
0.377218311327262,18.2964742506666
0.318493596642135,18.2971679910471
0.267801595136475,18.2977286394846
0.225754550477586,18.2981819356762
0.189550428716574,18.2985730406166
0.157494378135196,18.2989271202572
0.128647265917744,18.2992584674513
0.102408615299193,18.2995767814846
0.0783200478407272,18.2998902188462
0.0559379737267348,18.3002078285642
0.0346282239456754,18.3005444235021
0.0125686523161017,18.3009455668391
0.000236489893558842,18.3012043740317
-0.0073949476452433,18.3013819011626
-0.0143823823884046,18.3015594282935
-0.0204756058177098,18.3017287898289
-0.0266931303563174,18.3019191644322
-0.0328059569519983,18.3021284492185
-0.0386078387636047,18.3023538220676
-0.0439803202473403,18.3025940236584
-0.0488593055270879,18.3028488614741
-0.0532134584066449,18.3031188817135
-0.0570315108922396,18.3034052017531
-0.0603146114980686,18.3037094409861
-0.0630712601683979,18.304033716155
-0.0654423743199701,18.3044065430552
-0.0671108155676782,18.3047781818751
-0.0682909922800535,18.3051794490497
-0.0689985461026849,18.3056157459678
-0.0692441698047691,18.3060934779958
-0.0690333823694774,18.3066208870714
-0.0683628323138357,18.3072095344554
-0.0672145316189618,18.3078755660466
-0.065548848918459,18.3086419606324
-0.0632836087027314,18.309546393297
-0.0602268828211961,18.3106648162994
-0.0561099292591187,18.3121011653855
-0.0520724583097518,18.3134869237305
-0.0481802787699094,18.3148318580261
-0.0444697786133475,18.3161389246003
-0.0409606374636442,18.317409222125
-0.0376636151742173,18.3186429123788
-0.0345837504144444,18.319839703836
-0.0317218958407884,18.32099910764
-0.0290756198099632,18.322120571855
-0.0266398553563643,18.3232035486175
-0.0244074422021758,18.3242475222997
-0.0223696131613834,18.3252520135377
-0.0205164398826208,18.3262165672634
-0.0188372386561795,18.3271407292743
-0.017263075588544,18.3280587639589
-0.0157457824578831,18.3290003173682
-0.0142898436891296,18.3299669463935
-0.0128991497949908,18.3309607552642
-0.0115773907388339,18.3319842134531
-0.0103279996376199,18.3330402479137
-0.0091540967250067,18.334132362061
-0.00805842981002794,18.3352647960087
-0.00704331059158322,18.3364427473754
-0.00611054540574408,18.3376726839075
-0.00526135766545802,18.3389628005727
-0.00449629684604275,18.3403237143567
-0.00381512415472717,18.3417695721738
-0.00321665497244064,18.3433199280382
-0.00271321935757549,18.3449493071634
-0.00230655864081294,18.3466258252811
-0.0019801208440816,18.3483677739444
-0.00171895331796684,18.3501965251983
-0.00150877595298084,18.3521406797113
-0.00133544637283829,18.3542408696572
-0.00118407814290413,18.3565598212691
-0.00103718922660838,18.3592071409135
-0.00086908994328708,18.3624211884782
-0.000665568275346052,18.3661593123078
-0.00042847426187119,18.3701626320449
-0.000157063825684945,18.3744166825049
0.00014251347458579,18.3789134504334
0.000463567958998413,18.3836774180932
0.000783113301802326,18.3884726974904
0.00107290931582411,18.3929171307921
0.00134806996196402,18.3972402000499
0.00162595170575493,18.4017056542748
0.00193523514124823,18.4067753119089
0.0022327539714876,18.4117116654777
0.00253152497429153,18.4166951868472
0.00280061937069841,18.4211706055152
0.00304531059508607,18.4252090990514
0.00328190562185938,18.4290697243753
0.00351824509322787,18.4328679334132
0.0037593524443349,18.4366698442671
0.00400926372240693,18.4405217255451
0.00427173156487483,18.4444605799648
0.00455056065537904,18.4485185081973
0.00484989085320635,18.4527258338517
0.00517442929263362,18.457112813048
0.00552972805288487,18.461710926003
0.0059225986976927,18.4665541103332
0.00636177636467405,18.4716798892027
0.00681654089474407,18.4766749144373
0.0072990988863566,18.4816433921733
0.00780915552069976,18.4865377092393
0.00835211695227044,18.4913639656616
0.00893344725933056,18.4961203297172
0.00956004880850295,18.5008100060117
0.0102396699778469,18.5054351773471
0.0109937283429238,18.5100720595144
0.0118393321887191,18.5147373563203
0.012796190469121,18.5194411831446
0.0138917016540151,18.5242087658742
0.0151679018705728,18.5290965155803
0.0167036251300222,18.5342451936667
0.0187158839474409,18.540116779009
0.0205587589373679,18.5449116944961
0.02253162629623,18.5497066099831
0.0241336782203733,18.5535484695701
0.0254535808751375,18.5568585072653
0.0265594492611899,18.5599383615536
0.0274539495243888,18.5629379604734
0.0280777082136896,18.5657849455556
0.0284338513867494,18.5685993212421
0.0285001055801685,18.5715253047838
0.0281932536521969,18.5748301580344
0.0272109523043856,18.5791974359037
0.0263201260233516,18.581910574367
0.0252617951770204,18.5846237128303
0.0241889906836611,18.5870910783186
0.0231154468711956,18.5894044281181
0.0220412094163529,18.5916325710973
0.0209689323942353,18.5938136177527
0.0199022394925904,18.595971373311
0.0188448363266636,18.5981224689913
0.0178002359342716,18.6002794996486
0.0167716882982898,18.6024525973474
0.0157621630239186,18.6046503362394
0.0147743567731944,18.6068802841741
0.0138107044013175,18.6091493715028
0.0128733861945188,18.6114641639082
0.01196434257736,18.6138310527835
0.0110852799432169,18.6162564266734
0.0102376796027078,18.6187468127047
0.00942280711424031,18.6213090049438
0.00864171910297752,18.6239501976578
0.00787514743861329,18.6267547945203
0.00712393654673886,18.6297516128948
0.00639182989464289,18.632963742753
0.00568274659695273,18.6364179506015
0.00500078392879159,18.6401452068504
0.00435015829949658,18.6441815146062
0.00373519276308378,18.6485690879141
0.00316002049877269,18.6533582702271
0.00262833475464006,18.6586107940626
0.00214315141980282,18.6644060579961
0.00170668340318713,18.670849810727
0.00132814498689788,18.6779214858099
0.00101187524632507,18.6855641601981
0.000751200994280747,18.6938987358477
0.000539848328045854,18.7030862648866
0.000406508486006504,18.7115098439988
0.00030169588245006,18.720909235707
0.000223317916297507,18.730909235707
0.000168638185274929,18.740909235707
0.000130744154978022,18.750909235707
0.000104861729624653,18.760909235707
8.74880731256776e-05,18.770909235707
7.60668002606173e-05,18.780909235707
6.87891623670975e-05,18.790909235707
6.44097009119154e-05,18.800909235707
6.20816238170147e-05,18.810909235707
6.12293291010652e-05,18.820909235707
6.14599840312804e-05,18.830909235707
6.25054817446358e-05,18.840909235707
6.41844787005554e-05,18.850909235707
6.63768942014538e-05,18.860909235707
6.90062979393403e-05,18.870909235707
7.20276153494277e-05,18.880909235707
7.54186112985277e-05,18.890909235707
7.91741100218732e-05,18.900909235707
8.33021926792596e-05,18.910909235707
8.78218212683676e-05,18.920909235707
9.27615046129498e-05,18.930909235707
9.81587529543517e-05,18.940909235707
0.000104060165712516,18.950909235707
0.000110522070009083,18.960909235707
0.000117611684830429,18.970909235707
0.000125408835561203,18.980909235707
0.000134008292960693,18.990909235707
0.000143522865845496,19.000909235707
0.000154087444831107,19.010909235707
0.000165864284639359,19.020909235707
0.000179049937816732,19.030909235707
0.000193884433061461,19.040909235707
0.000210663557817193,19.050909235707
0.000229755507531662,19.060909235707
0.00025162378609086,19.070909235707
0.000276859224578925,19.080909235707
0.000306225574948277,19.090909235707
0.000340725773558425,19.100909235707
0.000381700476025803,19.110909235707
0.000430978410878077,19.120909235707
0.000489018971511546,19.1305882462315
0.000554680389252967,19.1395433022895
0.000628782820342401,19.1478131753637
0.000712389892830794,19.1554500544335
0.000806732304875564,19.1625030035087
0.000913209307551315,19.1690175897045
0.00103340594751114,19.1750361630063
0.00116911623808358,19.1805981171587
0.00132237267280859,19.1857400563335
0.00149547603902083,19.1904959590223
0.00169103344354768,19.1948973806324
0.00191200121631399,19.1989736772613
0.00216173960688219,19.2027521720875
0.00244406802785827,19.2062582810839
0.00276334382616662,19.2095156889527
0.0031245567446793,19.2125465529555
0.0035334467979446,19.2153716500399
0.00399666108603701,19.2180105570427
0.00452196627842417,19.2204818919338
0.00511854154648975,19.2228035572612
0.0057974039855329,19.2249930685014
0.00655332088477953,19.2270221147701
0.00738600274177888,19.2288959172909
0.00830630879466836,19.2306459661535
0.00933023571921511,19.2323034224335
0.0104828608243355,19.2339022500972
0.0118091007122155,19.2354877469376
0.013482512325224,19.2372134849928
0.0158289149766451,19.2392920816786
0.0175575123422355,19.2406630069357
0.0193887519144797,19.2420339321929
0.021044628436921,19.243248792479
0.0225230813649733,19.2443555557958
0.0238535111709053,19.2454146363477
0.0250358152591819,19.2464664574916
0.026051118062432,19.2475488966398
0.0268605500866864,19.2487129843999
0.0273843852278661,19.2500594315975
0.027353043426577,19.2519797952994
0.02662444247402,19.2537046205412
0.0255994662573026,19.2551676477755
0.0244045233191991,19.25652988943
0.0230494564958306,19.2578984010186
0.0215442405873187,19.2593231307499
0.0198979629886191,19.2608419984349
0.0186853867244179,19.2619631296597
0.0175054104643203,19.2630842608845
0.0161983723763309,19.2643976649698
0.0141874597473364,19.2666052852718
0.0123159289863721,19.2689265671347
0.0105718245124935,19.2714100254409
0.00901957745075328,19.2739872376741
0.00775004723461727,19.2764632219612
0.00665860662693097,19.278975608215
0.00571971388776955,19.281553749878
0.00491687700019133,19.2842208595491
0.00423857264403596,19.2870000501759
0.00367749224674588,19.2899159964538
0.00323068096541595,19.2929963315046
0.00290064209467243,19.2962731794946
0.00269801930159422,19.2997850768412
0.00264599406652842,19.3034059253488
0.00273889329981027,19.3066420152717
0.00294806506102685,19.3095624611308
0.00325786957147823,19.3122124935259
0.00366201890193773,19.3146424547708
0.00416167288689697,19.3169008189778
0.00476650283037393,19.3190394837637
0.00549816481243286,19.3211178369694
0.00639949225570309,19.3232132782343
0.00756069725389121,19.3254498487466
0.00918687854120054,19.3280550382892
0.0112238976495219,19.3307907891882
0.0128351222372945,19.3326675395086
0.0146548590814674,19.334544289829
0.0164997440510149,19.3362187221354
0.018415208128054,19.337745332733
0.0204661804838603,19.3391749660921
0.022715621664178,19.3405394062491
0.0251984694734068,19.3418439272918
0.0279639571435451,19.3430982833095
0.0310533452215957,19.3443050081749
0.0345161682417146,19.3454680856733
0.038401397256383,19.3465893250352
0.0427687380538782,19.3476720069935
0.0476821486081931,19.3487184515545
0.0532187488509437,19.3497318458488
0.0594661765694376,19.3507150537319
0.0665293818047662,19.351671352814
0.0745326274364132,19.3526040763456
0.0836250949160682,19.3535167373023
0.0939890322643165,19.3544131925374
0.105848526902098,19.3552976205557
0.1194834911263,19.3561746937545
0.135249828056092,19.3570498005092
0.153609110998157,19.3579293451536
0.175178274218872,19.3588213711899
0.2008239873735,19.3597369353977
0.23047465924516,19.360653257355
0.264851784490587,19.3615786647607
0.304935718095832,19.3625264507904
0.352308278451843,19.3635231701404
0.390094770883657,19.3642570128604
0.429390153363753,19.3649908555804
0.46424836049242,19.3656406917643
0.494784789264378,19.3662331112818
0.521633034153928,19.3668006429255
0.544802564021618,19.3673672665755
0.563800468038537,19.3679574592558
0.577427853020776,19.3686074741806
0.582630259468106,19.369350774508
0.576156917979383,19.370115234972
0.556814905774943,19.3709228132521
0.523207773459606,19.3717815697357
0.476699902626528,19.3726493243356
0.414929294495629,19.3735655613866
0.364003200211745,19.3742146147459
0.308087092562201,19.3748636681053
0.259487868156686,19.3753971722069
0.218724921162251,19.3758360115194
0.183382117290798,19.3762188467788
0.151972560930271,19.3765678673631
0.123643805718755,19.376896168845
0.0978325887123922,19.3772129840386
0.0740927007955637,19.3775264341563
0.051966987107844,19.3778461008524
0.0307348773674122,19.378189136358
0.00785500811942357,19.3786193667173
-0.00167250904387897,19.3788258201896
-0.0103020288719868,19.3790322736619
-0.0169563974705416,19.3792075793245
-0.0231098351007674,19.3793854795814
-0.0293151572779594,19.3795843403951
-0.0353152315390913,19.3798006960976
-0.0409455332512971,19.3800324450609
-0.046114102935865,19.3802788343644
-0.050772759908508,19.3805400140358
-0.0548998776423115,19.3808167864142
-0.0584901925059069,19.3811104861583
-0.0615485517939495,19.3814229412817
-0.0640812766434603,19.3817564905581
-0.0661508171276309,19.3821265185916
-0.0676270945180229,19.3825091323518
-0.0686217370438235,19.3829233718255
-0.0691483978999409,19.38337495393
-0.0692160203793217,19.3838709251842
-0.0688274300910503,19.3844204421276
-0.0679740001403664,19.385037040495
-0.0666307029148357,19.3857388332422
-0.0647450442864558,19.386553222791
-0.0622055785110419,19.3875280643611
-0.0587202494517022,19.3887743459501
-0.0546248609534522,19.390189438738
-0.0506346675110694,19.3915598654311
-0.0468057176398788,19.3928908261008
-0.0431669377698067,19.3941844582743
-0.0397342217398896,19.395441447901
-0.0365160080508137,19.3966617540183
-0.0335156841595977,19.3978449935483
-0.0307328227440834,19.398990644657
-0.0281639659606416,19.400098152348
-0.0258032258690589,19.4011669792284
-0.0236428031569905,19.4021966237095
-0.0216734583426374,19.403186617559
-0.0198849432714161,19.4041365094019
-0.0182663917441763,19.4050458378134
-0.016711959651847,19.4059722296189
-0.0152162194909828,19.4069225560104
-0.0137832476315207,19.4078986761206
-0.0124168701524585,19.408902815331
-0.01112069115228,19.4099375955693
-0.00989803816784449,19.4110061350587
-0.00875190491412739,19.4121121803933
-0.00768489036496621,19.4132602857955
-0.00669913328683258,19.4144560624152
-0.00579624041823785,19.4157065351581
-0.00497720485418933,19.4170206712722
-0.00424230816320883,19.4184101967563
-0.00359099364986566,19.4198909245378
-0.00302168464589296,19.421485064045
-0.00255548239696069,19.4231292321409
-0.00217969383774088,19.4248273447036
-0.00187860515459368,19.4265979846153
-0.00163755490680943,19.4284647777581
-0.00144238728764918,19.43045994863
-0.00127882129040609,19.4326305300015
-0.00113133576525287,19.4350519833601
-0.000980539683276692,19.4378647698183
-0.000793534753175442,19.4414176072164
-0.000581275589658549,19.4452006406608
-0.000329970909131672,19.4493151939345
-4.72453458069165e-05,19.4536577841184
0.000261203566659872,19.4582521614332
0.000588723544030815,19.4631235408739
0.000895311122010211,19.467758984872
0.00117763413526892,19.4721285853053
0.0014515781934955,19.476470627096
0.00173648193598523,19.481084828289
0.0020418524865442,19.4861170726972
0.00233763383480498,19.4910379746886
0.00264155380934726,19.4961084079965
0.00289849490532604,19.5003694596593
0.00313875854305023,19.5043185488717
0.00337454764807551,19.5081446360478
0.00361224434003088,19.5119378703277
0.0038563589069618,19.5157545585838
0.00411076124091764,19.5196365329994
0.00437919459950914,19.523618516996
0.00466556339125672,19.5277315912847
0.00497420274080843,19.5320058920872
0.00531011312429355,19.5364720039894
0.00567928147138217,19.5411622284971
0.00608918003523642,19.5461118173945
0.00653497057234841,19.5511969504095
0.00700000747005842,19.55618174524
0.00749279919303558,19.5611227069594
0.00801495538277288,19.5659906805695
0.00857199669393799,19.5707895610668
0.00916997545885366,19.5755198786893
0.00981611079041691,19.5801843945763
0.0105206730176884,19.5847986106274
0.0113084466930316,19.5894481510757
0.0121942477620355,19.594126028008
0.0132008381747268,19.5988504354702
0.0143598805319297,19.6036549248909
0.0157234010741672,19.608618556011
0.0174007415555827,19.6139528277868
0.0197932919143374,19.6205497789506
0.0214343408033067,19.6246456743019
0.0231415967809444,19.6287415696532
0.0246189551838537,19.6323176031773
0.0258604759915176,19.635522660129
0.0268952220791216,19.6385631640379
0.0276956629491193,19.6414954664709
0.0282289642433338,19.6443171010909
0.0284909059188136,19.647150655155
0.0284452302209303,19.6501621774457
0.0279586641384787,19.6537424048893
0.0271557581181183,19.6569607305827
0.0260646390540934,19.6601790562761
0.024976397445373,19.6628780738521
0.0239017369746246,19.665299053725
0.0228277502538353,19.667584858471
0.0217536958007178,19.669797524538
0.0206825401144602,19.6719704362364
0.0196179722357026,19.6741250316526
0.0185636593839052,19.6762766470125
0.0175230483828422,19.6784370999014
0.0164993128829722,19.680616039011
0.0154953500627423,19.6828217213474
0.0145137837984412,19.685061516949
0.0135569801107135,19.6873422351832
0.0126270548106641,19.6896703756582
0.0117258829424226,19.6920523188261
0.0108551110999067,19.6944944737754
0.0100161618857871,19.6970034267137
0.00921024417730337,19.6995860656606
0.00843488053035209,19.7022621975747
0.00767205757911851,19.70511631853
0.00692560735098369,19.7081684224582
0.00619929215753981,19.7114426335361
0.0054970813992367,19.7149667815333
0.00482311250022262,19.7187730885211
0.00418162715981158,19.7228990815362
0.00357695086028712,19.7273889152234
0.00301310639679765,19.7322955661955
0.00249362672056295,19.7376848197399
0.00202132230623056,19.7436421191246
0.00159819816139026,19.7502820209465
0.00123709861157404,19.7574976674084
0.000936454707226397,19.7653132258261
0.000689661989255052,19.7738598798824
0.000492911840434937,19.7833111827903
0.000368303304655586,19.7921611193317
0.000269521754891732,19.8021611193317
0.000200863756560627,19.8121611193317
0.000153023279366243,19.8221611193317
0.000120030017837549,19.8321611193317
9.76326483940029e-05,19.8421611193317
8.27030503617205e-05,19.8521611193317
7.298272382763e-05,19.8621611193317
6.68916324601318e-05,19.8721611193317
6.33485576620058e-05,19.8821611193317
6.16190946054526e-05,19.8921611193317
6.12032659024537e-05,19.9021611193317
6.17595796432125e-05,19.9121611193317
6.30554679774123e-05,19.9221611193317
6.49346040300806e-05,19.9321611193317
6.72946949123337e-05,19.9421611193317
7.00720507877757e-05,19.9521611193317
7.32308259702293e-05,19.9621611193317
7.6755613778689e-05,19.9721611193317
8.06464707689889e-05,19.9821611193317
8.44723130189089e-05,19.9910805596658
8.85928281440236e-05,20
