ecg,time
0.00838127152462256,15.0011018820888
0.0076102000732074,15.0025623878735
0.0068710365589064,15.0040986609004
0.00611439420885705,15.0058423714788
0.00523250295641987,15.0081563438152
0.00436901430833484,15.0108221027511
0.00366805277456433,15.0134011159815
0.00309172078664777,15.0159259768161
0.00256487046842385,15.0187049386795
0.00207419945424808,15.0219195134673
0.00166644160568135,15.0253630854912
0.00133996839639148,15.0290743152285
0.00109644745623109,15.0331092107305
0.000945421059918758,15.0375406398207
0.000909134570039968,15.0419187281621
0.000976273955601051,15.045827879753
0.00112912336837892,15.0493443513333
0.0013586495914564,15.0525122079772
0.0016609297933122,15.0553779768712
0.00203625867619381,15.0579913268688
0.00248893557134218,15.0604018404903
0.00302805486300304,15.0626595580485
0.00367003191828084,15.064818897453
0.00444465669131162,15.0669462902056
0.00541100713934302,15.069140013187
0.0066900578247017,15.0715572940634
0.00842249063315744,15.074293995132
0.0100111552583217,15.0764481241522
0.0118268533522916,15.0786022531725
0.0136044092488582,15.0804455355713
0.0153928577412323,15.0820707209896
0.0172757378304117,15.0835673416612
0.019330328032499,15.0849890733216
0.0215873400057968,15.0863420045361
0.0240989488850074,15.087641299983
0.0269036723588328,15.0888898933947
0.0300499065559809,15.0900930697826
0.0335800331870556,15.0912516536215
0.037551231756643,15.092369918011
0.0420207987037537,15.0934499086312
0.0470562830582994,15.094494414796
0.0527379321110972,15.0955067184981
0.0591579593315698,15.0964898698397
0.0664246927102451,15.0974469933523
0.0746705553794703,15.0983817644731
0.0840544405827151,15.0992979186292
0.0947710229119006,15.1001995196163
0.107062003780078,15.1010910710961
0.121234273534889,15.101977812938
0.13768293024746,15.1028658662976
0.156931049997282,15.103762770601
0.17969755473508,15.1046784090236
0.2063858126381,15.1056061686169
0.237293803114954,15.1065390746942
0.273230795300168,15.107487510211
0.315353329657339,15.1084690530434
0.365754345449388,15.1095227677619
0.401369506737312,15.1102207067911
0.437714738863273,15.1109186458204
0.470092351851388,15.1115511473548
0.498574758158152,15.1121417314746
0.523438358632434,15.1127174101286
0.544463635575822,15.1133012577175
0.560905833080669,15.1139205095152
0.571053055143466,15.1146217693772
0.57113903571127,15.1153805220391
0.559244445991823,15.1161680887518
0.533898407246149,15.1170049203872
0.493957307700612,15.1178884352724
0.439652054434039,15.1187990970235
0.373246280719404,15.1197077836783
0.327366248383482,15.1202637741431
0.278433347806032,15.1208197646079
0.235238635976274,15.1212940294074
0.198023689284275,15.1217003852403
0.165210250429777,15.1220645472098
0.135768728653782,15.1224025617545
0.109049839289112,15.1227249694845
0.0845808626892292,15.1230400930751
0.0619388305640354,15.1233563569331
0.0405976218972678,15.123685813308
0.0194021591085219,15.1240574333138
0.0100559505234332,15.1242411180305
0.00144100033910175,15.1244248027471
-0.00819251370730917,15.1246509288972
-0.0151618894542796,15.1248319003413
-0.0211811168225265,15.1250031477598
-0.0273556725690505,15.1251969671259
-0.0333961235500962,15.1254094207623
-0.0391075662594493,15.1256378227619
-0.04437979068679,15.1258810472376
-0.0491536732426228,15.1261389963595
-0.053400852274401,15.1264122896578
-0.0571118097497667,15.1267021083265
-0.0602886638014852,15.1270101337885
-0.0629335762593242,15.1273385487153
-0.0650574984900733,15.1276913122769
-0.0666496802956003,15.1280659695143
-0.0677549638940503,15.1284708802031
-0.0683868222091179,15.1289112307147
-0.068555146663634,15.1293935098735
-0.0682644658127588,15.1299260757975
-0.0675099031961908,15.1305207674848
-0.0662716083714557,15.1311939287552
-0.0645072770879968,15.1319690074829
-0.0621299310428073,15.132884666928
-0.0589353806313691,15.1340198165304
-0.0547331118026941,15.1354509877818
-0.0506263027396009,15.1368323676755
-0.0466779944405895,15.1381728314125
-0.0429222852309342,15.1394752778596
-0.0393773615519242,15.1407407869194
-0.0360527755462991,15.1419695221513
-0.0329524793691405,15.1431612039517
-0.0300763146631303,15.1443153596926
-0.0274209083221673,15.145431454664
-0.0249803284791137,15.146508957176
-0.0227466340174439,15.1475473653017
-0.0207103662761301,15.1485462098213
-0.0188609962272688,15.1495050413518
-0.0171873284543203,15.150423406098
-0.0156045719967436,15.1513447671765
-0.0140812044429054,15.1522898057052
-0.0126215753453836,15.1532601984974
-0.0112295762637749,15.154258097202
-0.00990889141367249,15.1552860307793
-0.00866294380315798,15.1563470005944
-0.00749484094438017,15.1574446044114
-0.00640731768056673,15.1585832038859
-0.00540267569770969,15.1597681561942
-0.00448271863968542,15.1610061433731
-0.0036486806450758,15.1623056563078
-0.00290114413893849,15.1636777349847
-0.00223993880648787,15.1651371580773
-0.00166400528542057,15.1667044787787
-0.00118907341813493,15.1683394931945
-0.000810757787513114,15.1700243012027
-0.000512919850720257,15.1717772657406
-0.000280883077559806,15.1736206079342
-0.000100713856668198,15.1755842797239
4.12803203805152e-05,15.1777112736626
0.000159363603597636,15.1800689324408
0.000270096702271882,15.1827777129371
0.000397826487364554,15.1861121946852
0.000551346482575603,15.1898625097227
0.000738833912589806,15.1939373840004
0.00098365260720339,15.1987390686409
0.00122754537580973,15.2032500134915
0.00146529389854591,15.2075621851236
0.00170517518952808,15.2119216988912
0.00196388570881936,15.21668259653
0.00222848716242653,15.2216196796831
0.00248878657427727,15.2265201245013
0.00274021785199091,15.2312600069679
0.00296017883251008,15.2353799980129
0.00316932536759449,15.2392565082637
0.00337643859370475,15.2430389232086
0.00358656105787401,15.2468048006775
0.00380346402817721,15.2506052235068
0.00403048820571138,15.254479431872
0.00427090753362851,15.258460538761
0.00452818334579075,15.2625790263353
0.00480616303701947,15.266864853927
0.00510927489654387,15.2713487889502
0.0054428056139934,15.2760636525701
0.005813351360181,15.2810456464234
0.00622107055823063,15.2862296662126
0.00664390639178324,15.2912867148786
0.00709178702039138,15.2963047183336
0.00756507347071926,15.3012432516426
0.00806902264380284,15.3061113746858
0.00860892792243759,15.3109101018742
0.00919124866037962,15.3156440374341
0.00982308434825479,15.3203156406052
0.0105126836288105,15.3249284896856
0.0112858289040539,15.3295796484487
0.0121564281093458,15.3342582840467
0.0131465413688655,15.338981585786
0.0142865510313295,15.3437804933675
0.0156257804822255,15.3487282314467
0.0172652262561299,15.3540174436509
0.0195484521368084,15.3604063770211
0.0212273908339705,15.3646423952242
0.0229863931831005,15.3688784134274
0.0244938483148761,15.3725185411966
0.0257566673264571,15.3757511788135
0.0268116521461861,15.3788014027903
0.0276394628677414,15.3817524175852
0.0281994786484705,15.3845802887319
0.0284897381728411,15.3874062218983
0.0284786450843048,15.390388151567
0.0280516505150134,15.3938695587001
0.0272612610651604,15.3971917720218
0.026157153144615,15.4005139853435
0.0250635946198236,15.4032508892249
0.0239878779136499,15.4056864555381
0.0229135076477207,15.4079796696795
0.0218389675591378,15.4101965485382
0.0207670774842156,15.4123718030966
0.0197015010326768,15.4145274883014
0.0186459093071829,15.4166792853312
0.0176037605551121,15.4188392280886
0.016578242496211,15.421017110331
0.0155722658093736,15.4232212951664
0.0145884679312323,15.425459233622
0.0136292272717739,15.4277378034994
0.012696671471104,15.4300635659576
0.0117926872323476,15.4324429605302
0.0109189328073699,15.4348824569797
0.0100768410648853,15.43738871219
0.00926763291943175,15.4399686904353
0.00849125201336075,15.4426336256194
0.00772715103119645,15.445475359567
0.00697924446280246,15.4485135895927
0.00625128183422135,15.4517722207619
0.00554721393327161,15.4552788159049
0.00487116242005958,15.4590652812458
0.00422735193073965,15.4631687517767
0.00361999757744734,15.4676328673344
0.00305312950712491,15.4725098628057
0.002530340548192,15.4778643751984
0.00205451614534838,15.4837800559085
0.00162773175423342,15.4903688471432
0.00126187732684147,15.4975477970722
0.000956941106757216,15.5053190730468
0.000706322170940151,15.5138109838615
0.000511893884184218,15.5231934745214
0.000396306357089986,15.5313029126132
0.000293464508673542,15.5413029126132
0.000221808624676296,15.5513029126132
0.000172013929022833,15.5613029126132
0.000137897397562322,15.5713029126132
0.000114961787026272,15.5813029126132
9.98912448595064e-05,15.5913029126132
9.03104764891142e-05,15.6013029126132
8.45732127753483e-05,15.6113029126132
8.15608432919318e-05,15.6213029126132
8.05172673492793e-05,15.6313029126132
8.09305379360758e-05,15.6413029126132
8.24545097281346e-05,15.6513029126132
8.48580956495804e-05,15.6613029126132
8.79917665571603e-05,15.6713029126132
9.17647625299749e-05,15.6813029126132
9.61293701748836e-05,15.6913029126132
0.000101070192336953,15.7013029126132
0.000106597082934222,15.7113029126132
0.000112740809589277,15.7213029126132
0.000119550776825886,15.7313029126132
0.000127094366548727,15.7413029126132
0.000135457642205501,15.7513029126132
0.000144747322824081,15.7613029126132
0.000155094074624146,15.7713029126132
0.000166657308799678,15.7813029126132
0.000179631835744873,15.7913029126132
0.000194256934649575,15.8013029126132
0.000210828688920212,15.8113029126132
0.000229716866819798,15.8213029126132
0.000251388281375906,15.8313029126132
0.000276439592865736,15.8413029126132
0.000305644180222884,15.8513029126132
0.00034002046974392,15.8613029126132
0.000380933832980131,15.8713029126132
0.000430252506731169,15.8813029126132
0.000488822999451961,15.8910334069467
0.000555287795193406,15.9000298841615
0.000630516547165328,15.9083306447149
0.000715645460997287,15.9159895914413
0.000811990222449936,15.9230573671279
0.000921048357349267,15.9295809282109
0.00104451746013633,15.935603831988
0.00118432016567002,15.9411665087984
0.00134263505063153,15.946306477096
0.00152193040684143,15.9510585459236
0.00172500483696006,15.9554550270092
0.00195503468473744,15.959525947558
0.00221563236360072,15.9632992338123
0.00251091272435932,15.9668008786286
0.00284558106225254,15.9700551291883
0.00322504197068519,15.973084687363
0.00365554087363565,15.9759109010694
0.004144354510823,15.9785539861989
0.00470005380081667,15.9810332998366
0.00533288117434956,15.9833676717807
0.00604993407225471,15.9855608441202
0.00684129566656015,15.9875801691048
0.00771677822791567,15.9894595868689
0.00869125041557968,15.9912332229604
0.00978781502738721,15.9929374102434
0.0110472275257619,15.9946189998742
0.0125945236885242,15.9963991677257
0.0148558070946286,15.9986263654142
0.0164897592048487,16.000060537061
0.0182258888876571,16.0014947087078
0.0198159377523545,16.0027774884929
0.0212308320313054,16.0039384328912
0.022500923439589,16.0050431147755
0.0236278666603361,16.0061345101049
0.0245947228902269,16.0072509173648
0.0253660316554851,16.0084413501334
0.0258711043462891,16.0097965414508
0.0259009038394869,16.0116176298283
0.025354155874323,16.0132237048559
0.0243696946591043,16.0148297798835
0.0232298612695686,16.0162461775989
0.0219433546620335,16.0176357530702
0.0205159801184025,16.0190635266056
0.018957350999771,16.0205687103889
0.0172732643150389,16.0221904515101
0.0159128991029857,16.0235565438329
0.0136866018762897,16.0260076720344
0.0120524454867375,16.0280283950226
0.0105904085210912,16.0300491180108
0.00949861315797121,16.0317273877386
0.00861194475493312,16.0332247014075
0.00782368195417865,16.0346802807563
0.00707994619761971,16.0361848667861
0.00633470743453827,16.0378499843194
0.00551006203689253,16.0399256224663
0.00461247411286935,16.0425573114464
0.00383692039181838,16.0452729909186
0.00323102826419673,16.0478096129334
0.00269440066796277,16.0505046382911
0.00218331027426456,16.0536709054284
0.00175595693083542,16.0570578204844
0.00141021286550974,16.0607009206384
0.00114648953022132,16.0646530612204
0.000971968996160567,16.0689825422404
0.000907359781370026,16.073488536849
0.000952580618156655,16.0774938478319
0.00108661321858846,16.0810981091782
0.00129887739077612,16.0843427235187
0.00158442097920437,16.0872742290973
0.00194260860518222,16.0899418243965
0.00237674307493998,16.0923949358588
0.0028946352295282,16.0946832689699
0.00351119407384605,16.0968616043895
0.004250864033376,16.098987941553
0.00516455479540996,16.1011539765191
0.00635370127174323,16.1034986178348
0.00800552418372789,16.1062143936469
0.0100167465904289,16.1089919697992
0.0115353113419298,16.1108126038198
0.0132494779197345,16.1126332378404
0.0150288958374346,16.1142936238066
0.0168875717454993,16.1158115931535
0.0189038492134418,16.117246592108
0.0211174868192891,16.1186126272469
0.0235723040023427,16.1199209060291
0.0263155323251094,16.1211797050501
0.029387140581705,16.1223908674264
0.0328362172444694,16.1235582613042
0.0367153512205274,16.1246847656168
0.0410781437251431,16.1257718734807
0.0459940469789829,16.1268233306287
0.0515392773996917,16.1278419628599
0.0578015824837488,16.1288305673964
0.0648881283210999,16.1297926505385
0.0729254398482106,16.1307316603253
0.0820662285247423,16.1316512713091
0.0924963740481019,16.1325554077988
0.104448259304662,16.1334485886382
0.118213663160087,16.1343358531314
0.134167266857293,16.1352231039322
0.152801558920127,16.1361175112811
0.174788877286826,16.1370284077859
0.200709617870149,16.137956076021
0.230712555057913,16.1388872511374
0.265561996445963,16.1398314916396
0.306320412522007,16.1408043211175
0.354792495440322,16.1418381254363
0.391343026476389,16.1425630069698
0.429012493234671,16.1432878885032
0.462495396291199,16.143936746237
0.491893629079105,16.1445348942252
0.517651221881193,16.1451120782772
0.539668201092116,16.1456917047183
0.557346751886326,16.1462990736427
0.569301550411334,16.1469734701508
0.572186100132536,16.1477284385507
0.563347749368369,16.1485069221322
0.541485473588221,16.1493298981784
0.504594856897086,16.1502153515615
0.453940634923796,16.1511154577404
0.38930373350104,16.1520380216876
0.341720311132413,16.1526306971595
0.290335924139853,16.1532233726314
0.24517307361436,16.1537220053382
0.206634203862663,16.1541424457937
0.172862029170437,16.154515120272
0.142669048515914,16.1548583934251
0.115334830364046,16.155183791994
0.0903567468531762,16.155499957715
0.0673105339586824,16.1558150629323
0.0457172209719749,16.1561397316367
0.0246902042171003,16.1564958806416
0.00751222171527634,16.1568301535784
-0.0017985326580024,16.1570345070409
-0.0102434368143675,16.1572388605034
-0.0168828175099132,16.1574156794501
-0.0229906271256622,16.1575942248542
-0.0291531528096033,16.157793921495
-0.0351126797093536,16.1580112526654
-0.0407038503020272,16.158244067663
-0.0458342735594964,16.1584915875038
-0.0504554943466749,16.1587539486925
-0.0545456535291641,16.1590319466734
-0.058099248362023,16.1593269126235
-0.061120862112315,16.1596406726473
-0.0637330888368716,16.1599949224722
-0.0656556951774766,16.1603521153516
-0.0670802899616967,16.1607365355311
-0.0680229970356731,16.1611528776923
-0.0684961126638709,16.1616066967321
-0.0685079575173372,16.1621050473079
-0.0680606461420004,16.1626570935279
-0.0671445225639173,16.1632764202529
-0.0657334916295198,16.1639811082465
-0.0637736946112251,16.1647985228431
-0.0611517353374173,16.1657763771021
-0.0575722929576988,16.1670249379435
-0.053394059213035,16.1684375367789
-0.0493332693147697,16.1698052784975
-0.0454444203682917,16.1711333078382
-0.0417552531061615,16.1724238004599
-0.0382806833168362,16.1736774730386
-0.0350282383077066,16.1748943106084
-0.0320004255510598,16.1760739526762
-0.0291959698556446,16.177215897109
-0.0266106092149282,16.178319605863
-0.0242377076182925,16.1793845556491
-0.0220687833828735,16.18041025589
-0.0200939860679118,16.1813962459476
-0.0183025299288537,16.1823420782482
-0.0166820394965459,16.1832478919888
-0.0151173668007847,16.1841766569578
-0.0136136770717964,16.1851294812392
-0.0121749712010892,16.1861083032505
-0.0108050823949625,16.1871153840311
-0.00950761817887888,16.1881533902362
-0.00828590805259405,16.189225496244
-0.00714294830119306,16.1903355201795
-0.00608134385186023,16.1914881089369
-0.0051032465547153,16.1926889961764
-0.00421028852542636,16.1939453727572
-0.00340350787818985,16.1952664375556
-0.00268326172906481,16.1966642521665
-0.00204911641865366,16.1981551395612
-0.00149969401973517,16.1997621349345
-0.00105780965794851,16.2014108582792
-0.000707006833241205,16.2031154896565
-0.00043186400237328,16.2048947651961
-0.00021798539163858,16.2067730136593
-5.1579373891817e-05,16.2087836117174
8.11172848913157e-05,16.2109756727657
0.000194838697070249,16.213428944755
0.000307661475788794,16.2162949323785
0.000450113173180929,16.2199677638829
0.000612159363793184,16.2237726289106
0.00081685918626978,16.2280498704567
0.00106465037780272,16.2327920003499
0.00130601380592296,16.2372126512025
0.00154327860766496,16.2415115221508
0.00178678671866249,16.24595166003
0.00205938247457721,16.250995111747
0.00232125559805279,16.2558991363213
0.00258378076340723,16.260849235277
0.00281976971553381,16.2652896552983
0.00303442947565273,16.2692977277845
0.00324213578398701,16.2731294289197
0.00344982290656043,16.2768990162705
0.00366193338416257,16.2806720177541
0.00388202557743615,16.2844943344072
0.00411338487858465,16.2884025846291
0.0043593236403112,16.2924286050674
0.00462341945744467,16.2966025334406
0.00490969940757027,16.3009544727996
0.00522285531817423,16.3055157671073
0.00556857103909732,16.3103202767082
0.00595405670745433,16.3154056360077
0.00636606554699398,16.3205355337099
0.00679769778282204,16.3255845863695
0.00725393921837332,16.3305741404257
0.00773740847023517,16.3354882602916
0.00825323614163923,16.3403316005116
0.00880719583353801,16.3451073090126
0.00940597034151334,16.3498192631633
0.0100569130751437,16.3544693937809
0.0107742061108112,16.359095509325
0.0115794755737393,16.3637551419037
0.012489255757706,16.3684472838782
0.0135278889787573,16.3731921660504
0.0147307227588214,16.3780315146769
0.0161590520972765,16.3830659939722
0.0179554101797951,16.3885848705499
0.0203713496262319,16.3950538086994
0.0219426180942007,16.3989145202005
0.0235547717939877,16.4027752317016
0.0249631803555943,16.4062247284668
0.0261509354631296,16.4093727271659
0.027133423938849,16.412395290623
0.0278661266671289,16.415289226674
0.0283327500942067,16.418101649296
0.0285231134967413,16.4209604053576
0.0283876021689144,16.4240572608932
0.0277267346802767,16.4279532411405
0.0268896487689516,16.4309440892136
0.0258192233043173,16.4339349372866
0.0247394330989958,16.4365405725835
0.023665307645182,16.4389219672156
0.022590753965641,16.4411873315848
0.0215166517997762,16.4433888414841
0.0204462691437039,16.445556279171
0.0193833172030647,16.4477093595986
0.0183314142069055,16.4498624670389
0.0172939407821512,16.4520268489184
0.0162740005118938,16.4542118033169
0.0152744212382501,16.4564253747921
0.0142977618006095,16.4586748105874
0.0133463230858719,16.4609668729956
0.0124221613495167,16.463308063426
0.0115270929200605,16.4657048167367
0.0106627056881722,16.468163649574
0.00983037103253422,16.4706912887138
0.00903124477623597,16.4732948256789
0.00825822285139174,16.4760112901896
0.00749864715311891,16.4789102267374
0.00675638183260583,16.4820125512019
0.00603523770747921,16.485343206153
0.00533922065156839,16.4889309989331
0.00467249269905024,16.4928093122582
0.00403929047894588,16.4970170877503
0.00344379495595926,16.5016002916753
0.00288993412276728,16.5066143958434
0.00238110894588139,16.5121289820302
0.00191995945552257,16.5182351907767
0.00150834113093953,16.5250555349019
0.0011619002796198,16.5324060462849
0.000874358875707552,16.5403835797744
0.000639188534067205,16.5491291007063
0.000506549881849163,16.5561391375906
0.000374158300806078,16.5657495986352
0.000278419640050954,16.5756901490728
0.000211166296014071,16.5856901490728
0.000164611335806404,16.5956901490728
0.000132874393481879,16.6056901490728
0.000111638424983963,16.6156901490728
9.77541090671921e-05,16.6256901490728
8.89962004854335e-05,16.6356901490728
8.38356530759713e-05,16.6456901490728
8.12357724207236e-05,16.6556901490728
8.04945921652191e-05,16.6656901490728
8.11358458004568e-05,16.6756901490728
8.28376347348403e-05,16.6856901490728
8.53859453388461e-05,16.6956901490728
8.86435607846069e-05,16.7056901490728
9.25287275977842e-05,16.7156901490728
9.70004308505465e-05,16.7256901490728
0.000102048408883901,16.7356901490728
0.00010768665505371,16.7456901490728
0.000113949510060519,16.7556901490728
0.000120889715538376,16.7656901490728
0.000128578022465961,16.7756901490728
0.00013710413339128,16.7856901490728
0.000146578912646409,16.7956901490728
0.000157137938156206,16.8056901490728
0.000168946611154155,16.8156901490728
0.0001822072082197,16.8256901490728
0.000197168480944127,16.8356901490728
0.000214138720664444,16.8456901490728
0.000233503668440336,16.8556901490728
0.000255751360809,16.8656901490728
0.000281507124441054,16.8756901490728
0.000311583755788313,16.8856901490728
0.000347054965411164,16.8956901490728
0.000389365401438129,16.9056901490728
0.000440499868960818,16.9156901490729
0.000500466898970228,16.9252828090952
0.000568469381554054,16.9341467856853
0.000645432201038333,16.9423252215472
0.000732524860986585,16.9498714722755
0.000831095573473714,16.9568354792484
0.000942677007626496,16.9632635496182
0.00106900618180531,16.9691986448427
0.00121205037413821,16.9746806441298
0.00137403910765894,16.9797465504832
0.00155749803879712,16.9844306964464
0.00176529194206587,16.9887649567374
0.00200067260432724,16.9927789589019
0.00226733978753131,16.9965002594036
0.00256951008565728,16.9999545145204
0.0029120084115157,17.0031656717145
0.00330038301544562,17.0061561685536
0.00374105317024484,17.0089471261996
0.00424151162281447,17.011558580116
0.00481060517760506,17.0140097627541
0.00545893883428993,17.0163194516216
0.00618898134203807,17.0184781098209
0.006994857854227,17.0204692376297
0.00788716906308872,17.0223267472036
0.00888191753038054,17.0240848035011
0.0100044463960053,17.0257808166966
0.011300869324745,17.0274653445875
0.0129293033404498,17.0292883518167
0.0154024684176252,17.0316543564744
0.0170069496461487,17.0330305903345
0.0186914443585333,17.0344068241946
0.0202255345207595,17.0356453063423
0.021598402010583,17.0367852491741
0.0228293957213088,17.0378824005201
0.0239141700101334,17.0389767605408
0.0248311422641365,17.0401079265245
0.0255378800176893,17.0413318050198
0.0259449180583308,17.0427653351974
0.025702092160594,17.044925948807
0.024996289788716,17.0464220649341
0.0239514486064692,17.0479181810613
0.0227561327272504,17.0493116776027
0.0214144634401581,17.050710479641
0.0199356288959448,17.052163620505
0.0183284571642762,17.0537084373331
0.0173066336410564,17.0546937104986
0.0163153656166552,17.055678983664
0.0140890666500139,17.0580772546268
0.0122922515070677,17.0602534289622
0.0110182051767668,17.061969342215
0.0098625324060562,17.0636852554678
0.00892133487146783,17.0652226147565
0.00810477042712808,17.0666820328478
0.00734986668932075,17.0681581841107
0.00661121922763391,17.0697473078741
0.00583043471116309,17.071621788761
0.00489334158571008,17.0742195676056
0.00407216367888057,17.076931358245
0.00343055287638205,17.0794602405663
0.00287924563987696,17.0820531155336
0.00236166373136202,17.0850165037331
0.00190401704851738,17.0883167352649
0.00152836490636328,17.0918597601121
0.0012339951487046,17.0956908610023
0.00102509341085242,17.0998719394943
0.000916057027779727,17.1044844550647
0.000925460748728719,17.1086477690094
0.00102940512975327,17.1123915213079
0.00121454328319207,17.1157587582027
0.00147408675442759,17.1187951932938
0.00180613660500815,17.1215513670474
0.00221248934007381,17.1240754479974
0.00269911134475145,17.1264164228803
0.00327802198660352,17.128627162193
0.00396928062473664,17.1307628415114
0.00481358992595038,17.1329045530932
0.00588778950040651,17.1351651434862
0.00735998978637603,17.137746305909
0.00924268347945723,17.1405135606261
0.0107752212660595,17.1424630199572
0.0125107896861519,17.1444124792883
0.0142794516448744,17.1461562677031
0.0160938639382203,17.1477237427886
0.0180369474515258,17.1491896495343
0.020162948356925,17.1505832234454
0.0225092599065787,17.1519135677365
0.02512846916357,17.1531937112943
0.0280550215547126,17.1544236618854
0.0313411458639144,17.1556095898751
0.0350322479150027,17.1567526290317
0.0391841785858733,17.1578557982323
0.0438605098573995,17.1589221269177
0.0491310741228155,17.159954044678
0.0550804254177612,17.1609548059485
0.0618075807562772,17.1619276767063
0.0694296224108518,17.1628759895003
0.0780863783925569,17.1638032059446
0.0879502279774085,17.1647133087656
0.0992324301317342,17.1656105337949
0.112197258134246,17.1664996407615
0.127180411412653,17.167386084913
0.144620363338446,17.1682764942766
0.165104197762022,17.1691791542335
0.189456481105878,17.17010534527
0.217678322422348,17.1710341100714
0.250402229868936,17.171971483186
0.288540665835399,17.1729298587051
0.333490055846549,17.1739322167296
0.371986729699338,17.1747188573749
0.41243156534446,17.1755054980202
0.448188441490458,17.1761928029557
0.479319097962626,17.1768093485602
0.50667430312418,17.1773927573752
0.530392479455267,17.1779684860674
0.550105980327116,17.1785599369741
0.564851333765424,17.1791979490423
0.572343055418362,17.1799428794552
0.568585452778983,17.1807087821041
0.552438244400764,17.1815105224245
0.522196246826525,17.1823676176083
0.477839237814129,17.1832543069854
0.418582418041244,17.1841770704823
0.367728630756134,17.1848490692711
0.311342842624175,17.1855210680599
0.262308264560127,17.1860698717531
0.221292033923158,17.1865180331199
0.185799200533562,17.1869069838644
0.154288781510992,17.1872602975044
0.125887257515688,17.1875916635661
0.100025724748001,17.1879105418072
0.0762625423138845,17.1882250223769
0.054161423658863,17.1885442526115
0.0330802874580902,17.1888835650577
0.0110814900702532,17.1892921854313
-0.000294500528340714,17.1895357176938
-0.00784664386609919,17.1897143145652
-0.0147586792314736,17.1898929114366
-0.0207852300775952,17.1900633424946
-0.0269597217058496,17.1902558445049
-0.0330158349960205,17.1904672003875
-0.0387524725852427,17.1906946230519
-0.0440551630015409,17.1909369051548
-0.0488622261557252,17.1911938942373
-0.0531437461291303,17.1914661696288
-0.0568892463169955,17.1917548790252
-0.060100254921129,17.1920616722499
-0.0627794022916626,17.1923886986693
-0.0649549853167253,17.1927433335455
-0.0665746806702905,17.1931164830714
-0.0677064804574459,17.1935195963948
-0.0683641932355339,17.1939578338424
-0.068557944073341,17.1944375986198
-0.0682926215318218,17.1949671275401
-0.0675640493869107,17.1955579971845
-0.0663533068593272,17.196226303014
-0.0646197231102416,17.1969949400777
-0.0622798551261209,17.1979013624612
-0.0591403677520502,17.1990207463438
-0.0549351058604863,17.2004550094422
-0.0508219101998679,17.20183847729
-0.0468649353029743,17.2031808248136
-0.0430993764955146,17.204485070368
-0.0395439631386218,17.205752354761
-0.0362085734156679,17.206982871733
-0.033097387596857,17.2081763555869
-0.0302104220429991,17.2093323390242
-0.0275444426880218,17.2104502882568
-0.0250936279549704,17.2115296704725
-0.0228501221849217,17.2125699820023
-0.0208045294363258,17.2135707521791
-0.0189463628335771,17.2145315311006
-0.0172644505380552,17.2154518658588
-0.015678988396691,17.2163721160748
-0.014152669444744,17.217315989033
-0.0126898985801563,17.2182851212948
-0.0112945757638491,17.2192816485543
-0.00997039639392427,17.2203080797006
-0.00872079719385401,17.2213673909356
-0.00754890205805002,17.2224631480609
-0.0064574650228132,17.2235996714915
-0.00544880995078254,17.2247822641825
-0.00452476589171854,17.226017535237
-0.0036865960161134,17.2273138746526
-0.00293491606605584,17.2286821779132
-0.00226959450221502,17.2301370073433
-0.00168961848257016,17.2316985728693
-0.00120956845957929,17.2333316668638
-0.00082698557346138,17.2350136558222
-0.000525613009685683,17.2367628727324
-0.000290728913552425,17.2386012474272
-0.00010837381787989,17.2405582662087
3.51414253348167e-05,17.2426761046144
0.00015402561362639,17.2450204967319
0.000264657546766374,17.2477080758007
0.000390710641127134,17.2510003529611
0.000543236836175188,17.2547458066026
0.00072849997401957,17.258795565931
0.000969789547704517,17.2635481374693
0.001213958452107,17.268073624475
0.00145187604514386,17.2723905917955
0.00169130771663205,17.2767399356926
0.00194816963389496,17.2814627338035
0.00221346560027982,17.2864095080946
0.0024736175282165,17.2913054827605
0.00272815249839239,17.2961049787311
0.00294910150036386,17.300245105023
0.00315854326046306,17.3041295926012
0.00336562101747838,17.3079146480631
0.00357548732852852,17.3116799800901
0.00379195254660407,17.3154775627432
0.00401836878822684,17.3193470714312
0.00425800735384154,17.3233218501613
0.00451431416873474,17.3274324484627
0.00479111212495739,17.3317088182851
0.00509279357972035,17.3361816555569
0.00542459127016116,17.3408836418008
0.00579301826369325,17.3458507749103
0.00620010875566423,17.3510424602049
0.00662167123116694,17.3561003790022
0.00706836002535423,17.3611224541063
0.00754020133462569,17.3660645236448
0.00804247065466743,17.370936302212
0.00858038771630882,17.3757384375483
0.00916037643672744,17.3804756109766
0.00978949968559013,17.3851503605456
0.0104755574197492,17.3897637234608
0.0112441347926724,17.394413294201
0.0121092725954306,17.3990901789359
0.0130926458670197,17.4038106635153
0.0142240329083451,17.4086044566196
0.0155513386037086,17.4135415503514
0.0171711114332595,17.4188042544195
0.0193983321081169,17.4250840474287
0.0211021848533292,17.4294070153855
0.0228942574530605,17.4337299833424
0.0244194464855134,17.4374071583693
0.0256941888889445,17.4406552658825
0.0267601758126823,17.4437112385834
0.0276025306385441,17.4466723740073
0.0281765862880738,17.4495039152792
0.0284815289062469,17.4523265743196
0.0284879910551849,17.4552946910653
0.0280896029397189,17.4587314694898
0.0273043706030523,17.462113291983
0.0261909078047392,17.4654951144763
0.0250945088794417,17.4682498884778
0.0240184500622431,17.4706915098894
0.0229440888426114,17.472987640362
0.0218695215028353,17.4752061177309
0.0207975058107493,17.4773822042715
0.0197316975547778,17.4795382017021
0.0186757721534099,17.4816899248919
0.0176331948644971,17.4838494883713
0.0166071615053213,17.4860267359806
0.0156005905040298,17.4882300634791
0.0146161269192276,17.4904669424214
0.013656156599562,17.4927442625344
0.0127228138171253,17.4950685919119
0.0118179920552706,17.4974463711028
0.0109433564020836,17.4998840657405
0.0101003454612026,17.5023883270421
0.00929018642849064,17.5049661076535
0.00851349997602725,17.5076262287141
0.00774898364803064,17.510462621192
0.00700055672222328,17.5134948692199
0.00627196263456486,17.5167467825369
0.00556714701654816,17.5202458077824
0.00489022722395603,17.5240237156831
0.00424542615613259,17.5281174760239
0.00363696123748849,17.5325705184964
0.00306887140843711,17.5374347866719
0.00254476629390397,17.5427744813047
0.00206755434001075,17.5486725865311
0.00163933290031111,17.5552400890452
0.00127160996873899,17.5624033665143
0.000964999108958197,17.570155818861
0.000712892075868956,17.5786246311914
0.000516858085714286,17.5879783799401
0.000397517904881529,17.5962765245392
0.00029430438605995,17.6062765245392
0.000222395539286593,17.6162765245392
0.000172420204530853,17.6262765245392
0.000138173687071375,17.6362765245392
0.000115145783578224,17.6462765245392
0.000100010612292595,17.6562765245392
9.03847600148409e-05,17.6662765245392
8.46158019005307e-05,17.6762765245392
8.15807855076597e-05,17.6862765245392
8.05206733285087e-05,17.6962765245392
8.09215446706011e-05,17.7062765245392
8.24359039689562e-05,17.7162765245392
8.4831717513682e-05,17.7262765245392
8.79587791476777e-05,17.7362765245392
9.17258371892593e-05,17.7462765245392
9.60848142973791e-05,17.7562765245392
0.000101020035574971,17.7662765245392
0.000106541132498976,17.7762765245392
0.000112678682381256,17.7862765245392
0.000119481913809708,17.7962765245392
0.000127018032787326,17.8062765245392
0.000135372914268455,17.8162765245392
0.000144653063829961,17.8262765245392
0.00015498889582758,17.8362765245392
0.000166539515200501,17.8462765245392
0.000179499351452128,17.8562765245392
0.000194107201386735,17.8662765245392
0.00021065852769094,17.8762765245393
0.00022952228770855,17.8862765245393
0.000251164218648211,17.8962765245393
0.000276179530100098,17.9062765245393
0.000305339609869201,17.9162765245393
0.000339660097290266,17.9262765245393
0.000380502376581984,17.9362765245393
0.000429728836777927,17.9462765245393
0.000488227975606545,17.9560142129547
0.000554614196108702,17.9650176059568
0.000629754352599959,17.973324751223
0.000714782939452692,17.9809895801867
0.000811013976702293,17.9880627722945
0.000919943196028272,17.9945913179241
0.00104326617829947,18.0006188055026
0.00118290327896364,18.0061856941187
0.00134103047121403,18.0113295291332
0.0015201131189114,18.0160851444753
0.00172294644591832,18.0204848747152
0.00195270295266769,18.0245587679375
0.00221299059350574,18.0283347697007
0.0025079190470262,18.0318388904753
0.00284218752309767,18.0350953931676
0.00322119331732031,18.0381269935172
0.00365117304810519,18.0409550514037
0.00413939253132107,18.0435997923375
0.00469440877283831,18.0460805801801
0.00532644599396142,18.0484162478926
0.00604283666984041,18.0506112356951
0.00683345999551216,18.052632047747
0.00770808918055933,18.0545126269369
0.00868153786525642,18.0562871004507
0.00977680171009,18.0579917530452
0.0110343858287946,18.0596732662542
0.0125777890304979,18.0614514579628
0.0148266051801641,18.0636698779955
0.016461694694016,18.0651069692232
0.0182001453417207,18.0665440604509
0.0197934055239437,18.0678295031296
0.0212106354702978,18.0689917248888
0.022482834750319,18.070096904144
0.0236120141025924,18.0711882231208
0.0245814836507375,18.0723039416997
0.0253561240610173,18.0734927651239
0.0258660824826213,18.074844299978
0.0259072258806708,18.0766518653586
0.0253692591794553,18.0782626767935
0.0243888414477726,18.0798734882284
0.0232517540320344,18.0812912756926
0.0219678999417258,18.0826805940206
0.0205429940135018,18.0841073016178
0.0189866775517797,18.0856107537881
0.0173048614332828,18.0872299757236
0.0158701552249206,18.0886711831592
0.0136480570967574,18.0911231750761
0.0120277721791532,18.0931309251226
0.0105772371481126,18.0951386751691
0.00948906110842174,18.0968130800465
0.00860376593116376,18.0983094127555
0.00781616832408412,18.0997650501745
0.00707265419360224,18.1012705887141
0.00632712464570152,18.1029381091182
0.00550092478828319,18.1050204928919
0.00460446056632462,18.1076532258314
0.00383192540699752,18.1103624310831
0.00322719597682597,18.1128973820021
0.00269092100592476,18.1155941205819
0.00218037261585435,18.1187616193043
0.00175353613115758,18.1221499903233
0.00140829751969017,18.1257948400928
0.00114509897325736,18.1297491030196
0.000971179782643857,18.1340811936485
0.000907321773755629,18.1385838191789
0.000953114489967234,18.1425866583726
0.0010876339726266,18.1461886451134
0.0013003369151493,18.149431207772
0.00158630640380959,18.152361008538
0.00194492697958981,18.1550271878321
0.00237953059526414,18.1574792007981
0.00289793824095744,18.1597666649345
0.00351505751343345,18.161944267314
0.00425554108373532,18.1640705122261
0.00517047543241318,18.1662371550381
0.00636171362281087,18.1685834508776
0.00801548918467706,18.1712997516298
0.0100285508373669,18.1740773096211
0.0115470988138227,18.1758962864725
0.0132612078700922,18.177715263324
0.015040813407814,18.1793743727481
0.0169001650312445,18.1808915459997
0.0189176820993918,18.1823261084541
0.0211327331373494,18.1836917165245
0.0235893478555926,18.1849996775723
0.0263345772248126,18.1862581450545
0.0294085809297171,18.187469036601
0.0328602897711515,18.1886361427798
0.0367424118180563,18.1897623772398
0.0411086192807813,18.1908492404245
0.0460283914009124,18.191900468764
0.0515780343741538,18.1929188925709
0.057845414596844,18.1939073137551
0.0649377779369856,18.1948692328085
0.0729818192944992,18.195808102027
0.0821304491491254,18.1967275980648
0.0925698007556574,18.1976316474549
0.104532596593179,18.1985247722548
0.118311077271403,18.1994120164785
0.134280569663072,18.2002992896496
0.152934529798065,18.2011937738052
0.174946735873957,18.2021048179201
0.200892125825441,18.2030324852892
0.230924097265064,18.2039637115473
0.265808345211489,18.2049080801291
0.306610150170295,18.2058811752066
0.35514245100074,18.2069155736377
0.391662347594466,18.2076395454556
0.429288414164087,18.2083635172735
0.462735457562408,18.2090118191786
0.492104736946301,18.2096097056153
0.517834574816955,18.2101868227162
0.539821191514204,18.2107665584031
0.557462458101167,18.211374262613
0.569364110080511,18.2120494136704
0.572164226961185,18.2128044775194
0.563234183337201,18.2135832188572
0.541267869048242,18.2144066003963
0.504255682220078,18.2152925769001
0.453484887352698,18.2161929790289
0.388773766599693,18.2171152686987
0.341247695027159,18.2177066629327
0.289947309160193,18.2182980571668
0.24485113275248,18.2187958513553
0.20635636827555,18.2192158141482
0.172615702313251,18.2195882024603
0.142447230695859,18.2199312986693
0.115133015147647,18.2202565946732
0.090171495217098,18.2205727200291
0.0671385629996194,18.2208878525506
0.0455540384321032,18.2212126543713
0.0245246085882422,18.2215692201094
0.00745829874456215,18.2219016150609
-0.00183115707310966,18.2221055904541
-0.0102580969318183,18.2223095658473
-0.0168948116253305,18.2224863461193
-0.0230030709013206,18.2226649390046
-0.029165422827319,18.2228646747142
-0.0351243410065834,18.2230820387851
-0.0407146553019664,18.2233148839239
-0.0458440879142641,18.2235624333798
-0.0504642516803427,18.2238248251872
-0.0545533290095075,18.2241028559604
-0.0581058428272134,18.2243978578933
-0.0611263921037723,18.2247116580883
-0.0637388709251709,18.225066174999
-0.0656601403887344,18.2254234391992
-0.0670834234346939,18.2258079387516
-0.0680248553173526,18.2262243735184
-0.0684967242820902,18.2266783018642
-0.0685073376607455,18.227176783165
-0.068058789584739,18.2277289882988
-0.0671413831017018,18.2283485168174
-0.0657289699446558,18.2290534647121
-0.063767588932477,18.2298712321097
-0.0611435982702013,18.2308496163129
-0.0575607410025365,18.2320992064687
-0.0533827388203524,18.233511661299
-0.0493223627540017,18.2348792893212
-0.0454340299830849,18.236207213998
-0.0417454334685398,18.2374976054335
-0.0382714635873943,18.238751177527
-0.0350196314802484,18.2399679139592
-0.0319924328906316,18.2411474536351
-0.0291885834924865,18.2422892942144
-0.0266038139994214,18.243392897645
-0.024231482658403,18.2444577407156
-0.0220631034077821,18.245483332943
-0.0200888226740938,18.2464692137536
-0.018297852706345,18.2474149355767
-0.0166775139731146,18.2483208121482
-0.0151130079800846,18.2492496427095
-0.0136094964817588,18.2502025376661
-0.0121709799655911,18.2511814362545
-0.0108012910706392,18.2521886005417
-0.00950403661124101,18.2532266984617
-0.00828254522385778,18.2542989060032
-0.0071398121701479,18.2554090433467
-0.00607844118475666,18.2565617600551
-0.00510058274469247,18.2577627933224
-0.00420786739505964,18.2590193388043
-0.00340133145473172,18.2603406020849
-0.00268132997269228,18.2617386545012
-0.00204742686434458,18.2632298338741
-0.0014982412466374,18.2648371995339
-0.00105664801833224,18.2664860544299
-0.000706087232480458,18.2681908738461
-0.000431143303320866,18.2699703986957
-0.000217422825140398,18.2718489782599
-5.11352058653798e-05,18.2738600230141
8.14838412886124e-05,18.2760527077466
0.000195173582157806,18.2785069080102
0.000308027210942118,18.2813744624993
0.000450646144739122,18.2850509264763
0.000612785779251847,18.2888564788682
0.000817663867919789,18.2931358938761
0.00106543119618911,18.2978765688039
0.0013067687015208,18.3022964191745
0.00154403351012709,18.3065952906551
0.00178758708292468,18.3110364190572
0.00206035254308223,18.316083282747
0.00232221131896296,18.3209871941503
0.00258477200227343,18.3259380106495
0.00282062851019921,18.330375827284
0.003035240638798,18.3343828522828
0.00324293589353778,18.3382141359745
0.00345063248936439,18.3419836272138
0.00366276747379732,18.3457567406959
0.00388289727502441,18.3495793269474
0.00411430688861957,18.3534879784883
0.00436030927044657,18.3575145201909
0.00462448341600585,18.3616890869421
0.00491085853185398,18.366041784293
0.00522412957772428,18.3706039635818
0.00556998514766221,18.3754094976534
0.00595564273302312,18.38049603738
0.00636769914255656,18.3856253129545
0.00679943044810521,18.390674257873
0.00725576732444007,18.3956634902548
0.00773935316425247,18.4005773361727
0.00825531724047423,18.4054204024389
0.00880943822495098,18.410195856681
0.00940840130890493,18.4149075670707
0.0100595627604284,18.419557458552
0.0107771736340967,18.4241837237321
0.0115828125660715,18.4288434567739
0.0124930444869459,18.4335357601857
0.0135322402493137,18.43828090758
0.0147358105319492,18.4431207644935
0.0161652097975465,18.4481563624406
0.0179635742107452,18.4536783718244
0.0203795782821561,18.460144600506
0.0219502043397464,18.4640028504744
0.0235613575567541,18.4678611004428
0.024968707937808,18.4713087415981
0.0261555735674485,18.4744558690511
0.0271371720497128,18.4774781995521
0.027868716255155,18.480371537249
0.0283341849396402,18.4831838665185
0.0285232874429394,18.4860431551987
0.0283861423282473,18.4891417187381
0.0277217127972076,18.4930446354813
0.0268840017366088,18.4960316813781
0.0258138547742577,18.4990187272748
0.0247341918684627,18.5016226598618
0.0236600777249789,18.5040032802253
0.0225855212010958,18.5062682329732
0.0215114285988474,18.5084695157174
0.0204410731912544,18.5106368411307
0.0193781665267427,18.5127898898272
0.0183263258796474,18.5149430266763
0.0172889305810046,18.5171074872608
0.0162690828580411,18.5192925621315
0.0152696092135977,18.5215062910263
0.0142930672229989,18.523755918114
0.0133417565395378,18.5260482039506
0.0124177322374135,18.5283896491875
0.0115228095228691,18.5307866886959
0.0106585751791281,18.533245839913
0.0098263995498938,18.5357738309714
0.00902743744012487,18.5383777554726
0.00825447212663031,18.5410950659481
0.007494972067774,18.5439949419632
0.00675280057872173,18.5470983195597
0.00603176942955826,18.550430158556
0.00533588536853774,18.5540192868562
0.00466931102551423,18.5578991117166
0.00403628312613765,18.5621086049901
0.00344098192750249,18.5666937723504
0.00288733360999746,18.5717101407325
0.00237873583087711,18.5772273772551
0.00191782460257366,18.5833367509004
0.00150645205309894,18.5901609526204
0.00116032118479959,18.5975143396476
0.000873057451604147,18.6054953336265
0.00068035402972769,18.6124662364379
0.000536831070972204,18.6194371392493
0.000396097668890063,18.6289521163606
0.000293236797498453,18.6389521163606
0.000221587983474953,18.6489521163606
0.000171840073425375,18.6589521163606
0.00013777941760162,18.6689521163606
0.000114888479570143,18.6789521163607
9.98474873283893e-05,18.6889521163607
9.02850178408536e-05,18.6989521163607
8.45594841907278e-05,18.7089521163607
8.15553226752092e-05,18.7189521163607
8.05179353587422e-05,18.7289521163607
8.09360565195415e-05,18.7389521163607
8.24639164862129e-05,18.7489521163607
8.48707127318403e-05,18.7589521163607
8.80071567447086e-05,18.7689521163607
9.17826837749541e-05,18.7789521163607
9.61497303358743e-05,18.7889521163607
0.000101093013185925,18.7989521163607
0.000106622476722518,18.8089521163607
0.000112768966632247,18.8189521163607
0.000119581961281795,18.8289521163607
0.000127128918293189,18.8389521163607
0.000135495983855283,18.8489521163607
0.000144789971888836,18.8589521163607
0.000155141661439796,18.8689521163607
0.000166710601509639,18.8789521163607
0.000179691774333858,18.8889521163607
0.000194324677063323,18.8989521163607
0.00021090567381327,18.9089521163607
0.000229804899752234,18.9189521163607
0.000251489654814915,18.9289521163607
0.000276557255979963,18.9389521163607
0.000305781983673046,18.9489521163607
0.000340183526181846,18.9589521163607
0.000381129060868466,18.9689521163607
0.000430489473342271,18.9789521163607
0.000489092270139147,18.9886793642248
0.000555592642979173,18.9976727203968
0.000630861512079452,19.0059705994319
0.00071603585786241,19.0136268912915
0.000812432120778713,19.0206922222482
0.000921548639850459,19.0272135334466
0.00104508392214424,19.0332343681573
0.00118496163566204,19.0387951437625
0.00134336153705337,19.0439333665891
0.00152275324529849,19.0486838344627
0.00172593689455507,19.0530788488163
0.00195609057092254,19.0571484274441
0.00221682870909932,19.0609204878815
0.00251226850519073,19.0644210150474
0.00284711801371424,19.0676742490388
0.00322678513757465,19.0707028854811
0.00365751929507724,19.073528266907
0.00414660218185681,19.0761706048866
0.00470261103005997,19.0786492534711
0.00533579653681462,19.0809830410666
0.00605314957238788,19.083175393997
0.00684484585809745,19.0851940481529
0.00772071542592184,19.0870729425128
0.00869565199666665,19.0888462020626
0.00979280722266699,19.0905501817873
0.0110530509126869,19.0922318105274
0.0126021205443,19.0940128835855
0.0148691364429951,19.0962441287432
0.0165025391520922,19.0976769504146
0.0182375769875776,19.0991097720859
0.0198261671970981,19.1003913489348
0.02123999851154,19.1015517176037
0.0225091282931506,19.1026561770022
0.0236350502353508,19.1037476108024
0.024600712168107,19.1048643361477
0.0253704972024028,19.1060555090318
0.0258733310286663,19.1074123837748
0.0258978755048589,19.1092397717517
0.0253470967765033,19.1108437188017
0.0243607530657285,19.1124476658517
0.0232196383964429,19.1138634412501
0.0219318993408275,19.1152531440916
0.0205033788941158,19.1166814180437
0.0189436762488302,19.1181874116454
0.0172585348959088,19.119810330083
0.0159278903181704,19.1211465376699
0.0136996426857314,19.1235979262744
0.0120607216194114,19.125623120934
0.0105947391087144,19.1276483155936
0.00950172640465934,19.1293278987088
0.00861460376762582,19.1308255436015
0.0078261232191926,19.1322811070065
0.00708231702256142,19.1337853805816
0.00633717749711909,19.1354497067755
0.00551304749283428,19.1375231268975
0.00461509219410863,19.1401544754498
0.00383853266369711,19.1428723396416
0.00323225571544849,19.1454095413557
0.00269551443827877,19.1481040192429
0.00218424962231793,19.1512698926062
0.00175672980650196,19.1546563421126
0.00141082278029424,19.1582988828037
0.00114693008206659,19.1622503447346
0.000972215339478664,19.1665789913113
0.000907363064864422,19.1710860810994
0.000952398693490244,19.1750921928346
0.00108627339500548,19.1786971915031
0.00129839548217335,19.1819424758601
0.00158380052424153,19.184874531305
0.00194184741124979,19.1875425852117
0.00237582893269323,19.1899960503807
0.00289355566504783,19.19228467429
0.00350993638941127,19.1944632595224
0.00424934598112628,19.1965896342387
0.00516263822314436,19.1987554801309
0.00635111468602725,19.2010995969612
0.00800230962601052,19.2038152073202
0.0100129389760437,19.2065927910576
0.0115315060474387,19.2084139574411
0.0132456877173982,19.2102351238246
0.0150250422042532,19.211895919989
0.0168835014969921,19.2134141478451
0.0188993766287125,19.2148492860394
0.0211125588445027,19.2162154593541
0.023566796057642,19.2175238404358
0.0263093798021472,19.2187827466081
0.0293802160482339,19.2199939963151
0.0328284450902139,19.2211614831536
0.0367066169327635,19.2222880746487
0.0410683101742716,19.2233752616204
0.0459829678910549,19.2244267926979
0.0515267778044053,19.2254454922846
0.0577874492812298,19.2264341561164
0.0648721225402253,19.2273962923362
0.0729072679578481,19.2283353476338
0.0820455325762906,19.229254995848
0.0924727154072331,19.2301591606599
0.104421089890171,19.2310523598481
0.118182286609833,19.2319396312112
0.134130779605131,19.2328268752084
0.15275874720393,19.2337212583157
0.174738065560523,19.2346321079073
0.200650876611259,19.2355597768271
0.230644474927157,19.2364909359728
0.265482723399943,19.23743513588
0.306227193006447,19.2384078807727
0.354679940509113,19.2394414955073
0.391240308504875,19.2401666703574
0.42892371627714,19.2408918452075
0.462418133170958,19.2415408823466
0.49182564996218,19.2421391149825
0.517592134955413,19.2427163211245
0.53961883687943,19.2432959131153
0.557309321961362,19.2439031751808
0.569281120970922,19.2445773307945
0.572192718625104,19.2453322691353
0.563383738753341,19.2461106705634
0.541554786442149,19.2469335169963
0.50470311135056,19.2478188028982
0.454086191132664,19.2487188151471
0.38947327921033,19.2496414646449
0.341871506332383,19.2502345513
0.290460207289183,19.2508276379551
0.245276006071159,19.2513265395918
0.206723023976331,19.2517471331633
0.172940774161546,19.2521198993521
0.142739959537755,19.252463229227
0.115399348991402,19.2527886607132
0.0904159722573199,19.2531048394665
0.067365514188178,19.2534199361153
0.0457693873474281,19.2537445625465
0.0247431125578589,19.2541005792594
0.00752919371428919,19.2544354570628
-0.00178825325382253,19.2546399292844
-0.010238801559994,19.254844401506
-0.0168790222520705,19.2550212326781
-0.0229866888035554,19.2551997631279
-0.02914926820655,19.2553994474742
-0.0351089861261125,19.2556167683002
-0.0407004259076873,19.2558495738268
-0.0458311607958528,19.2560970843652
-0.0504527142094125,19.2563594359369
-0.0545432139062142,19.2566374236175
-0.0580971490407931,19.2569323782632
-0.0611190979234353,19.2572461256641
-0.0637312534796897,19.2576002928142
-0.065654278688443,19.2579574633892
-0.0670792844090014,19.2583418587284
-0.0680223909828067,19.2587581719024
-0.0684958971834327,19.2592119567214
-0.0685081278590306,19.2597102663633
-0.068061203951631,19.260262262814
-0.0671454823269223,19.2608815263298
-0.0657348844808814,19.2615861329012
-0.0637755837935938,19.2624034369599
-0.0611542610337342,19.2633811251792
-0.057575888230391,19.2646293636708
-0.0533975821568161,19.2660420076214
-0.0493366629051826,19.2674097849129
-0.0454476525804112,19.2687378469843
-0.041758306885345,19.270028371239
-0.0382835495638405,19.2712820752249
-0.0350309129793932,19.2724989444018
-0.032002908269421,19.2736786184662
-0.0291982630956916,19.2748205953508
-0.0266127177245053,19.2759243370148
-0.0242396379375804,19.2769893201453
-0.0220705434184353,19.2780150541357
-0.0200955847034978,19.2790010783277
-0.018303976673671,19.2799469451471
-0.0166834388805081,19.2808527392573
-0.0151187141434888,19.2817814837335
-0.0136149687791716,19.282734285934
-0.0121762038053225,19.2837130840209
-0.0108062526055234,19.2847201387122
-0.00950872292751236,19.2857581162638
-0.00828694454091931,19.2868301905511
-0.00714391405079928,19.2879401790568
-0.00608223675724589,19.2890927278418
-0.00510406493981778,19.2902935694625
-0.00421103120547288,19.2915498932804
-0.00340417423013742,19.2928708960769
-0.00268385177679666,19.2942686364051
-0.0020496309452908,19.2957594325998
-0.00150013473404649,19.2973663123213
-0.00105815956822075,19.2990149945922
-0.000707281291129758,19.3007195672508
-0.000432076497555903,19.3024987649377
-0.000218148675144985,19.3043769100083
-5.1705875135247e-05,19.3063873685833
8.1014805003732e-05,19.3085792348999
0.000194745864176687,19.3110322171034
0.00030755873370186,19.3138977157568
0.000449957936266049,19.3175694148711
0.000611974611652591,19.3213740659222
0.000816618429457761,19.3256506298881
0.00106441512157727,19.3303931856876
0.00130578549112866,19.3348140725771
0.0015430500178384,19.3391129439181
0.00178654469694444,19.3435527910883
0.00205909063667176,19.348595241376
0.00232096801555317,19.3534993001874
0.00258348271184525,19.3584491889809
0.00281951059425234,19.3628903765095
0.00303418424200261,19.3668987576287
0.00324189363798934,19.37073058184
0.00344957778083157,19.374500197712
0.00366168082840911,19.3782731665127
0.00388176170754311,19.3820954041512
0.00411310592274993,19.3860035366487
0.00435902564320234,19.3900294041257
0.00462309804334482,19.3942031451415
0.00490934956376003,19.3985548620212
0.00522247109688084,19.4031158965721
0.0055681450795939,19.4079201054799
0.00595357946313283,19.4130051183267
0.00636557361903638,19.4181352015575
0.00679717588476823,19.4231842877296
0.00725338833365668,19.4281739384349
0.0077368222580247,19.433088140781
0.00825260864592873,19.4379315634708
0.00880651958574422,19.4427073486249
0.0094052371477868,19.4474193763503
0.0100561138761965,19.4520695792109
0.0107733110351321,19.4566956496953
0.0115784690758649,19.4613552520914
0.012488113050431,19.4660473455097
0.0135265766787271,19.4707921478767
0.0147291884668028,19.4756313435248
0.0161571954422844,19.4806654861845
0.0179529496693887,19.4861834208133
0.0203688694816545,19.4926531763222
0.0219403310780243,19.4965146293863
0.0235527858600454,19.5003760824504
0.0249615135767374,19.5038261395545
0.0261495368114155,19.5069744014604
0.0271322934522118,19.5099970355975
0.0278653453073992,19.5128911524245
0.0283323166407734,19.5157036036455
0.0285230598027747,19.5185621998807
0.0283880401933044,19.5216585423799
0.0277282415085122,19.5255524446129
0.0268913436257618,19.5285444393872
0.025820833608292,19.5315364341614
0.0247410048428692,19.5341425820265
0.023666875938504,19.5365242094109
0.0225923231172527,19.5387896974619
0.0215182180992912,19.5409912756258
0.0204478272884796,19.5431587470832
0.0193848617853335,19.5453118371057
0.0183329401045658,19.5474649357944
0.0172954432614789,19.5496292941329
0.0162754752457042,19.5518142124629
0.0152758643009364,19.5540277367902
0.014299169645576,19.5562771152826
0.0133476925364662,19.5585691107559
0.0124234895832013,19.5609102248491
0.0115283774508391,19.5633068924187
0.0106639443621755,19.5657656298764
0.00983156200614644,19.5682931635946
0.00903238651123872,19.5708965844762
0.00825934762597476,19.5736127953968
0.0074997492695138,19.5765114503291
0.00675745583717417,19.5796134591087
0.00603627785820343,19.5829437591364
0.00534022094410599,19.586531151592
0.00467344695020372,19.5904090118367
0.00404019247601935,19.5946162724339
0.00344463869761875,19.5991988878437
0.00289071415038233,19.6042123133625
0.00238182079220896,19.6097261052056
0.00192059985809973,19.6158313654397
0.00150890783388853,19.6226505535006
0.00116237399810427,19.6300002032423
0.000874749300772093,19.6379766998682
0.000639505024892074,19.6467209434947
0.000506580210432704,19.6537428067149
0.000374280237660537,19.6633447221965
0.00027845840441815,19.6732907798677
0.000211194071575115,19.6832907798677
0.000164630940959369,19.6932907798677
0.000132887835667789,19.7032907798677
0.000111647377910179,19.7132907798677
9.77599065140964e-05,19.7232907798677
8.89998144670294e-05,19.7332907798678
8.38377462954791e-05,19.7432907798678
8.12367835591061e-05,19.7532907798678
8.04948120247612e-05,19.7632907798678
8.11354696807479e-05,19.7732907798678
8.28367943699971e-05,19.7832907798678
8.53847281117222e-05,19.7932907798678
8.86420220519542e-05,19.8032907798678
9.25268991793489e-05,19.8132907798678
9.69983270175713e-05,19.8232907798678
0.000102046030474791,19.8332907798678
0.000107683992129008,19.8432907798678
0.000113946543429686,19.8532907798678
0.000120886417414505,19.8632907798678
0.000128574356416919,19.8732907798678
0.000137100053670972,19.8832907798678
0.000146574362914972,19.8932907798678
0.000157132849529174,19.9032907798678
0.000168940899448124,19.9132907798678
0.000182200770173461,19.9232907798678
0.000197161189073978,19.9332907798678
0.000214130416238543,19.9432907798678
0.000233494151794876,19.9532907798678
0.000255740377821333,19.9632907798678
0.000281494347322742,19.9732907798678
0.000311568755288991,19.9832907798678
0.000340878867273646,19.9916453899339
0.000374717440029975,20
