ecg,time
0.00706127441665479,15.0027360268527
0.00755019517007729,15.0076411483854
0.00807192474463528,15.0124825106552
0.00863238031392735,15.0172635168795
0.00923797524819665,15.0219855237345
0.00989572926714725,15.0266482495173
0.0106176455045656,15.031276321585
0.0114269650015743,15.0359400880205
0.0123393610933459,15.0406349348419
0.0133787195497496,15.0453805824696
0.0145794834716595,15.0502168637517
0.0160008954379478,15.0552397809941
0.0177779350097831,15.0607207366322
0.0202006282518234,15.067230269996
0.0217851806663595,15.0711279243498
0.0234151783205033,15.0750255787036
0.024840695243222,15.0785014842365
0.0260428057059718,15.0816623176221
0.0270394638072676,15.0846890593653
0.0277900852782155,15.087592974528
0.0282743366038906,15.0904085054653
0.0284835842885375,15.0932619945855
0.028371806617233,15.096338234796
0.0277593853346016,15.1001479556345
0.0269322015429321,15.103193465779
0.0258591549448943,15.1062389759234
0.0247787310682214,15.1088697158673
0.0237053651712316,15.1112636547858
0.0226315766926055,15.1135369232641
0.0215579011928611,15.1157441653031
0.0204875415853225,15.1179161546415
0.0194242030457704,15.1200731352701
0.0183715115634218,15.1222298330919
0.0173328569706722,15.1243977536736
0.0163113522319097,15.1265864133009
0.0153098324911146,15.1288040642834
0.0143308637027729,15.1310581644241
0.0133767530460293,15.1333557046368
0.0124495628451672,15.1357034445488
0.0115511176100587,15.1381081138262
0.0106830138470727,15.1405765787093
0.00984663409217174,15.1431159810648
0.00904314904102925,15.1457339082132
0.00827099658594565,15.1484478046726
0.00751209238612621,15.1513441740943
0.00677031287663408,15.154443678708
0.00604945812870284,15.1577712743275
0.00535352798385229,15.1613557942891
0.00468668095832774,15.1652306701136
0.00405315466783688,15.169434920695
0.00345713941295168,15.1740146097244
0.00290258633162866,15.1790252851907
0.00239292803719258,15.1845366089219
0.00193084246209128,15.1906398267239
0.00151821422306373,15.1974578894527
0.00117106024279142,15.2048007536556
0.00089171638165131,15.2127676292126
0.000667962384695419,15.2220182381023
0.000531877415108372,15.2299375784346
0.000410867491168058,15.2395347344233
0.00032324349437923,15.2495347344233
0.000264103684261578,15.2595347344233
0.00022539758915979,15.2695347344233
0.000201211742109476,15.2795347344233
0.000187312444115568,15.2895347344233
0.000180784318938812,15.2995347344233
0.000179684100224226,15.3095347344233
0.000182749570338945,15.3195347344233
0.000189188664621761,15.3295347344233
0.000198541977324807,15.3395347344233
0.000210598778486143,15.3495347344233
0.000225348685826759,15.3595347344233
0.000242958071743877,15.3695347344233
0.000263766420440438,15.3795347344233
0.000288302147153012,15.3895347344233
0.000317320869450496,15.3995347344233
0.000351873227921627,15.4095347344233
0.000393415693663121,15.4195347344233
0.000443261723148706,15.4294010181704
0.000499889442652109,15.4385567060658
0.000563967223469245,15.4470309193753
0.000636426594726387,15.454872948538
0.000718368651803828,15.4621295862375
0.000811053759064373,15.4688445028763
0.000915911418238351,15.475058466931
0.00103456001048014,15.4808095586383
0.00116883175003684,15.4861333422032
0.00132080127084902,15.4910630069213
0.00149281620288916,15.4956295233031
0.00168753573705103,15.4998618023208
0.00190797314910841,15.5037868433843
0.00215754687051902,15.5074298569901
0.00244014233672097,15.5108143985147
0.00276018696287145,15.5139625156578
0.0031227464900563,15.5168948912195
0.00353364421596777,15.5196309878716
0.00399961955219403,15.5221892196945
0.00452854268285467,15.5245871485404
0.00512971033555912,15.5268417179786
0.00581427655017634,15.5289695685561
0.00657527790060155,15.5309387407307
0.0074135871949214,15.5327581663539
0.00834001837208646,15.5344580479583
0.00937038040373851,15.536068121312
0.010529313936803,15.5376206606296
0.0118683979538207,15.5391667436415
0.0135520641487501,15.5408432613025
0.0160586102056861,15.5429769272938
0.0178079433246542,15.5443053032631
0.0196605847279482,15.5456336792324
0.0213548436073624,15.5468237460995
0.0228696534576244,15.5479087130474
0.0242340466777169,15.5489471329798
0.0254481652780434,15.5499788482886
0.0264929649156811,15.5510412831352
0.0273289896266237,15.5521850161908
0.0278750334349304,15.5535103447036
0.0278535354277729,15.5554124417695
0.0272425458345611,15.556892098572
0.0262214151495629,15.5583717553746
0.0250252004697461,15.5597231859227
0.0236616897023243,15.5610737300891
0.0221389374876051,15.5624780270177
0.0204654598573199,15.5639746978837
0.018643896222573,15.5656064989093
0.0169351271663552,15.5672109641278
0.0144929488131197,15.5697431202952
0.0123117916287552,15.572326746486
0.010276572464227,15.5751280689175
0.00865707222580455,15.5777422799018
0.00734605977661595,15.5802148084041
0.00639655416658818,15.582280869426
0.00565439078864657,15.5841111845857
0.00501525015045708,15.5858840081777
0.00442975696465727,15.5877133620154
0.00386041940762958,15.5897371229455
0.00325061538253815,15.5922666192672
0.00265618069605926,15.5952500883025
0.00214879980469138,15.5984194629185
0.00176406908145006,15.6014409727573
0.00143648554710155,15.6047285594476
0.00115098132726152,15.6086074483448
0.000942284025748925,15.6128597139986
0.000819614208772374,15.6175633817816
0.000801592519728985,15.6222639166656
0.000877241235693916,15.6264915942846
0.0010316168085464,15.6303337022195
0.00125763254430067,15.6338266896934
0.00155308290443079,15.637016064074
0.00191937289625523,15.6399485926177
0.00236135395928518,15.6426720359658
0.00288837354976984,15.6452372756205
0.00351681598903396,15.6477015181369
0.00427292697950527,15.6501271205071
0.00519685727697943,15.6525820035798
0.00634180619398549,15.6551261726545
0.00772731684171578,15.6577234742842
0.00924839586375896,15.6601552452043
0.0107919577407548,15.6622844837591
0.0123521393848507,15.6641560884337
0.0139737394237444,15.6658517485594
0.015715037226567,15.6674361650988
0.0176119457732784,15.6689329213101
0.0197065840622508,15.6703613507745
0.0220320991806755,15.6717280518474
0.0246311702046108,15.6730417302843
0.0275391926192248,15.6743041623881
0.0308047090819239,15.6755209824039
0.0344720108504356,15.6766937155099
0.0385990555471753,15.6778265122332
0.0432496202543737,15.678922586866
0.0484964273172071,15.67998495918
0.0544248990081774,15.681016863056
0.0611403948082216,15.6820223286119
0.0687678163318387,15.6830052652343
0.0774600310286585,15.6839699604558
0.0874062876144732,15.6849211448622
0.0988501736204161,15.6858646074714
0.112107949057128,15.6868071876022
0.127606317460937,15.6877576004201
0.145947839370971,15.6887276952953
0.167609826029342,15.6897167358188
0.192739879437601,15.6907113498305
0.222027129917888,15.6917231192663
0.256417058708315,15.692769025563
0.297384406146064,15.6938788496099
0.333352954967597,15.6947737067695
0.371120683819266,15.6956685639291
0.404512239807532,15.6964499931857
0.433622279979645,15.6971506051485
0.4590638122866,15.6978081065854
0.480915643752884,15.698448160104
0.498845535326583,15.6990926539801
0.512057921137751,15.6997660970364
0.5189376358051,15.7005047898484
0.516425381673519,15.7013140559888
0.502558853385262,15.7021425923991
0.476009762371722,15.7030062856665
0.435064185678466,15.703916689219
0.377827447934852,15.7048824712372
0.334068821664228,15.7055050682673
0.285836220275899,15.7061276652974
0.242794441323196,15.7066513222909
0.205773814658453,15.7070914306881
0.173174478508029,15.7074800778246
0.143932846265775,15.7078366709903
0.117400155201506,15.708173253955
0.0931272138094817,15.7084985962885
0.0707457111652798,15.7088205209483
0.049870567187681,15.7091482016895
0.0299014149723949,15.7094975067531
0.00892073072200151,15.7099213154262
-0.00142404525256931,15.7101617710345
-0.0087358289013511,15.7103491857716
-0.0154178367105145,15.7105366005088
-0.0213020097936129,15.7107176208768
-0.0272954338012891,15.7109214777547
-0.0331270019537284,15.7111441806915
-0.0386181262499897,15.7113831100654
-0.0436691371362002,15.7116372226663
-0.0482274221972851,15.7119065058477
-0.0522684994408499,15.7121916658434
-0.0560123980186001,15.7125171393432
-0.0589208045771532,15.7128372728174
-0.0613105508761598,15.7131782132469
-0.0631980984130797,15.7135431553259
-0.0645976517690558,15.7139356188006
-0.0655229794747527,15.7143599431706
-0.0659859197357878,15.7148215292305
-0.0659947473861425,15.7153271935715
-0.0655521570617181,15.7158857156474
-0.06465011165565,15.7165100691109
-0.0632660966875088,15.7172171734071
-0.0613540755386664,15.7180320232347
-0.0588200714624028,15.7189964650606
-0.0554382499019356,15.7201989134236
-0.051355470322168,15.721604171625
-0.0473937847975878,15.7229613041627
-0.0436073983433856,15.7242764625842
-0.0400231776175476,15.7255524455974
-0.0366549209023062,15.7267903636139
-0.0335089298007346,15.7279904702313
-0.0305864878979556,15.7291526001834
-0.0278851796182067,15.7302763997577
-0.0253997406238459,15.7313614461848
-0.0231227041130684,15.7324073051118
-0.0210449444371846,15.7334135516182
-0.0191561558367108,15.7343797684044
-0.0174452776751713,15.7353055286252
-0.0158453209467589,15.7362231846733
-0.014303601002456,15.7371643054016
-0.0128246680445097,15.7381304265217
-0.0114124356888811,15.7391236467628
-0.0100706156114495,15.7401464272187
-0.00880266225340124,15.7412016831749
-0.00761171826408274,15.7422929022228
-0.00650055669794119,15.7434243031925
-0.0054715194717747,15.7446010549689
-0.00452645087836434,15.7458295860096
-0.00366662377996606,15.7471180364188
-0.00289265398296028,15.7484769442577
-0.00220439414616031,15.7499203382465
-0.00160078976720931,15.7514675855448
-0.00109354160786742,15.753096225613
-0.000685608347561332,15.7547714730054
-0.000360254115421006,15.7565116318406
-0.000102452436684649,15.758337926011
0.000102074157715943,15.7602787177294
0.000267364921146575,15.7623742210836
0.000408045879467544,15.7646863489976
0.000541025649867101,15.7673228268368
0.000690529460544378,15.7705159814653
0.000872976375080486,15.7742533134361
0.00108780334445707,15.7782448293168
0.00136227941662667,15.7828848190795
0.00164229209861143,15.7873372772767
0.00191012280567812,15.7914803158512
0.00217189109546838,15.7954966958926
0.00243159990673489,15.7994824292837
0.00269266215887488,15.8034979262461
0.00295844928444289,15.8075879104497
0.00323247387882751,15.8117900350389
0.00351842613607248,15.8161385405473
0.00382025566712529,15.8206668317366
0.00414232010817245,15.8254093912286
0.0044896405751678,15.8304031610879
0.00486836409208065,15.8356888740504
0.00526006519954865,15.8409595208091
0.00566385082732989,15.8461673908951
0.00608226994599219,15.8513061313495
0.00651815712717916,15.8563673067831
0.00697565641946776,15.8613536250368
0.007459601825504,15.8662703420871
0.00797535372092003,15.8711226178469
0.0085287382648991,15.8759140907002
0.00912607702841409,15.8806464662895
0.00977427456695966,15.8853197066869
0.0104822797928926,15.8899408999643
0.0112754786754531,15.8946003869098
0.0121681807982866,15.8992884234908
0.0131830944639049,15.9040231154742
0.0143520885263842,15.908838676278
0.0157281699151347,15.913816822182
0.0174244700786995,15.919178214915
0.0198434902941543,15.9258107286369
0.0214735510379842,15.9298641017773
0.0231653836586268,15.9339174749178
0.0246335606393335,15.9374736684693
0.0258686956631277,15.9406705021722
0.0268975115998449,15.9437086085712
0.02769026045672,15.9466369947587
0.0282160003061684,15.9494586275927
0.0284697947840094,15.9522966160635
0.0284138743074952,15.955319918084
0.027908492963713,15.9589364944538
0.027102316232505,15.9621264854286
0.0260154950483829,15.9653164764034
0.0249293524071765,15.9680060079835
0.0238553798756568,15.970424737883
0.0227817173735016,15.9727108328929
0.0217078627731505,15.9749251423457
0.0206368218828115,15.9771006938226
0.0195722806055056,15.979258807973
0.0185178903416784,15.9814148088135
0.0174770778602533,15.983580563193
0.0164529953820848,15.9857658147811
0.0154485169387157,15.9879789599165
0.0144662451012923,15.9902275469762
0.0135085228007,15.9925186163051
0.0125774464926954,15.9948589468198
0.0116748725661057,15.997255264675
0.0108024299377943,15.9997144055509
0.00996153000654167,16.0022434661221
0.00915337296341937,16.0048499619041
0.00837895930621289,16.0075419752964
0.00761794977271123,16.0104114766796
0.00687353727323529,16.0134809034656
0.0061495003320215,16.0167746833477
0.00544981313212533,16.0203210599997
0.00477861574481375,16.02415276274
0.00414014065975014,16.028307949423
0.00353859494028527,16.0328315702822
0.00297797804248508,16.0377776227383
0.00246181347905831,16.0432133845176
0.00199289431934715,16.0492264808158
0.00157320682571853,16.0559347327108
0.00121704923993635,16.0631964384148
0.000927008725597747,16.0710657831458
0.000738096164995243,16.0782829893127
0.00057536243736865,16.0866889945743
0.00044454961160201,16.095997534582
0.000346020395637146,16.105997534582
0.000279159294461159,16.115997534582
0.00023497577988079,16.125997534582
0.000206900836298604,16.135997534582
0.000190216056142631,16.145997534582
0.000181650510145659,16.155997534582
0.000179007369923245,16.165997534582
0.000180846511655803,16.175997534582
0.000186249919195752,16.1859975345821
0.000194665736747432,16.1959975345821
0.000205811159985226,16.2059975345821
0.000219614832914684,16.2159975345821
0.000236186124191024,16.2259975345821
0.000255805108002155,16.2359975345821
0.000278931626935218,16.2459975345821
0.000306235241755101,16.2559975345821
0.000338651531484238,16.2659975345821
0.00037747553513859,16.2759975345821
0.000424512056102965,16.2859975345821
0.000478612079601428,16.2954037459806
0.000539887243891647,16.3041151694229
0.000609185117931199,16.3121772150509
0.000687547657591272,16.3196376396215
0.000776177072334929,16.3265411792897
0.000876439387327343,16.3329295924607
0.000989881757371104,16.3388418808522
0.00111825551364028,16.3443144775977
0.00126354411883766,16.3493813907722
0.00142799179842101,16.3540743554873
0.00161414039350453,16.3584229915937
0.00182486854655838,16.3624549589397
0.00206344161205588,16.3661960860119
0.00233356702344908,16.3696704972439
0.00263946537170365,16.3729007560987
0.00298595831088065,16.3759080121859
0.00337857716065638,16.3787121405611
0.00382370692951705,16.3813319026357
0.00432877732514735,16.3837851344872
0.00490252399463527,16.386088961779
0.0055553633078802,16.3882600803907
0.00629017843376882,16.3902905004008
0.00709933792811575,16.3921601615843
0.00799216208806211,16.3938993488636
0.0089823915192748,16.3955378410628
0.0100907140071013,16.3971063742152
0.011351860474854,16.3986422746243
0.0128862088273666,16.4002543751386
0.0149661783344838,16.4021323344842
0.0167788152203587,16.403578608714
0.0187435471133659,16.4050248829438
0.0205637351014778,16.406308877224
0.0221626470484704,16.4074365767049
0.0235995251790809,16.4084915177679
0.0248887946190174,16.4095215828927
0.0260201356687478,16.4105636040813
0.0269650184015949,16.4116593683156
0.0276676204243924,16.4128769538612
0.0279930179064172,16.4143929205965
0.0276602114083037,16.4160954544746
0.0267046517315109,16.4177979883528
0.0255670535429915,16.4191982157464
0.0242712732103859,16.4205419315652
0.0228137104619405,16.4219185667402
0.021202277273478,16.4233714796243
0.0194425508864977,16.4249402074939
0.0187855848864778,16.4255303868203
0.0181389630571362,16.4261205661467
0.0168649394575938,16.4273313757522
0.0144283334308361,16.4298664138865
0.0122590687358787,16.4324454222965
0.0102360737134805,16.4352399453969
0.00862493036770434,16.4378495971214
0.00731821877750455,16.4403224363093
0.00636843859670719,16.442396894374
0.00562844103892788,16.4442295193714
0.00499244977775583,16.446001174511
0.00441074045869761,16.4478262684566
0.0038461331776944,16.4498407457558
0.00324380158639179,16.4523458771656
0.00265027189918956,16.4553302058703
0.0021434410076982,16.4585022185867
0.00175957498671505,16.4615228339438
0.00143349253880388,16.4648001472589
0.00114813721582146,16.4686803289892
0.000939442690256679,16.4729345945203
0.000816597335510376,16.4776407887834
0.000798203856490345,16.4823489602007
0.000873447390875964,16.4865829043956
0.00102735904398613,16.4904307163475
0.00125282282688033,16.4939283862402
0.00154762097965256,16.4971215530606
0.00191311719736461,16.5000568790145
0.00235413316262375,16.5027822496058
0.00287989221840141,16.5053482165135
0.00350657621951948,16.5078116754573
0.00426010115539976,16.5102345885431
0.00518014624990511,16.5126844911182
0.00631955963531602,16.5152216470503
0.00770010108597176,16.5178146934822
0.00922036579159818,16.5202493394701
0.0107661462592313,16.5223847292133
0.0123280751830858,16.524260832753
0.0139503602105159,16.5259593519339
0.0156909450987581,16.5275452451751
0.0175867407815733,16.5290433037917
0.0196792026047038,16.5304724858482
0.0220021650478438,16.5318399628697
0.0245978417606674,16.5331542111975
0.0275020021871713,16.5344172343887
0.0307629935361408,16.5356345959997
0.0344248423102828,16.5368077599895
0.0385457953278662,16.5379410019428
0.0431893683925443,16.5390374819064
0.0484279455353077,16.5401001784288
0.0543470685391132,16.5411323863044
0.0610517284327719,16.5421381050838
0.0686664931120979,16.5431212372445
0.077343721445093,16.5440860551025
0.0872721589031938,16.5450372899856
0.0986944904310725,16.5459807102684
0.111925692888889,16.5469231302443
0.127390462877266,16.5478732249643
0.145687911878456,16.5488427710004
0.167307925311906,16.5498316708881
0.192387788664502,16.5508259860132
0.221613686654072,16.5518372310264
0.255925863003187,16.5528822592537
0.2967864420722,16.553990517116
0.332847204630182,16.5548882876606
0.370737095527669,16.5557860582051
0.404204975563669,16.5565688328763
0.433372065922434,16.5572700445266
0.458865480783824,16.5579277549939
0.4807707094889,16.5585677384561
0.498760811487149,16.5592118954258
0.512047402053853,16.5598846675305
0.519029817161141,16.5606221354799
0.516656335909303,16.5614311631507
0.502940357198078,16.5622592710346
0.476558656548462,16.5631224004227
0.435799937747816,16.5640321667833
0.378769315464975,16.5649972306555
0.334921003861814,16.5656222999863
0.286544745951392,16.566247369317
0.243383454020419,16.5667726484599
0.206281760617714,16.5672136733842
0.173623613234326,16.5676028630925
0.144335713548744,16.5679597884047
0.117764831797433,16.5682965640462
0.0934597235612404,16.5686219879937
0.071051419998391,16.5689438832034
0.0501557973978628,16.5692713827296
0.0301781932813823,16.5696201830936
0.00924648066840032,16.5700418916497
-0.00130663453821122,16.5702865964568
-0.00863429347884195,16.5704741346008
-0.0153307526770234,16.5706616727449
-0.0212103698006355,16.570842259141
-0.0272047806346853,16.5710457662682
-0.0330410259504986,16.571268176218
-0.0385389026653314,16.5715068385079
-0.0435977786718189,16.5717606901812
-0.0481644712373786,16.5720297053957
-0.0522141540842778,16.5723145805677
-0.0559445466757069,16.5726374739838
-0.0588651277216363,16.5729570850568
-0.0612670400043137,16.5732974727854
-0.0631664037907047,16.5736617876709
-0.0645774137995076,16.574053531969
-0.0655138676615459,16.5744770235733
-0.0659876684283186,16.5749376350564
-0.0660071964644874,16.5754421448076
-0.065575305355188,16.5759992783638
-0.0646842810070724,16.5766218893011
-0.0633120008641584,16.5773267854936
-0.061413154507717,16.578138707031
-0.0588953887112988,16.5790989255468
-0.0555382061074848,16.5802939645065
-0.051453121652557,16.5817005528812
-0.0474876676680127,16.5830587160994
-0.043696666834333,16.5843748180624
-0.0401073929498812,16.5856517093102
-0.0367338628816475,16.5868905259601
-0.0335825171116373,16.5880915342104
-0.0306547389455844,16.589254574539
-0.0279481891686771,16.5903792954079
-0.0254576630271881,16.5914652744481
-0.0231757395599328,16.592512076965
-0.0210933269295685,16.5935192775847
-0.0192001424438538,16.5944864588537
-0.0174851389767955,16.5954131943647
-0.0158838611457378,16.5963302991102
-0.0143406957917848,16.5972708421111
-0.0128602215468944,16.5982363389926
-0.0114463561530989,16.5992288807548
-0.0101028168253239,16.6002509187732
-0.00883306482398025,16.6013053561712
-0.00764025097413835,16.6023956651246
-0.00652715794488086,16.6035260446251
-0.00549613880898013,16.6047016375593
-0.00454905069966437,16.6059288375503
-0.00368718122574017,16.6072157367503
-0.00291116321605457,16.6085728049546
-0.00222086928556242,16.6100139694738
-0.00161526907736432,16.6115584382321
-0.00110543245592063,16.6131861811998
-0.000695346777445767,16.6148600917557
-0.000368212692478124,16.6165984701758
-0.000108981392314664,16.6184224051061
9.66369988024355e-05,16.6203600455386
0.00026267902953342,16.6224512367205
0.000403741538788085,16.6247571810765
0.000536641923454425,16.6273839771349
0.000685293123447774,16.6305588134102
0.000867294723527662,16.6342950122985
0.00108097696201713,16.6382757202752
0.00135364307121797,16.6428951351731
0.001634632497199,16.647369031812
0.0019028550774687,16.6515207212476
0.00216468786128621,16.6555394716502
0.00242425043795806,16.6595239851977
0.00268499883674607,16.663535759172
0.00295031994323136,16.6676200170347
0.00322372745697683,16.6718146273527
0.0035089057951226,16.676153919801
0.00380979030010815,16.6806712735295
0.00413071416681478,16.6854010639235
0.00447665836863486,16.6903800657446
0.00485370121894604,16.6956487692437
0.00524536446291348,16.7009268013099
0.00564850095463922,16.7061350175036
0.00606639039860226,16.7112773194679
0.00650154691528519,16.7163413592135
0.00695815567046164,16.7213305911163
0.00744099839029833,16.726249892358
0.00795542599997467,16.731104555299
0.00850724607350562,16.7358982751332
0.00910276308990661,16.7406328521156
0.0097488590871197,16.7453083146944
0.0104538443872694,16.7499280054579
0.0112435569724117,16.7545865730683
0.0121320205944947,16.7592731734487
0.0131417055177721,16.7640056106369
0.0143039651269233,16.7688169829082
0.015670593007218,16.7737862361666
0.0173506942684344,16.7791246881323
0.0197445334552267,16.7857216679414
0.0213884762285973,16.789822995543
0.0230989777117117,16.7939243231445
0.0245789711186619,16.7975037380284
0.025822831714129,16.8007107969528
0.0268599775765019,16.8037524057158
0.0276636858553247,16.8066876622522
0.0282001311523383,16.8095113617054
0.0284652938884511,16.8123459700947
0.0284233352930022,16.8153569633587
0.0279427555363583,16.8189313153635
0.0271417993268302,16.8221602529068
0.0260506984698633,16.8253891904501
0.0249628549653684,16.8280935126376
0.0238886807188123,16.8305181136624
0.0228150426541386,16.832807175719
0.0217411558257038,16.8350231115924
0.0206699742513433,16.8371994864875
0.0196051779232716,16.839357871762
0.0185504234560508,16.841513729077
0.0175091456441159,16.8436790078764
0.0164845054185558,16.8458635033313
0.0154793854336245,16.8480756441853
0.0144963964279164,16.8503229988354
0.0135378893352157,16.8526126181254
0.0126059680606425,16.8549512849712
0.0117024961454438,16.8573457237089
0.0108291098133227,16.8598027617665
0.00998722663384789,16.862329484957
0.00917805347912409,16.8649333905959
0.00840259663167615,16.8676225393122
0.00764114311657964,16.8704862154536
0.00689616455273279,16.8735491554822
0.00617144290198916,16.8768356442542
0.00547094671566423,16.88037379871
0.00479881185885692,16.8841961978131
0.00415926943776551,16.8883408153905
0.00355652969457251,16.8928523653001
0.00299460206369658,16.8977845172539
0.0024770291136146,16.9032040494271
0.00200662876027339,16.909197826622
0.00158541016826506,16.915882581984
0.00122728372345687,16.9231269784875
0.000934814976741288,16.9309755368802
0.000750866074201751,16.937893523258
0.000582988866267205,16.9463934867078
0.000450912058299818,16.9556227361981
0.000350332777418043,16.9656227361981
0.000282005764295495,16.9756227361981
0.000236776666196715,16.9856227361981
0.000207960333522826,16.9956227361981
0.000190748216294521,17.0056227361981
0.000181801074057207,17.0156227361981
0.000178872950554781,17.0256227361981
0.00018048956864896,17.0356227361981
0.000185709165789987,17.0456227361981
0.000193962818669209,17.0556227361981
0.000204954727471597,17.0656227361981
0.000218602862287512,17.0756227361981
0.00023500697403224,17.0856227361981
0.000254437505042922,17.0956227361981
0.000277343570931071,17.1056227361981
0.000304381633819563,17.1156227361981
0.000336470093324556,17.1256227361981
0.000374880211639241,17.1356227361981
0.000421382443031759,17.1456227361981
0.000475076464981347,17.1550701196863
0.000535909053717846,17.1638212411981
0.000604710964082108,17.1719200655209
0.000682514371459533,17.1794144969524
0.000770512396654879,17.1863494641108
0.000870061459159694,17.1927669035097
0.000982698031507408,17.1987059811193
0.00111016135969664,17.2042032832235
0.001254421202479,17.2092929616884
0.0014177063518424,17.2140068853614
0.00160254100953947,17.2183747977544
0.00181178373882481,17.2224244731273
0.00204867697612275,17.2261818469524
0.00231690159726716,17.2296711423072
0.00262064747133452,17.2329150122588
0.00296469996267178,17.2359346876497
0.00335454729229561,17.2387501161363
0.00379652234104226,17.2413801215938
0.00429799032442743,17.2438425912079
0.00486760545540014,17.2461546882622
0.00551567792672395,17.2483331280957
0.00624654967389763,17.2503737430094
0.00705134922063087,17.2522518605009
0.00793918993688487,17.2539978015583
0.00892354022467222,17.2556414010727
0.0100245833982261,17.2572132477442
0.0112759587431137,17.2587500784731
0.0127907832423866,17.2603549808038
0.0148254524674357,17.2622082965802
0.0166758021044429,17.2636946663664
0.0186890500700915,17.2651810361525
0.0205209947462332,17.2664744910283
0.0221240630502277,17.2676050408415
0.0235639837425642,17.2686611787871
0.0248563055425779,17.26969154536
0.0259911402670724,17.270733037609
0.0269404027990299,17.2718271635747
0.02764915271095,17.2730409768218
0.0279859337827091,17.2745459414864
0.0276661231224007,17.2762579120356
0.0267140972692497,17.2779698825849
0.0255783623248436,17.2793728319293
0.0242849795974032,17.2807166852982
0.0228298274773568,17.2820926012003
0.0212207448867903,17.2835442156086
0.0194633932471284,17.2851109958416
0.0188150616063982,17.285693287194
0.0181763163663273,17.2862755785464
0.0170508407215785,17.2873398375206
0.0145943721635826,17.2898722523357
0.0124132530011449,17.2924386824375
0.0103600328457991,17.2952437501017
0.00872314136908343,17.2978663819118
0.0074027568509871,17.3003380086701
0.00642938325107292,17.3024422132073
0.0056784853749258,17.3042848012811
0.0050371536391072,17.3060552183235
0.00445328417518616,17.3078695922472
0.00388968644891747,17.3098585301144
0.00329525232384323,17.3122956027305
0.00269412839412458,17.3152651106602
0.00217998339084696,17.3184208632049
0.00178970125510754,17.3214261934727
0.00146003624297754,17.3246553720653
0.00116751940342273,17.3285054910039
0.000951140622000503,17.3327235768479
0.000819251522810776,17.3373846539081
0.000790439953290036,17.3421465997558
0.000857343317609297,17.3464185996393
0.00100382849529531,17.3503018783464
0.00122223086963919,17.3538305599025
0.00150995803022689,17.357050219349
0.00186803937375663,17.3600073188166
0.00230104558563534,17.3627502974469
0.00281768454988631,17.3653290191832
0.00343347003447632,17.3678001519279
0.00417335067253159,17.3702253350073
0.00507573559869284,17.3726720120303
0.00619379296224484,17.3752046375881
0.00755813055899195,17.3778087987229
0.00907285936350432,17.3802710660495
0.0106187011528068,17.3824366918289
0.012176195931457,17.3843330649863
0.0137892133669187,17.3860450526218
0.0155137829938285,17.3876384110757
0.0173922942051562,17.3891442085991
0.0194614398433648,17.39057825836
0.0217597496870244,17.3919514644045
0.0243253211820754,17.3932700778042
0.0271970058115496,17.3945379299089
0.0304211044369621,17.3957597664791
0.0340404245968815,17.3969368412725
0.0381138033525256,17.3980738841147
0.0427032060025214,17.3991738278377
0.0478784569463399,17.4002393590095
0.0537261950350928,17.4012742888409
0.0603484445869436,17.4022823508057
0.0678673329400447,17.4032674090229
0.0764311146542284,17.4042335905858
0.0862258836670264,17.4051857500233
0.0974875639628694,17.4061294711978
0.11052231058463,17.4070714156847
0.125741307982647,17.4080200161125
0.143720589410252,17.4089865907985
0.165029996239528,17.4099752158398
0.189740507180562,17.4109682535543
0.218518904491749,17.4119768196157
0.25227194481516,17.4130170069971
0.292383093972781,17.4141162525171
0.338274220794882,17.4152580335606
0.37727551092863,17.4161771358849
0.410024319018587,17.4169439350553
0.438506887829077,17.417634606154
0.463360761482959,17.4182870351993
0.484595451969605,17.4189258664831
0.501809902476089,17.4195730090258
0.514105788065294,17.420254178481
0.519643299283352,17.4210095237507
0.515281246432606,17.4218205272416
0.499365311617269,17.422653820053
0.470490457714014,17.4235246662136
0.426892086946079,17.4244439068762
0.366654979928241,17.4254204333721
0.323859236791026,17.4260126089804
0.277238569829234,17.4266047845887
0.235555036234865,17.4271081288435
0.199461774491112,17.4275364177041
0.167539122961888,17.4279178387146
0.138831903353488,17.4282698579378
0.112741012358655,17.4286036692034
0.0888391488554727,17.4289277139626
0.0667625307792336,17.4292498654273
0.046107355917362,17.4295799502857
0.0261772320184639,17.4299366092239
0.00418352838830073,17.4303968492954
-0.00400411182558356,17.4305945308847
-0.011470949650036,17.430792212474
-0.0178019700422044,17.43097622208
-0.0237792480898527,17.4311673903212
-0.0297361788357032,17.4313794114891
-0.035445054786498,17.4316089480447
-0.0407649349155889,17.4318541228798
-0.0456185509298123,17.4321143699519
-0.0499666084058493,17.4323899997607
-0.0537892923369835,17.4326819636442
-0.0572307781647183,17.4330084775058
-0.0599349466618591,17.4333364419938
-0.0621264075476093,17.4336863572953
-0.0638211130115362,17.4340615667664
-0.0650332882708781,17.4344658897903
-0.0657761323226089,17.4349040492768
-0.0660602968218803,17.4353819518544
-0.0658921408284656,17.4359071062431
-0.0652709171115795,17.4364896711444
-0.0641833060600117,17.4371440978283
-0.0625992003445675,17.437889826546
-0.0604580698292528,17.4387569264431
-0.0576313244048086,17.4397994501491
-0.0537619069347541,17.4411521128429
-0.0497200526000346,17.4425360082848
-0.045825057901547,17.4438754407259
-0.0421185867728739,17.4451743644676
-0.0386211200006563,17.4464347303504
-0.0353429470011226,17.4476572193596
-0.0322881013705958,17.4488418718359
-0.0294562281068262,17.4499884230261
-0.026843658616151,17.4510964792664
-0.0244441573538817,17.4521656075173
-0.0222495180750704,17.4531953755277
-0.0202500782081326,17.4541853622036
-0.0184351748466443,17.4551351487956
-0.016793549158633,17.4560442967144
-0.0152163070287171,17.4569712821477
-0.0136993619874999,17.4579221982398
-0.0122467983829069,17.4588989189282
-0.0108624565796394,17.4599036779791
-0.0095499515147085,17.460939106544
-0.00831261943849285,17.4620083333467
-0.0071534620878851,17.4631151174041
-0.00607508749508101,17.4642640281764
-0.00507964667698967,17.4654606961669
-0.00416876461688111,17.4667121717427
-0.00334346247445752,17.4680274569299
-0.00260406520842798,17.4694183272934
-0.00195008325091599,17.4709006701001
-0.001380044659928,17.4724968137424
-0.000915459719135767,17.4741419352597
-0.00054302420197179,17.4758412747894
-0.000246970404912841,17.4776134519193
-1.26253675521199e-05,17.4794822043419
0.000174114969249968,17.4814799348978
0.000327395411897884,17.4836539923867
0.000462465648958456,17.4860804790546
0.000598175445485423,17.4889014750977
0.000766139428069606,17.4924721107611
0.000957942644810485,17.4962588712641
0.00119430587538734,17.5004754484264
0.00148806664450038,17.5052994855901
0.00176214775488134,17.5095957238373
0.00202648906192587,17.5136690515827
0.00228644766432801,17.5176613885217
0.00254573149964589,17.5216503607673
0.00280773931442464,17.5256885018639
0.0030759003300497,17.5298168518144
0.00335380720814596,17.5340714122463
0.00364523838107269,17.5384857314641
0.00395428163572829,17.5430934131605
0.00428551879383778,17.5479297600912
0.00464434765892665,17.5530330204944
0.00503398693008854,17.5583969460025
0.00542833087229315,17.5636155062091
0.00583845928880734,17.5688048507956
0.00626337489838305,17.5739088139963
0.00670767394264359,17.5789392290652
0.00717543314459675,17.5838956995798
0.0076718437941999,17.5887851097781
0.00820242338768335,17.5936116889279
0.00877321022928735,17.598378409482
0.00939075367759146,17.603086184626
0.0100622407377227,17.6077344273618
0.0108040683570243,17.612371942739
0.0116364686383569,17.6170419571514
0.0125770835836652,17.6217469123062
0.0136516539137323,17.626509425748
0.0148987655937275,17.6313785146638
0.0163883184810226,17.6364747158153
0.0182974188589247,17.6421673526499
0.0207228658675276,17.6485094593547
0.0222636009121439,17.6522490968591
0.023827381012757,17.6559887343636
0.0251870345220397,17.6593530754939
0.0263330396306008,17.6624622569951
0.0272729382753103,17.6654769544431
0.0279499297545454,17.6683454531967
0.0283603384128045,17.6711577523038
0.0284881854207172,17.6740491589551
0.0282686833427487,17.6772445829901
0.0273943470202291,17.6815908948482
0.0265246385148863,17.6843981489177
0.0254655401759019,17.6872054029872
0.0243919141238996,17.689724118507
0.0233189226709722,17.6920651825866
0.0222449233066062,17.6943100210212
0.0211720411799834,17.6965016934929
0.0201037941635467,17.6986662655947
0.0190438935849961,17.7008216136806
0.0179958895254142,17.7029811136487
0.0169630743099853,17.7051554457834
0.0159484604786166,17.7073536037105
0.0149547848311109,17.7095835090654
0.0139845197556645,17.7118524169455
0.013039882538706,17.7141672109581
0.0121228486764512,17.7165346191358
0.0112351611182943,17.7189613970987
0.0103783363767587,17.7214544975099
0.00955368124141092,17.7240211994401
0.00876229385031627,17.7266692825297
0.00799452252445112,17.7294469387259
0.00724138938820216,17.7324141743839
0.00650673118591074,17.7355931748237
0.00579442568088542,17.7390102168012
0.0051085351377859,17.7426957109783
0.00445325816415089,17.7466849794486
0.00383283310364627,17.7510193863628
0.00325138752206041,17.7557480909965
0.00271272730148731,17.7609310003709
0.00222002743308689,17.7666445984802
0.00177566557835766,17.7729903799465
0.00138708031438248,17.7799873315501
0.00106177173700634,17.7875390333738
0.000818923700735831,17.7953721191254
0.000655262702262289,17.8027045388829
0.000502442781117681,17.8119549064463
0.000391442273969219,17.8214070668432
0.000309852789261145,17.8314070668432
0.000255105859109351,17.8414070668432
0.000219545418946282,17.8514070668432
0.000197577661763751,17.8614070668432
0.0001852421557857,17.8714070668432
0.000179836706965137,17.8814070668432
0.000179570031526347,17.8914070668432
0.000183283374516243,17.9014070668432
0.000190255468778582,17.9114070668432
0.000200077643493581,17.9214070668432
0.000212578117677184,17.9314070668432
0.000227778929799712,17.9414070668432
0.000245876099778713,17.9514070668432
0.000267239274585862,17.9614070668432
0.000292431030429492,17.9714070668432
0.000322249415087393,17.9814070668432
0.00035780164832579,17.9914070668432
0.000400623785725695,18.0014070668432
0.000451474768722362,18.0111584188658
0.000509200167596814,18.0202030824538
0.000574510918613203,18.028574258521
0.000648365827720043,18.0363208588435
0.000731890541662181,18.0434891658309
0.000826370732693775,18.0501223753152
0.00093326412473589,18.0562608178133
0.00105422097280833,18.0619421662591
0.0011911098197009,18.0672015994532
0.00134604595560503,18.0720719457337
0.00152142356908917,18.0765838396437
0.00171995424708569,18.0807658809543
0.00194471168696913,18.0846447783003
0.00219918304653742,18.0882454712573
0.00248733365291962,18.0915912667406
0.00281368435610034,18.0947039874756
0.00318341096715561,18.097604112906
0.00360246917661174,18.1003109274136
0.00407775995801455,18.1028426962992
0.00461735501402818,18.1052168657506
0.0052308098085797,18.107450306717
0.00592962173635088,18.1095596466393
0.00670236124485673,18.1115030111823
0.00755381095665743,18.1133013502612
0.00849549941891641,18.1149848650651
0.00954427804042035,18.1165833949165
0.0107268523592128,18.1181301387727
0.0121094195211309,18.1196891742175
0.0138719603751038,18.1214022497869
0.0165749654609838,18.123645403624
0.0182947976937896,18.1249259223829
0.0200971931754386,18.1262064411417
0.0217411421790462,18.1273622946116
0.0232177841472056,18.1284313496054
0.0245463216760138,18.1294647168421
0.0257215220102658,18.1305002268847
0.026719963090242,18.1315768650046
0.0274952582473345,18.1327521538915
0.0279460155101223,18.1341541931192
0.0276419643300254,18.1363426131075
0.0268760758093285,18.1377566958161
0.0257771883045832,18.1391707785248
0.0245134775652287,18.140513646939
0.0230856955674782,18.1418805025666
0.021502438167327,18.1433166352455
0.0197704423765942,18.1448607423374
0.0186300925108569,18.1458847130879
0.0175255533882506,18.1469086838383
0.0150141490883705,18.1494403645563
0.0127903392764512,18.1519930572044
0.0107225828614883,18.1547389042101
0.00901638892424505,18.1573897944404
0.00764562827992528,18.1598788812915
0.00660658692872214,18.1620627118363
0.00582422087152814,18.1639349458824
0.00516551551409829,18.165709613379
0.00457178021215898,18.1675091049162
0.00400496681576315,18.1694556668586
0.0034194202277923,18.1717786043482
0.00280124882787633,18.1747162823647
0.00227099522524413,18.1778362198663
0.00186468984890221,18.1808244887024
0.00152598958650874,18.1839731285441
0.00122374281621658,18.1876951752927
0.000991265275158168,18.191829859748
0.000840885386827725,18.1963897576147
0.000789981389489994,18.2012613419009
0.000839977666029993,18.2056094924404
0.000971925960459935,18.209566010973
0.00117683887622828,18.2131582374481
0.00145134128232411,18.2164330731589
0.00179576241065695,18.2194362827783
0.00221411081440321,18.222216961328
0.00271410474655649,18.224823641932
0.00330979155281687,18.2273117779166
0.00402412130167707,18.229742162229
0.00489253880660941,18.232180886199
0.00596637498048924,18.2346960151457
0.00728808081535669,18.2373001361631
0.00878043894028445,18.239799452867
0.0103249683008592,18.2420245636158
0.0118758353835309,18.2439641146198
0.0134732046343868,18.2457052877131
0.0151703240163911,18.2473164633333
0.0170169882531764,18.2488385755802
0.0190436414194385,18.2502837928098
0.0212952802809191,18.2516687708447
0.0238039916374886,18.2529966393464
0.0266133392030751,18.2542742958587
0.0297654438805184,18.2555048867104
0.0333040057542242,18.2566904075971
0.0372856116987504,18.2578352741513
0.0417702706997182,18.2589423365675
0.046825164528844,18.2600141619945
0.0525356504818493,18.2610548510199
0.0589996060765197,18.262067943809
0.0663343999349854,18.2630572071043
0.074682329703432,18.2640266882894
0.0842225179405457,18.2649812346512
0.0951794921679865,18.26592620601
0.107843665083163,18.2668680093087
0.122601754151317,18.2678146316935
0.139992103517515,18.2687767610722
0.160715067019413,18.2697656569969
0.184730897004512,18.2707572204991
0.212672668838033,18.2717619161396
0.245391259337473,18.2727946396944
0.284145428683798,18.2738797406314
0.329127218585194,18.2750174141654
0.369671126994782,18.2759799518753
0.403488499967132,18.2767703228124
0.432775697936418,18.2774731466127
0.458369470538963,18.2781314437237
0.480377787154188,18.2787714297158
0.498484563997183,18.2794150345959
0.511915933217519,18.2800865584006
0.51910080083488,18.2808216185758
0.517005526513366,18.28163026492
0.503593104047618,18.2824575803702
0.477551075464413,18.2833196082219
0.437174562718482,18.2842280839011
0.380569457200473,18.2851916625496
0.336555326187515,18.2858216366196
0.287905789727315,18.2864516106895
0.244516460852938,18.2869801112435
0.207260847436539,18.2874229621023
0.174491531755126,18.2878132396948
0.145116388415809,18.2881708383951
0.118473592410525,18.288508013078
0.0941079884250064,18.2888336180129
0.0716493955477481,18.2891554768604
0.0507155977654676,18.289482644609
0.0307229482297614,18.2898304892609
0.00988434420525601,18.2902482448221
-0.00111185837100479,18.2905021184765
-0.00846506828941916,18.290689865871
-0.0151847856123961,18.2908776132656
-0.0210564043011071,18.2910574938903
-0.027051982410609,18.2912604362271
-0.0328955002490157,18.2914823763906
-0.0384040900734782,18.2917206127093
-0.0434755324690597,18.2919740495528
-0.0480557047252788,18.2922426393239
-0.0521192131481581,18.2925270623234
-0.0558311607656628,18.2928461747118
-0.0587707639939299,18.2931649813367
-0.0611916653947434,18.2935045140569
-0.0631094786168818,18.2938678578565
-0.0645383801390703,18.2942584876923
-0.0654922105249074,18.2946806877044
-0.0659829720115169,18.2951397863968
-0.0660192080245234,18.2956425025374
-0.0656040188194327,18.2961974775826
-0.0647301908719057,18.2968173781746
-0.0633762120113256,18.2975188391699
-0.0614978958150671,18.2983262068495
-0.0590053837649993,18.2992798703305
-0.0556862498470827,18.3004634946327
-0.0515976353139636,18.3018721684336
-0.0476264007734473,18.3032319236908
-0.0438283062108035,18.3045494772007
-0.0402312655613791,18.3058277620389
-0.0368496360485943,18.3070679553507
-0.033690072236063,18.3082703435525
-0.0307541102031675,18.3094347764406
-0.0280395270469746,18.3105609061095
-0.0255412086107213,18.3116483109794
-0.0232518033970987,18.3126965559317
-0.0211622707438826,18.3137052149478
-0.0192623627172428,18.3146738703551
-0.0175410524228538,18.3156020964091
-0.0159377704995798,18.3165183587628
-0.014392414038549,18.3174580191694
-0.0129096053698401,18.3184225625265
-0.0114932685450194,18.3194140680773
-0.0101471292695804,18.3204349724146
-0.00887465926256298,18.3214881601667
-0.00767902190794181,18.3225770800756
-0.0065630146710399,18.3237059009911
-0.00552900782289748,18.3248797263202
-0.00457887832358119,18.3261048968281
-0.00371393659523135,18.3273894319682
-0.00293484186127668,18.3287436981583
-0.00224149774579848,18.3301814693618
-0.00163291148394604,18.3317217131783
-0.00111917607982609,18.3333481013618
-0.000705864655917607,18.3350199866774
-0.000376079811195652,18.336755666714
-0.000114738856725148,18.3385760259629
9.24666656060631e-05,18.340508892416
0.000259568633146332,18.3425935574867
0.000401118767329381,18.344890160985
0.000533795760386173,18.3475023846608
0.000681047167990918,18.350649887947
0.00086223467424567,18.3543847199678
0.00107403605263532,18.3583493343239
0.00134382398071101,18.3629382527754
0.00162516722788456,18.3674295890506
0.00189345181239108,18.3715885287311
0.00215516519617848,18.3756093988915
0.00241447449323024,18.3795931294972
0.00267484115473554,18.3836021152822
0.00293964634759075,18.3876819947202
0.00321239298791691,18.3918708112756
0.00349675371066705,18.3962029750451
0.00379664687277688,18.4007118518095
0.00411638043499217,18.4054317383408
0.0044608963405877,18.410399287168
0.00483620830963872,18.4156548067542
0.00522750846876147,18.4209406189809
0.0056297142512685,18.4261504344701
0.00604673242840431,18.4312970316384
0.00648079884136251,18.4363646855074
0.00693613011607745,18.4413575232153
0.00741745506454654,18.4462800983934
0.00793010818830653,18.4511378403756
0.00847987039003573,18.4559345078531
0.00907301937342191,18.4606719980101
0.00971640418956594,18.4653504088058
0.0104175807067395,18.469968651379
0.0112028239277103,18.4746260198855
0.0120858828047775,18.479310855005
0.0130889117888611,18.484040494443
0.0142426251297009,18.4888466723716
0.0155973238237362,18.4938049350006
0.0172572611994686,18.4991153473591
0.0195877405038687,18.5055856843682
0.021255023832843,18.5097677983643
0.0229967171004082,18.5139499123605
0.0244953570688205,18.5175667782747
0.0257525799852293,18.5207900786432
0.0268023381751723,18.5238374414913
0.0276226757054796,18.5267835335617
0.0281752955002736,18.5296107536913
0.028457538407351,18.5324407407711
0.0284363489840632,18.5354341294446
0.0279914723449592,18.5389495088962
0.027198313789129,18.5422386352005
0.0261002055048529,18.5455277615049
0.0250096271947708,18.5482541573975
0.0239351173171597,18.5506872496181
0.0228615076004474,18.5529805605591
0.0217875758737886,18.5551988314374
0.020716197888976,18.5573764056415
0.0196510442724677,18.5595352134115
0.0185957785768341,18.5616909128786
0.0175538466508635,18.5638555714516
0.0165284214959712,18.5660390581752
0.0155223976957326,18.5682498488343
0.0145383973406486,18.5704955414384
0.0135787824445874,18.5727832033732
0.0126456671799302,18.5751196253736
0.011740925035339,18.5775115316072
0.0108662024097389,18.5799657407952
0.0100229253406954,18.5824893273625
0.00921231010772807,18.5850897671459
0.00843537106452327,18.5877750955258
0.00767330517554797,18.5906307405037
0.00692754442716029,18.5936847411631
0.00620187596692259,18.5969611844253
0.00550026048046618,18.6004880132831
0.00482682775462259,18.6042976013569
0.00418580672626214,18.6084276713432
0.00358141172567978,18.6129226152818
0.00301766568429945,18.6178356573384
0.0024981371304961,18.6232328986715
0.00202567828660967,18.6292001718086
0.00160233036252723,18.6358527293945
0.00124146416154387,18.6430733858569
0.000945815812248402,18.6508934297238
0.000766224783595841,18.6575183801529
0.000592532983284422,18.6661114666083
0.000458949308021328,18.6752482657726
0.000355907170635173,18.6852482657726
0.000285827311510814,18.6952482657726
0.000239357582001184,18.7052482657726
0.000209672106315151,18.7152482657726
0.000191853201519425,18.7252482657726
0.000182479251656223,18.7352482657726
0.000179245429659694,18.7452482657726
0.000180636933824038,18.7552482657726
0.000185684287495007,18.7652482657726
0.000193799198628998,18.7752482657726
0.000204671775427317,18.7852482657726
0.000218209177322489,18.7952482657726
0.000234502266624415,18.8052482657726
0.000253813471345111,18.8152482657726
0.000276583824400657,18.8252482657726
0.000303460644858074,18.8352482657726
0.00033535091689025,18.8452482657726
0.000373510531316703,18.8552482657726
0.000419688037897406,18.8652482657726
0.000473140121581555,18.8747222992397
0.000533708367291759,18.8834991403853
0.000602212417621064,18.8916218140468
0.00067967792790376,18.8991383156825
0.000767292012711499,18.9060936946831
0.000866404765639269,18.9125299996008
0.000978545629861993,18.9184865000168
0.00110544590962777,18.9239998791034
0.00124906636480206,18.9291043799932
0.00141162567457123,18.9338319566197
0.00159563649269544,18.9382124313737
0.00180394427696209,18.9422736516792
0.00203977650815231,18.9460416215893
0.00230679678282139,18.9495406275435
0.00260917499963913,18.9527933802874
0.00295167296555615,18.955821163029
0.00333975098468982,18.958643970328
0.00377970820796458,18.9612806665024
0.0042788681833122,18.963749171902
0.00484583260962437,18.9660666743483
0.00549084331853605,18.9682499020897
0.00621918592147488,18.9702972022278
0.00702118781067823,18.972180867823
0.00790582979069442,18.9739312444436
0.00888640748788574,18.9755782076669
0.00998278563467019,18.9771522577548
0.0112279195568986,18.9786897665648
0.0127303595635467,18.980290174189
0.0147370854277544,18.9821284754537
0.0166126934231505,18.983641660422
0.0186585333989371,18.9851548453904
0.0204979086645199,18.9864542340895
0.0221033745791056,18.9875864451421
0.0235450057654352,18.9886432726526
0.0248390373291515,18.9896738239129
0.025975826182169,18.9907150371214
0.0269275352135628,18.9918082685722
0.0276397105945364,18.9930200119693
0.0279827758630054,18.9945189833954
0.0276702088674255,18.9962364051005
0.0267200228265921,18.9979538268055
0.0255852551662622,18.9993583345864
0.0242931746963198,19.0007022869895
0.0228393465064624,19.0020778344771
0.0212315646945268,19.0035287709814
0.0194755359592333,19.0050945284203
0.0188316405020027,19.005672792801
0.0181969444279425,19.0062510571817
0.0171281020332572,19.0072596541599
0.0146596130409553,19.0097954433735
0.0124681257552132,19.012364568464
0.0104045351854719,19.0151732637353
0.00875876948529565,19.0178004402052
0.00743374138241803,19.0202716992061
0.00645644658515256,19.0223765087678
0.00570222057091963,19.0242203776183
0.00505795572235584,19.0259923688213
0.00447137265514291,19.0278086427036
0.00390510537427583,19.0298000850545
0.00330770349425094,19.0322413567104
0.00270516338103379,19.0352083500953
0.00218978419246527,19.0383609313652
0.00179819414792859,19.0413656460921
0.00146735867084556,19.0445946678379
0.00117407129280312,19.0484401802354
0.000957003875410613,19.0526524764826
0.000824450614931681,19.0573063299202
0.000794985104500241,19.0620693416595
0.000861525574905907,19.0663416771711
0.00100782267534842,19.0702255737363
0.00122615020177829,19.0737549375312
0.00151388409427706,19.0769753926116
0.00187202590690383,19.0799333126004
0.0023051424216378,19.082677192816
0.00282192664445865,19.0852568258221
0.00343787850815625,19.0877288350735
0.00417790430136394,19.0901547404494
0.00508024736609832,19.0926016108872
0.00619771476567214,19.0951333188993
0.00756028777937643,19.0977347235356
0.00907283852313247,19.1001942040393
0.0106175568453886,19.1023589608157
0.0121746069025671,19.1042553617597
0.0137873987021058,19.1059675759327
0.0155121794004352,19.1075615210454
0.0173905259283451,19.109067530487
0.0194597008035139,19.1105019275064
0.0217577671767288,19.1118753046143
0.0243231559597976,19.1131941401865
0.0271944586865039,19.1144621385723
0.0304180911622543,19.1156841160214
0.0340368889546412,19.1168613383622
0.0381096386749849,19.1179985209538
0.0426983188927339,19.1190986036274
0.04787279831578,19.1201642831718
0.0537196364466731,19.1211993554623
0.0603408852641051,19.1222075617194
0.0678586764089225,19.1231927679266
0.0764212878212498,19.1241591047257
0.0862148224783885,19.1251114277943
0.0974752679456066,19.1260553266424
0.110508895621677,19.1269974703267
0.125727127323579,19.1279463036484
0.14370649070268,19.1289131658386
0.165014019026888,19.1299020002819
0.189722823276913,19.1308952872372
0.218500145242639,19.1319041650286
0.252253694029027,19.1329447652635
0.292369307695692,19.1340446076411
0.338243449860041,19.1351865753718
0.377207313879926,19.1361054180523
0.409932073406696,19.1368722659456
0.438395995450665,19.1375631093622
0.463232664821356,19.1382157563097
0.484450007062607,19.1388548279898
0.501645977233417,19.1395022254177
0.513921297125045,19.1401836584115
0.519435055010551,19.1409392573403
0.515048273295707,19.141750456556
0.499108711824308,19.14258392665
0.470211563689609,19.1434549098686
0.426593726593125,19.1443742298147
0.366341949309921,19.1453507956811
0.323584070598135,19.1459424290418
0.277012806489209,19.1465340624024
0.23536941225859,19.1470370594015
0.199304443354075,19.147465164936
0.167403010588195,19.1478464904718
0.138712782678861,19.1481984640475
0.112636054014402,19.1485322628494
0.0887462330206422,19.1488563218303
0.0666798470507918,19.1491785148273
0.0460329588776931,19.1495086802183
0.0261076658956355,19.1498655102793
0.00409766809003538,19.1503265293875
-0.00406107636767193,19.1505237225858
-0.0115031217397783,19.1507209157842
-0.0178286319795659,19.1509048998893
-0.0238057224782464,19.1510962080975
-0.0297611729038102,19.1513083539201
-0.0354677159627082,19.1515380047202
-0.040784809468802,19.1517832905056
-0.0456354249046572,19.1520436500302
-0.0499804111821778,19.1523193972317
-0.0537999053874754,19.1526114862205
-0.0572317045251953,19.1529374600267
-0.0599339010949074,19.153265518498
-0.0621235632747764,19.1536155463651
-0.0638165588936264,19.1539908801001
-0.0650271080693607,19.154395341269
-0.0657684014837608,19.1548336556421
-0.0660510786187543,19.1553117335374
-0.0658814820622179,19.1558370886046
-0.0652588352273434,19.1564198912381
-0.0641697837199468,19.157074600527
-0.0625841697738437,19.1578206751146
-0.0604413690800338,19.1586882196971
-0.0576125569776894,19.1597313757619
-0.0537396556903232,19.1610852355147
-0.0496987081786606,19.1624689176086
-0.0458048469694077,19.1638081434105
-0.042099616075237,19.1651068626181
-0.038603442861367,19.1663670219018
-0.0353265841364045,19.1675893004317
-0.0322730501043875,19.1687737379736
-0.0294424675131657,19.1699200698149
-0.0268311531492958,19.1710279026114
-0.0244328598840403,19.1720968037304
-0.0222393726378644,19.1731263412985
-0.0202410225488274,19.1741160944941
-0.0184271427518214,19.1750656446776
-0.0167864725521784,19.1759745531631
-0.0152095241353925,19.1769016750145
-0.0136928991370603,19.1778527344064
-0.0122406753731152,19.1788296101608
-0.0108566920554294,19.1798345380766
-0.00954456260258508,19.1808701518613
-0.00830762140331238,19.1819395834488
-0.00714886796474274,19.1830465959456
-0.00607090769140863,19.1841957641094
-0.00507588853436407,19.1853927254434
-0.00416543191402421,19.1866445397903
-0.00334055483808495,19.1879602223889
-0.00260157737052953,19.189351567923
-0.00194800403348221,19.1908344926661
-0.00137835543700229,19.1924313718611
-0.000914275757785319,19.1940767520262
-0.000542240972713894,19.1957764629053
-0.000246494964846765,19.1975491322734
-1.23681897731074e-05,19.1994185376795
0.000174243305199758,19.2014171471228
0.00032748953187157,19.2035924266762
0.000462635764897104,19.2060207188792
0.000598575022171411,19.2088447168564
0.000767090044980689,19.2124220098636
0.000959284237311956,19.2162099445461
0.00119625231960872,19.2204305120776
0.00148919835426675,19.2252353465736
0.00176312790588761,19.2295252790495
0.00202759094803925,19.2335970093111
0.00228781223028842,19.237590019161
0.0025474524172087,19.241581111488
0.00280989101391788,19.2456224689565
0.00307855194695301,19.2497549833331
0.00335702904515292,19.2540145859814
0.00364910797221683,19.2584348252744
0.00395888879353796,19.2630493475508
0.00429097245148279,19.2678935343931
0.00465078705182083,19.2730057456733
0.00504056664547342,19.2783658215773
0.00543536523040544,19.2835845381973
0.00584584922802805,19.2887719811075
0.00627120950421352,19.2938743893028
0.0067160178861018,19.2989031310666
0.00718438806341982,19.3038581272894
0.00768151612873556,19.3087461820237
0.0082129311293409,19.313571510953
0.00878468008296899,19.3183370306843
0.00940332362798334,19.3230436119668
0.0100760627340304,19.3276906379865
0.0108196790657545,19.332328971149
0.0116541465870125,19.3369995538401
0.0125972808362365,19.3417054299511
0.0136749961686599,19.3464695068914
0.0149262722014953,19.3513416816935
0.016422061358437,19.3564449189818
0.0183439822634456,19.3621590338718
0.0207695449606964,19.3684868383846
0.022306200769965,19.3722127476601
0.0238639300503165,19.3759386569355
0.0252177982274138,19.3792938638372
0.026358712096258,19.3823989290976
0.0272933425434628,19.3854130105647
0.0279635490567322,19.3882787171625
0.0283670647818807,19.3910912198405
0.0284871617363765,19.3939868964105
0.0282569499541457,19.3971954055912
0.0273555351200448,19.4015937881981
0.0264818517984045,19.4043819759695
0.0254232997452678,19.4071701637409
0.024350035893439,19.4096790248296
0.0232770313453862,19.4120151262864
0.0222030250738101,19.4142572456179
0.0211302571886445,19.416447449472
0.020062267916606,19.4186113693806
0.0190027663869316,19.4207666555798
0.017955293719394,19.422926552739
0.0169231315436077,19.4251016602704
0.0159092815704612,19.4273009205658
0.0149164700682238,19.4295322231221
0.0139471593810359,19.4318028039364
0.0130035571704022,19.4341195373056
0.0120876296544808,19.4364891498686
0.0112011110150828,19.4389184021579
0.0103455092434155,19.4414142581728
0.00952212300962079,19.4439840141624
0.0087320427581487,19.4466354729691
0.00796477175918355,19.4494201535315
0.007212290327586,19.4523952009061
0.00647843089203567,19.4555829696349
0.00576707934489196,19.4590098836984
0.00508230428386875,19.4627065296958
0.00442830791038456,19.4667084417576
0.00380932751308642,19.4710572492954
0.00322948207287292,19.4758024679824
0.0026925597703454,19.4810045125019
0.00220170600621502,19.4867406668676
0.00175926643883721,19.4931136099549
0.00137326450638337,19.5001302100615
0.00105027238851265,19.5077054594807
0.000834577952418888,19.5146593524055
0.000655726778677551,19.5225494687269
0.000505003012713439,19.5316402475996
0.000391965604127332,19.5412110353925
0.000310167834657607,19.5512110353925
0.000255288116343545,19.5612110353925
0.000219634812822271,19.5712110353925
0.000197596025812099,19.5812110353925
0.000185203049329473,19.5912110353925
0.000179749188018846,19.6012110353925
0.000179439736388539,19.6112110353925
0.000183112914746973,19.6212110353925
0.000190044779996128,19.6312110353925
0.000199824295989811,19.6412110353925
0.000212277472115105,19.6512110353925
0.000227424067673763,19.6612110353925
0.000245457499617168,19.6712110353925
0.000266744199446597,19.6812110353925
0.000291842548724333,19.6912110353925
0.000321544902314566,19.7012110353925
0.000356950499881951,19.7112110353925
0.000399583872991609,19.7212110353925
0.000450281082081531,19.7309780046185
0.000507836944766302,19.7400378277417
0.000572956337175234,19.7484231375756
0.000646593983901112,19.7561828822217
0.000729871704631766,19.7633634010095
0.000824071145935025,19.7700079441739
0.000930645529318045,19.7761568935255
0.00105124002047842,19.7818479705924
0.00118771736547201,19.7871164010186
0.00134218635523506,19.7919950575947
0.00151703373470313,19.7965146166736
0.00171496269472994,19.8007037170714
0.00193903725339961,19.8045891041854
0.00219273351759942,19.8081957519817
0.00248000396351751,19.8115469989285
0.00280535436095816,19.8146646962206
0.00317394271669608,19.8175693488211
0.00359170324640159,19.8202802630347
0.0040655106084525,19.8228157216898
0.00460340355681929,19.8251931833363
0.00521489505109874,19.8274295243213
0.00591142574747979,19.8295413675751
0.00668228490236444,19.8314884069025
0.00753161769820711,19.8332896854142
0.00847083007223231,19.8349753907581
0.00951659002234737,19.8365753242332
0.0106952350747329,19.8381224988023
0.0120704855463566,19.839678814367
0.0138192666036723,19.8413847685046
0.0164909401376386,19.843610299124
0.0182165636109472,19.8448985853512
0.0200282429540752,19.8461868715783
0.0216808627427142,19.8473478788298
0.023164327625571,19.8484191991724
0.0244993958617019,19.8494530631095
0.0256817045838469,19.8504875654355
0.0266885910078716,19.8515613572638
0.0274749417901922,19.8527306168741
0.0279433338392043,19.8541178551995
0.0276909683122202,19.8562629104479
0.0269502156881281,19.85768463106
0.0258654557986264,19.8591063516721
0.0246137856979694,19.8604493914282
0.0231972025267357,19.8618126795071
0.0216244093543388,19.8632425944591
0.0199025238837703,19.8647776476268
0.0187651175500499,19.8657972818634
0.0176594491440831,19.8668169161
0.0156699816884223,19.8687829553278
0.0133718788936735,19.8713259525356
0.0112809108216287,19.8739890971979
0.00946471771958624,19.8766866350999
0.00800826546385609,19.8792174431557
0.00684274692766228,19.8815744662649
0.00600879471154273,19.883507922833
0.00532534543542411,19.8852953573421
0.00471920847290821,19.8870777324157
0.00414984597867969,19.8889695624271
0.00357703440786375,19.891152839304
0.00293744214480209,19.8940526124718
0.00238695730440173,19.8971299118997
0.00195638510818868,19.9001290494884
0.00160600750471837,19.9031970516487
0.00129635778010608,19.9067295829334
0.00104434103256035,19.9107658489132
0.000871871490372112,19.9152081144439
0.00079287802367827,19.9201500504845
0.000820457186568305,19.9246084142243
0.000933250561383866,19.9286612639661
0.00112062129560455,19.9323403339754
0.00137803014497174,19.9356907671567
0.00170493661429597,19.9387577943445
0.00210449332187023,19.9415903396359
0.00258312033374196,19.9442352315515
0.00315296997210895,19.9467463437125
0.00383444678214282,19.9491834666052
0.00465936977413954,19.9516112677362
0.00567530555929137,19.9540991892775
0.00693277059294017,19.9566841910295
0.00839082950083008,19.9592251834751
0.00993333155797601,19.9615306270267
0.0114807019068882,19.9635342465648
0.0130626940413366,19.965318745035
0.0147293774825799,19.9669570218694
0.0165382958855256,19.9685021706948
0.0185148277419534,19.9699640719123
0.0207090155179709,19.9713649539073
0.0231485384109949,19.9727059231271
0.0258800529249945,19.9739964868244
0.0289398010320695,19.9752377352102
0.0323767650319793,19.9764343752515
0.0362427685644503,19.9775895370566
0.0405925197176506,19.9787052687431
0.0454965401749949,19.979785643589
0.0510341640313708,19.9808340093779
0.0572989156818617,19.9818538321688
0.064400977781178,19.9828485802228
0.0724786301649908,19.9838226515511
0.0817000749653661,19.984780561676
0.0922765908454513,19.9857274656238
0.104478903508523,19.9866694061813
0.11866636978703,19.9876139683724
0.135332715225778,19.9885710571015
0.155192967662128,19.9895545873194
0.178323706824722,19.9905446691278
0.205204143006388,19.9915449333211
0.236619523253007,19.9925688979025
0.273693576546282,19.993637648067
0.317559263714248,19.9947729931233
0.360355166870959,19.9958008585639
0.395600896533283,19.9966245715594
0.425882110796916,19.9973439479377
0.452353591324954,19.9980105000522
0.475256605336143,19.9986529816738
0.494373110452451,19.999293696803
0.509830552245855,20
