ecg,time
0.000320555108715961,15.0078990886313
0.00026620851213304,15.0178990886313
0.000230668552417381,15.0278990886313
0.000208251972411206,15.0378990886313
0.000195044344647723,15.0478990886313
0.000188404291303551,15.0578990886313
0.000186567475345604,15.0678990886313
0.000188365880037737,15.0778990886313
0.000193043351573547,15.0878990886313
0.000200137951580179,15.0978990886313
0.000209407110390822,15.1078990886313
0.000220780671870455,15.1178990886313
0.000234333879626632,15.1278990886313
0.00025027647369425,15.1378990886313
0.000268956532349846,15.1478990886313
0.000290879696301277,15.1578990886313
0.000316746754879701,15.1678990886313
0.000347515914793179,15.1778990886313
0.000384501344646851,15.1878990886313
0.000429528536797196,15.1978990886313
0.000483244685745738,15.2075808796824
0.000544726516248985,15.2165324245927
0.00061490474768976,15.2247931788635
0.000694966265980086,15.2324164083956
0.000786278727804996,15.2394521699604
0.000890394961247514,15.2459469497984
0.0010090719474212,15.2519439203841
0.00114429666458281,15.257483187593
0.00129831677943664,15.2626020117158
0.00147367562296013,15.267335012395
0.00167325316942443,15.2717143641318
0.0019003144327083,15.2757699848188
0.00215856805495937,15.2795297166231
0.00245223745332283,15.2830195044442
0.00278615054170257,15.2862635784363
0.00316585380719967,15.2892846448191
0.0035977618987799,15.2921040908108
0.00408935936482383,15.2947422175328
0.00464948166055795,15.2972185212582
0.00528872284402557,15.2995520561401
0.00601040792908081,15.3017353322709
0.00680835976473912,15.3037496502123
0.00769329545252294,15.3056295568611
0.00868150898663735,15.3074100787909
0.00979904189382179,15.3091299554845
0.0110939675502904,15.3108425128575
0.0127313320163722,15.3127066150247
0.0152389560218765,15.3151451261492
0.016803581687273,15.3165132586833
0.0184383743941512,15.3178813912174
0.0199261539839779,15.3191176876776
0.0212586939225365,15.320262266058
0.0224510451670516,15.3213682168696
0.0234964980361502,15.322475046682
0.0243714970704521,15.3236233615156
0.0250304608322531,15.3248725630255
0.0253745782494406,15.3263530049198
0.0249980849479678,15.3286190566995
0.024232414748076,15.3301011553322
0.0231561013359025,15.3315832539649
0.0219352641426978,15.3329815320008
0.020572045695205,15.3343926725865
0.0190755137549531,15.3358624863936
0.0174536574041735,15.337428122367
0.016858709983082,15.3380044560791
0.0162730051065063,15.3385807897912
0.0141080917273999,15.3408555532072
0.0115548225172961,15.343918890217
0.00953908167244864,15.3467525671517
0.007955066325713,15.3493504016738
0.00664647205316033,15.3518421239737
0.00550229427759124,15.3543745510402
0.00449611254734955,15.3569769795005
0.00360947111600603,15.3596726867971
0.00282742103212131,15.3624851245368
0.00213727716028498,15.3654395562648
0.00157583648236878,15.3682969270569
0.00111577151708072,15.3710526234376
0.000725980321302487,15.373775184198
0.000390888006360919,15.3764833773354
0.000106230166714554,15.3791196770571
-0.000133267003506854,15.3816282555076
-0.000337838775044055,15.3840174494632
-0.000518463233417664,15.3863402483955
-0.000684817188016112,15.3886727488168
-0.000848335911244489,15.3911561990424
-0.0010418341047593,15.394343065418
-0.00114892426646122,15.3962192342123
-0.00125198684566007,15.3980954030065
-0.00134298385614709,15.3998047032972
-0.00142718487721801,15.401425881465
-0.00151049254679481,15.403062712809
-0.00159845642976751,15.404821342634
-0.00170032275907286,15.4068897338693
-0.00185097787274653,15.4099952747402
-0.00201913902669703,15.41350587972
-0.00216039282934566,15.4164816256014
-0.00230089054016989,15.4194681617747
-0.00246096297225111,15.4229235644099
-0.00265884914087123,15.4273574929433
-0.0028694517700089,15.4326119106794
-0.00301656647090127,15.4375332789729
-0.00307276059317143,15.441830379362
-0.00303696232353716,15.4455816936625
-0.00290526978747668,15.4490991849228
-0.00265886431102781,15.452542838634
-0.00230934618739482,15.4556812568381
-0.00186113029572677,15.4585666936204
-0.0013123462011201,15.4612631212602
-0.000648152930731765,15.4638545772591
0.000174951635561665,15.4664721469623
0.00125471192405991,15.4693189986563
0.00265838609443495,15.4724487548615
0.00425142377857427,15.4755566240288
0.00597680825896412,15.4785862563671
0.00723060431912244,15.48060291444
0.00859530696465068,15.4826195725129
0.00997416386935462,15.4844634498343
0.0114049994970568,15.4861758857171
0.0129422761826949,15.4878056453796
0.0146162545179967,15.4893637933736
0.0164714552528518,15.4908692844364
0.0185278547610341,15.4923165308426
0.0208232463693502,15.4937128110512
0.0233830849018479,15.495055758991
0.0262438559315895,15.4963486795264
0.0294443010619683,15.4975940745633
0.0330264679254694,15.4987941187638
0.037037344935371,15.4999510891108
0.0415370816846807,15.5010690868033
0.0465930141103308,15.5021514610846
0.0522846497852307,15.5032017339662
0.0587060236133061,15.504223499729
0.0659717711089934,15.5052207988456
0.0742216872300245,15.5061979570069
0.0836286396112314,15.5071597139241
0.0944110887676206,15.5081115076191
0.106851643234653,15.5090598141884
0.121328394084723,15.5100127991856
0.138368313541752,15.5109813533844
0.158680394877033,15.5119779996559
0.182204362726892,15.5129772933576
0.209563690708492,15.5139900075462
0.241599925199752,15.5150314825468
0.279559147534547,15.5161265714144
0.323387916557801,15.5172689199538
0.363690804455333,15.518253675598
0.397468041674884,15.5190641619389
0.426741401343388,15.5197833834498
0.452330554178012,15.5204549282756
0.474355442828648,15.5211052898425
0.492527933113471,15.5217561662946
0.506132017306745,15.5224307466913
0.513742742364174,15.5231612547933
0.512509496810014,15.5239758926752
0.500178468151651,15.5248058180647
0.475509293202822,15.5256668667715
0.43689040881984,15.5265707618357
0.382519819908774,15.5275263934459
0.33906866572142,15.5281648881534
0.290803715365834,15.5288033828609
0.247660678599716,15.5293383126924
0.210598203502629,15.5297856788886
0.177986116872179,15.5301793780719
0.148741058635629,15.5305397129373
0.122208512160975,15.5308791218231
0.0979400545696651,15.5312065274849
0.0755733208142282,15.5315297246173
0.0547393229144797,15.5318575661822
0.0348907179844085,15.532204625979
0.0144601621086732,15.5326146550833
0.00206096693230426,15.5329021906736
-0.00527555784196194,15.5330916938167
-0.0119783588735598,15.5332811969598
-0.017815822470242,15.533462183387
-0.0237766952192054,15.5336663786125
-0.02958633441834,15.5338896896397
-0.0350625661563112,15.5341293857184
-0.0401036611077324,15.5343843583979
-0.0446558036890944,15.5346545560098
-0.0486937673229661,15.5349406595318
-0.0523531997143041,15.5352588288062
-0.0552770570124896,15.5355792080105
-0.0576850232474544,15.5359204106123
-0.0595922311030992,15.5362854855289
-0.0610127959430808,15.5366779062017
-0.0619605359191905,15.5371019530315
-0.0624474862278529,15.5375629460322
-0.0624823081812921,15.5380675873065
-0.0620683506744309,15.5386244874371
-0.0611988254751456,15.5392462854639
-0.0598530455897142,15.5399494989449
-0.0579883316800661,15.5407582592306
-0.0555179250627527,15.541712431667
-0.0522378970851779,15.5428938888074
-0.0481988335993539,15.5443005256683
-0.0442803397254203,15.5456578639636
-0.0405372966442293,15.5469726572073
-0.0369968063249317,15.5482479165032
-0.0336725396626082,15.5494848728728
-0.0305705407713608,15.5506838526104
-0.0276918013894666,15.5518447365622
-0.0250336216269923,15.5529672016448
-0.022590479365493,15.5540508461709
-0.0203546842130549,15.5550952505711
-0.0183169231077155,15.5561000002174
-0.0164667375659574,15.5570646846183
-0.014792945713479,15.5579888807976
-0.0132254303608579,15.5589075113492
-0.0117172954266564,15.5598496473417
-0.0102730690689259,15.5608168586823
-0.00889669830593424,15.5618112577971
-0.0075919351016807,15.562835322752
-0.00636228380820106,15.563891989876
-0.00521094967541818,15.5649847732666
-0.00414078515671248,15.566117925724
-0.00315423397699627,15.5672966605389
-0.00225327254132415,15.5685274655793
-0.00143934760201595,15.569818562685
-0.000713307979659122,15.5711806062895
-7.53260092131213e-05,15.5726277981171
0.00047519995959351,15.5741797773767
0.00092653534176312,15.5758100026374
0.00127853711943149,15.5774875750237
0.00154740024112703,15.5792308121372
0.00174762680331554,15.5810611707174
0.00189283324441963,15.5830073803605
0.00199616807108903,15.5851102916648
0.00207093992764547,15.5874330480777
0.00213183552937784,15.5900862118445
0.00219842223563383,15.5933112034321
0.0022884845791085,15.5970510070568
0.00241099521665257,15.6010614397059
0.00255297765927635,15.6049119466931
0.00270982536848559,15.6086824680211
0.00287823001436718,15.6124447478335
0.00305612432642407,15.6162478468265
0.0032428159222385,15.6201299133078
0.00343884098241825,15.6241238891299
0.00364575216574259,15.6282605358553
0.00386592333955905,15.6325703985823
0.00410240571798327,15.63708520306
0.00435889905485125,15.6418392270263
0.00463991099528728,15.6468707501947
0.00495118208116304,15.6522233099906
0.00528373014581084,15.6576759767079
0.00562653086210937,15.6630007592279
0.00598527597853591,15.6682488118365
0.00636156180118735,15.6733983113537
0.0067597055456734,15.6784636780771
0.00718390778819941,15.683451911914
0.00763886475349347,15.6883707208378
0.00812954437917562,15.6932247589479
0.00866132137228481,15.6980164440854
0.00924005350044691,15.7027460215571
0.00987220022524472,15.7074120989777
0.0105649497998236,15.7120122730335
0.0113436910924885,15.7166417025402
0.0122226671047829,15.7212917360336
0.0132235815103342,15.7259769712311
0.014376612799706,15.7307264457256
0.0157307562511375,15.735610051787
0.0173858599488881,15.7408113354352
0.0196738133660801,15.7470353444006
0.0213974083592514,15.7512497057208
0.0232107723387433,15.7554640670409
0.0247622664513091,15.7590645660667
0.0260628065725693,15.7622495354171
0.0271534196086168,15.765247692704
0.0280162742335071,15.7681436696575
0.0286100726881864,15.7709132040639
0.0289345389776223,15.7736739477646
0.0289610992822593,15.7765753789256
0.0285861816506773,15.7799282088194
0.0278154706986918,15.7832551829718
0.026709438017465,15.7865821571241
0.025618789063227,15.7892814855376
0.0245476659340414,15.7916686619671
0.0234770966227528,15.7939112036779
0.0224051584776363,15.7960762407435
0.0213346525846185,15.7981984158892
0.0202692614646449,15.8002995484199
0.0192126631325511,15.8023950711978
0.0181683100479734,15.8044967770348
0.0171393738669633,15.8066142300225
0.01612874056496,15.8087555780182
0.0151390208926285,15.810928062356
0.0141725616507734,15.8131383684987
0.0132314609548918,15.8153928730023
0.0123175783405241,15.8176978439199
0.0114325438660513,15.8200596103382
0.0105777739005437,15.8224846956071
0.00975447315354209,15.8249799806704
0.00895825136919331,15.8275710671168
0.00817266047969507,15.8303336773706
0.00740148095801756,15.833287398492
0.00664849595591517,15.8364557329345
0.00591773651724923,15.8398658721192
0.00521345633956361,15.8435493905471
0.00454008093485569,15.8475431215525
0.00390212261871265,15.8518903081025
0.00330402485243076,15.8566424395928
0.00274991061405699,15.8618626157625
0.00224326988852725,15.8676316711393
0.00178670261994542,15.8740584346316
0.00139670853110788,15.8809954412222
0.00107448435958259,15.8884789947892
0.000875299358752216,15.894808171866
0.00067515167403612,15.903250598063
0.000518124305385308,15.9123582693669
0.000396093334458595,15.9223582693669
0.000312401352775025,15.9323582693669
0.000256037879410547,15.9423582693669
0.000219007920915686,15.9523582693669
0.000195557895904277,15.9623582693669
0.000181670144097943,15.9723582693669
0.000174614964948809,15.9823582693669
0.00017257018319213,15.9923582693669
0.000174335799174615,16.0023582693669
0.00017914019175611,16.0123582693669
0.000186515598412886,16.0223582693669
0.000196219773730434,16.0323582693669
0.000208187660074012,16.0423582693669
0.000222503945926658,16.0523582693669
0.000239392119763394,16.0623582693669
0.000259218514407219,16.0723582693669
0.000282511997889921,16.0823582693669
0.000310002327170315,16.0923582693669
0.000342683495070324,16.1023582693669
0.000381913624161964,16.1123582693669
0.000429571796952282,16.1223582693669
0.000487483615236306,16.1322299224
0.000553816275907616,16.1413514717185
0.000629500451773067,16.1497581035021
0.000715785160775204,16.1575064534391
0.000814122780502155,16.1646497308572
0.000926168320160412,16.1712371391308
0.00105379791561719,16.1773142069523
0.00119913662744949,16.1829231032937
0.00136459235481836,16.1881029090005
0.0015528952473372,16.1928898616732
0.00176714370041015,16.1973175887073
0.00201086028656815,16.2014173311826
0.00228805968312324,16.2052181561328
0.00260333278886277,16.2087471644984
0.00296195519367185,16.2120297086897
0.00337002796276019,16.2150896269662
0.0038346680140753,16.2179495026632
0.00436427286940281,16.2206309746364
0.00496890452379273,16.223155138237
0.00566087402713727,16.2255431029473
0.00642881323707534,16.2277464872258
0.00728231923511039,16.2298002942688
0.00823801914096738,16.2317448215046
0.00932307390733957,16.2336253742892
0.010589361361822,16.2355065139192
0.0121920184000452,16.2375527873615
0.0139214660440193,16.2394830316049
0.0154160166490614,16.2410047960251
0.0169886036162506,16.2425265604453
0.0183902532310713,16.2438661446832
0.0196373988013862,16.2450927679589
0.0207501745896925,16.2462690867926
0.0217244251922498,16.2474376762975
0.0225398636248277,16.2486392529859
0.0231571961144646,16.2499291725725
0.0234959720223046,16.2514173429219
0.0232760228503794,16.2535377711194
0.0226101077912807,16.2551423398277
0.0216016939852945,16.2567469085361
0.0204618382940822,16.2582085100398
0.0191953901529006,16.2596535005883
0.0178103091027079,16.2611369959373
0.0163160432185146,16.2626960784863
0.0153477948540907,16.2637059399516
0.0144145811702875,16.2647158014169
0.0121656331082739,16.2673718663476
0.0100632336503037,16.2702323311426
0.00838465519031728,16.2728884607776
0.00702171042164965,16.2753871234963
0.00583083369937959,16.2779168452563
0.00478276989350377,16.280510063859
0.00385805180965815,16.2831905830453
0.00308376814838444,16.2858239538834
0.00245420721471785,16.2883201059218
0.00193280562745435,16.2907081530108
0.00149117400236779,16.2930265741989
0.00110670660647742,16.2953267997931
0.000758798470434324,16.2976928311719
0.000419670679767341,16.3003242585538
0.000152576546936799,16.3026745718962
-8.62063700821501e-05,16.3050248852387
-0.00026467211317762,16.3069593938055
-0.000410213584762389,16.3086633063997
-0.000541499878350651,16.3103063524518
-0.000668025504640969,16.3119916777326
-0.000798284082073445,16.3138372129616
-0.000946961987004017,16.3160872385457
-0.00119776402491543,16.3202415787317
-0.0014099941032185,16.324117521931
-0.00157627498960342,16.3273857654407
-0.00174105959358035,16.3308265784281
-0.00193121665248056,16.3350664720722
-0.00216519051495815,16.3408313916183
-0.00233363738424375,16.3458840955596
-0.00243498986998023,16.3504637919354
-0.00245700216133023,16.3545791726429
-0.00239111833900068,16.3582846442146
-0.00223219411694568,16.3616326567429
-0.0019769461218445,16.364687547681
-0.00162089307698631,16.3675175023483
-0.00115464479653478,16.3701952803712
-0.000557088695501847,16.372810222251
0.000218836429866064,16.3754913451902
0.00128992707647001,16.3784846017532
0.00266315071498426,16.3816838350663
0.00441472172321008,16.3852077338352
0.00567519752469358,16.3874889334723
0.00705273058746523,16.3897701331094
0.00842040597384485,16.3918186363714
0.0097507019404829,16.3936059583019
0.0111740014279381,16.39530752301
0.012702020218804,16.3969173526704
0.0143870653800303,16.3984699367608
0.0162496066950656,16.3999615636304
0.0183258872969871,16.4014007748472
0.0206413269491953,16.4027859769414
0.0232258542722985,16.4041183092472
0.0261155747043476,16.4054009222448
0.0293465943926646,16.4066353249814
0.0329597709311074,16.4078236144511
0.0370074523017092,16.4089698539301
0.0415470783659887,16.4100771630413
0.0466458892207742,16.4111488444445
0.0523828659031891,16.4121882912824
0.0588516716744098,16.4131990306558
0.0661667955406395,16.4141850734905
0.0744661059265091,16.415150504195
0.083919489153949,16.4160998015661
0.094739932822579,16.4170380256693
0.107200063578635,16.4179710932891
0.121659329871527,16.4189062955853
0.138607509295647,16.4198530179612
0.158746390729951,16.4208242710878
0.182245928857046,16.4218045318128
0.209514414906373,16.4227935512408
0.241323964517829,16.4238039187726
0.278764046619741,16.4248550481606
0.323676639035232,16.4259848908417
0.358525084626182,16.4268002651319
0.394507320492911,16.4276156394221
0.426506925132059,16.4283437044106
0.454520542408924,16.4290102228682
0.478924050811645,16.4296462171617
0.499634848814212,16.4302751673176
0.516147395746479,16.430919736914
0.527369315784254,16.4316090822111
0.530939854550306,16.4323946720738
0.523699944748743,16.4332033929665
0.504421937852989,16.4340412553336
0.471531287972882,16.434922955162
0.423108691737293,16.435858568819
0.375110528210402,16.4366048877156
0.319721235761111,16.4373512066123
0.270828199041998,16.4379528945722
0.229982465696549,16.4384349635534
0.194706924522873,16.4388473575129
0.163405503167579,16.4392180939693
0.13519217871891,16.4395628201725
0.109508680889497,16.4398917998129
0.0859418886966483,16.4402131648889
0.0641192839573488,16.440535057263
0.04358417648944,16.4408687470078
0.0233963354187902,16.4412394128319
0.0084640553609723,16.4415534759078
-5.00589133280858e-05,16.4417539011962
-0.00780490268047491,16.4419543264846
-0.0142716818523801,16.442137936911
-0.0202567873518224,16.4423247310394
-0.0262598907766791,16.4425328025134
-0.0320397944350539,16.4427586635997
-0.0374439131812072,16.4430002410476
-0.0423879425499464,16.4432568348049
-0.0468283719115236,16.4435286578873
-0.0507462652104982,16.4438165822031
-0.0541304972480643,16.444122018565
-0.0569732125421524,16.4444461788771
-0.0592800288507923,16.4447897858923
-0.061085714835689,16.4451579386147
-0.0624049327170006,16.445554327159
-0.0632514458046189,16.4459834823723
-0.0636367827799335,16.4464510604885
-0.063568546347389,16.4469642322783
-0.0630481473684645,16.4475323799513
-0.0620650766885094,16.4481693982652
-0.0605933233049168,16.4488934527332
-0.0585798727117837,16.4497321619141
-0.0559138963270604,16.4507335687177
-0.052308055946201,16.4520082693691
-0.0482522352292057,16.4534050228023
-0.0443301673750374,16.4547562329465
-0.0405904006409042,16.4560665654411
-0.0370565678388896,16.4573383088145
-0.0337406979286379,16.4585723019391
-0.0306479683399041,16.4597686500158
-0.0277788660593183,16.4609271056643
-0.0251303733245659,16.4620472694478
-0.0226967566760975,16.463128693021
-0.0204701814672391,16.4641709274122
-0.0184412365817793,16.4651735386046
-0.01659939964028,16.4661361023546
-0.0149334513368794,16.4670581848127
-0.0133682650165013,16.4679778145764
-0.0118627257414493,16.4689210116224
-0.0104213027878189,16.4698893849043
-0.00904793301341953,16.4708850610908
-0.00774635624624253,16.4719105367041
-0.00652006291030466,16.4729687716287
-0.00537224235460336,16.4740633102326
-0.00430572901456927,16.4751984446584
-0.00332294635718378,16.4763794401431
-0.00242584816969046,16.4776128545699
-0.00161585608399176,16.4789070066571
-0.000893791079021614,16.4802726894332
-0.000259794539941277,16.481724311573
0.000286770004637259,16.483281839204
0.000733078683818729,16.4849137851632
0.00108085269634037,16.4865939656732
0.00134615742343064,16.4883407093504
0.00154343505339353,16.4901757465655
0.00168625493402,16.4921282428349
0.00178773518436861,16.4942398096765
0.00186117994133456,16.4965750734501
0.00192133156104182,16.4992480549611
0.00198805215756102,16.502511512869
0.00207789622035796,16.5062544912128
0.00219540209256165,16.5101333876746
0.00233293518905686,16.5139176887983
0.00248679836507616,16.5176805480826
0.00265342790845859,16.5214747328522
0.00283040436624721,16.5253402838448
0.00301669891858794,16.5293110509406
0.00321257270358736,16.533418186725
0.0034193695716675,16.5376922701895
0.00363930275283091,16.5421648284524
0.00387530700154785,16.5468696764523
0.00413104403272947,16.551844393075
0.00441113914756931,16.557131656153
0.00472175102211147,16.5627806569677
0.00503792310489912,16.5682719979843
0.00536658864732289,16.5736902293196
0.00570788791717548,16.5789912210037
0.00606592309586455,16.5841955477467
0.00644426277509461,16.5893110193668
0.00684699906815946,16.5943490209167
0.0072783065203323,16.5993169306153
0.0077426291053595,16.6042197941022
0.008244750164806,16.6090602268477
0.00878992584298064,16.6138390120552
0.00938399102652816,16.6185553713416
0.01003346223613,16.6232072953498
0.0107489970585372,16.627812549829
0.0115545895175635,16.6324478568121
0.0124655171629769,16.6371059893872
0.0135053459226541,16.641804835035
0.0147079186918127,16.6465812051811
0.0161309926110259,16.6515245122548
0.0179036775418927,16.656883990014
0.0203704532944347,16.6633501693252
0.0219935525406329,16.6672234416011
0.0236711266593905,16.671096713877
0.0251389874885809,16.6745354287805
0.0263788459373999,16.6776498218932
0.0274119449222556,16.6806234376997
0.0281990991154575,16.6834726217779
0.0287191965325589,16.6862276959489
0.0289657598282509,16.6890101823918
0.0288975865734549,16.6919916367213
0.0283587043586054,16.6956133884763
0.0275536913554076,16.6986636906405
0.0264826046904042,16.7017139928047
0.0254046828371017,16.7043157409709
0.0243349405079457,16.7066663211109
0.0232640147485118,16.7088909349009
0.0221919883916504,16.7110464382114
0.0211220100948558,16.7131641010948
0.0200577975607967,16.715264209171
0.0190029927637431,16.7173613687097
0.0179609925139389,16.719466894629
0.0169349096956203,16.721590068291
0.0159275715608182,16.7237388805709
0.0149415322313952,16.7259205026131
0.0139790852361223,16.728141614142
0.0130422754318168,16.7304086477192
0.0121329151250004,16.7327279705575
0.011252587754222,16.7351060666075
0.0104026631653958,16.7375496759876
0.00958430808768025,16.7400659413491
0.00879004682177324,16.7426915649596
0.00800715325137493,16.7454926553633
0.00723941336639369,16.7484895550489
0.00649065763519636,16.7517065155939
0.00576496147822652,16.7551716170012
0.00506661169915166,16.7589175174047
0.00440005586198256,16.7629823513551
0.00376980363149066,16.7674109933029
0.00318025217716646,16.7722571366863
0.00263542039225672,16.7775870907174
0.00213862465218044,16.7834867718477
0.0016931842939199,16.7900576643836
0.00131684680115772,16.7971037858353
0.00107225607193898,16.8032267503659
0.000838483708756648,16.8110530876601
0.000652370159063906,16.819472490558
0.000503979973968114,16.8286588348208
0.000390310035988782,16.8386588348208
0.000312951037265766,16.8486588348208
0.000261362506375676,16.8586588348208
0.000227875798548297,16.8686588348208
0.000207053410490032,16.8786588348208
0.00019515714117521,16.8886588348208
0.000189671307083104,16.8986588348208
0.000188923261844257,16.9086588348209
0.000191815346502646,16.9186588348209
0.00019764944995407,16.9286588348209
0.000206015825578838,16.9386588348209
0.000216723312903318,16.9486588348209
0.00022975696328797,16.9586588348209
0.000245255825697687,16.9686588348209
0.000263507742049946,16.9786588348209
0.000284960634350534,16.9886588348209
0.000310252157436031,16.9986588348209
0.000340262652439582,17.0086588348209
0.000376200976677115,17.0186588348209
0.000419740455683894,17.0286588348209
0.000473022972079464,17.0386224102751
0.000534076566973057,17.0478403686701
0.000603745829063219,17.0563430396112
0.000683185391557305,17.0641857542571
0.00077374152987991,17.0714207849538
0.000876948540336811,17.0780965949288
0.000994544199952935,17.0842581227564
0.00112849479633813,17.0899470637962
0.00128102558145868,17.09520211775
0.00145465611788393,17.1000592119078
0.00165224069595422,17.1045517123981
0.00187701712383123,17.108710626854
0.00213266467335451,17.1125647980719
0.0024233754641769,17.1161410923133
0.00275394383940538,17.1194645910159
0.0031298803612222,17.1225587919819
0.00355756197972372,17.1254458250404
0.00404443418787047,17.1281466966529
0.00459929389712755,17.1306815865602
0.00523270130378254,17.1330702320231
0.00594972941906246,17.1353100315731
0.0067432451251544,17.1373770776568
0.00762426905596591,17.139307341181
0.00860976699256668,17.1411377374193
0.00972729006161826,17.1429098515278
0.0110290770928018,17.1446829279954
0.012694134012653,17.1466338219762
0.0145277764282148,17.1485090226792
0.0160993667986963,17.1499725856179
0.0177549333532255,17.1514361485566
0.0192328098907786,17.152724842014
0.0205499304767304,17.1539050582145
0.0217282860516524,17.1550376872789
0.0227641645944218,17.156164186048
0.0236369472831332,17.1573244531862
0.0243062359526857,17.1585732667167
0.0246885872845238,17.16002095801
0.0244834511020472,17.1621214814531
0.0238087338626988,17.1636745046717
0.0227836274969477,17.1652275278902
0.0216156584726554,17.1666524788665
0.0203097541266639,17.168069666133
0.0188742927877016,17.1695320804713
0.0173184439175519,17.1710769538739
0.016352089924294,17.1720365403054
0.0154121325178164,17.1729961267369
0.0130707298658031,17.1755951295541
0.0107521977547459,17.1785594752944
0.00892233542136514,17.181292427518
0.00746200310980335,17.1838279864551
0.00621707349369769,17.1863351801232
0.00512484608649974,17.1888953810348
0.00416288634510002,17.1915344942173
0.00331429648521347,17.1942757077191
0.00256510507072826,17.1971430574004
0.00193496665518737,17.2000054587986
0.00142771409018729,17.2027191556134
0.00100765754053383,17.205335321703
0.00065077646519576,17.2078985663693
0.000343314052853176,17.2104236554579
7.72813491773297e-05,17.2128993790551
-0.000155470035356152,17.2153298208696
-0.0003654387562041,17.2177679500539
-0.0005673459124622,17.2203600109014
-0.000803081494456224,17.2237228200059
-0.000926837037928502,17.2256405950251
-0.00104430704186058,17.2275583700442
-0.00114699924213299,17.2293107525668
-0.00124130618299248,17.2309796347908
-0.00133390824791526,17.2326704481383
-0.00143102968597707,17.2344947840691
-0.00154308091257914,17.2366575284486
-0.0017124759574412,17.2400263109353
-0.00188648120320129,17.2435871815375
-0.00203111840042215,17.2466125970507
-0.00217567277527405,17.2496958467937
-0.00233973472318273,17.2532878903964
-0.00254056081904582,17.2579188940255
-0.00274006323394222,17.2631697704965
-0.00287162133441358,17.2680408875553
-0.0029120814370101,17.2723021731624
-0.00285959716684137,17.2760384756936
-0.00270685157173646,17.2795503463682
-0.00244511073200573,17.2828570182776
-0.00207719146170031,17.2859176820959
-0.00160486363944791,17.2887657206378
-0.00102369744360453,17.2914571116735
-0.000316331483483144,17.2940703388388
0.000569684832008678,17.2967484467588
0.00177753855060421,17.2997797076665
0.00328797484656578,17.3029959686104
0.00494645426798582,17.3060952463876
0.00629194868380476,17.3083732848946
0.00776536852423635,17.3106513234016
0.00919655669956725,17.3126496288096
0.0106236008790931,17.3144358487966
0.012128651503419,17.3161110708387
0.0137559609543732,17.3177076102046
0.0155373048270506,17.3192366718249
0.0175122897269409,17.3207113110693
0.0197042786735713,17.3221289483086
0.0221494137690225,17.323494959324
0.0248798911519879,17.3248103358987
0.0279277837745012,17.3260753349368
0.0313379643547242,17.3272943463191
0.0351567167687323,17.3284699628773
0.0394363468816448,17.3296048150389
0.0442400601212026,17.3307023786309
0.0496429312676815,17.3317663864909
0.0557327853215363,17.3328004505469
0.0626149051111275,17.3338083961991
0.0704163578738208,17.3347942521809
0.0792948318679403,17.3357626101469
0.0894475579761113,17.3367186045882
0.101126936412564,17.3376682357406
0.114665517031576,17.338618875224
0.130517817628851,17.3395800860109
0.149339016196292,17.3405652627975
0.171387523314399,17.3415630510415
0.196979819996924,17.3425693491854
0.226851433524223,17.3435972881119
0.262038953829721,17.344666711379
0.304075129766848,17.3458098913002
0.338627023045079,17.3466799329084
0.374544017589877,17.3475499745166
0.406533395933153,17.3483223805481
0.434539954566972,17.349023875356
0.458963243943208,17.3496872587088
0.479772783563893,17.3503364622275
0.496556097469354,17.3509929908945
0.508420892582228,17.3516817639611
0.51358252921847,17.3524404927467
0.509001156384326,17.353258700984
0.492997231268041,17.3540972251402
0.464206750839981,17.3549707089683
0.420944710622557,17.3558896047362
0.361381275811593,17.3568634437518
0.319754662540431,17.3574456053081
0.274520931081296,17.3580277668644
0.233950396921076,17.3585250664993
0.19865649610808,17.3589506596655
0.167342393444996,17.359331153205
0.13912645657838,17.3596832208162
0.11344727628869,17.3600177098469
0.0898982312570698,17.3603429219309
0.0681270527374361,17.360666724514
0.0477335985620657,17.3609991253274
0.0280056299051473,17.3613595861244
0.00589992286823302,17.3618334871072
-0.0019745386787015,17.3620287643496
-0.00916396529443219,17.3622240415921
-0.0153578592232765,17.3624086301841
-0.021310431851809,17.3626040377507
-0.0272086413733587,17.3628199378471
-0.0328374459809187,17.363053130047
-0.0380665719544207,17.3633019166059
-0.0428251534288125,17.363565854319
-0.0470777178057706,17.3638453437861
-0.0508051771793117,17.3641414107317
-0.0540815874097726,17.3644650000016
-0.0567094472778704,17.3647971217034
-0.0588296139634849,17.3651516824379
-0.0604571539250914,17.3655320053227
-0.0616061865899346,17.3659419991799
-0.0622896866384934,17.366386499921
-0.062517970156552,17.3668715595467
-0.0622969479838571,17.3674048805123
-0.0616249839617626,17.3679970868997
-0.0604878201407805,17.3686629341592
-0.0588539741213999,17.3694225864731
-0.056660161317663,17.3703075196841
-0.0537701571131673,17.3713753461309
-0.0497890093911725,17.3727763999716
-0.0458154018661765,17.3741516381944
-0.0419996172937212,17.3754825162564
-0.0383778942551238,17.376772934083
-0.0349681904596622,17.378024688638
-0.0317791177533257,17.3792383949557
-0.0288134337802647,17.3804140746743
-0.0260697534654505,17.3815514675642
-0.0235435645504441,17.3826501946892
-0.0212279479697902,17.3837098405183
-0.0191141592066311,17.3847299885297
-0.0171921299840352,17.3857102285374
-0.0154509112592935,17.3866501456454
-0.0138610614735595,17.3875599125385
-0.0123285418857552,17.3884927675372
-0.010858340073963,17.3894499555898
-0.00945446372502467,17.3904334674391
-0.00812074717902342,17.3914456281078
-0.00686079639828715,17.3924891826031
-0.00567793834503628,17.3935674028947
-0.00457516806100801,17.3946842308294
-0.00355509354131429,17.3958444732235
-0.00261987812713536,17.3970540750757
-0.00177117962218422,17.3983205138976
-0.00101008440322858,17.3996533897875
-0.000337033120229957,17.4010653482555
0.000248268713095798,17.4025736054673
0.000743619659639858,17.4041901780683
0.00113265707617991,17.4058470836799
0.0014326771880175,17.4075627350157
0.00165862139571202,17.4093565281423
0.00182442233800396,17.4112539829977
0.00194337127181426,17.4132904593699
0.00202864927884693,17.4155186990547
0.0020942446542372,17.4180260932065
0.00215717989309717,17.4209846801252
0.00224268730520933,17.4247239675845
0.00235302712158649,17.4285787282754
0.00248577478282034,17.432359143331
0.00263788851821582,17.4361212992563
0.00280565892064947,17.4399168325256
0.0029861340276174,17.4437853408342
0.00317772835900437,17.4477604612612
0.00338027714227703,17.4518732147927
0.00359488288462679,17.4561541390857
0.00382370786842604,17.4606347643217
0.00406981538987741,17.4653489529836
0.00433716090126211,17.4703343500113
0.00463082708017599,17.4756336886904
0.00495370109016165,17.4812289412199
0.00528100748276086,17.4866301810945
0.00562306914525875,17.4919744368422
0.0059793390455745,17.4972056108001
0.0063544142750975,17.5023477001468
0.00675199755285334,17.5074061397463
0.00717647384123616,17.5123911687932
0.00763234127716752,17.5173088221281
0.00812444201939963,17.5221630657977
0.00865801303138797,17.5269554825542
0.00923881593501495,17.5316858568187
0.00987324614102459,17.536352548807
0.0105684561529135,17.5409530572867
0.0113500163705798,17.5455832948687
0.0122321298584761,17.5502341133679
0.0132366307862512,17.5549204396057
0.0143939383675398,17.559671850115
0.0157536309501789,17.5645595641434
0.017417399357252,17.5697712694148
0.0197290048030313,17.5760386732485
0.0214428831497335,17.580218995276
0.0232431306349542,17.5843993173036
0.0247876185368716,17.5879852668027
0.0260835029635253,17.591164199002
0.0271698456889253,17.5941601507787
0.0280270528671331,17.5970523908562
0.028615400874277,17.5998206934706
0.0289341667631965,17.6025828846377
0.0289539222989863,17.6054897939553
0.028568092418462,17.6088595879742
0.0277958957050447,17.6121618984054
0.0266945167414053,17.6154642088366
0.0256052127532169,17.6181571302869
0.0245342809861708,17.620542554988
0.0234637089490241,17.6227844871427
0.0223917374614176,17.6249493966153
0.0213211933824339,17.6270717483059
0.0202557625075578,17.6291732916938
0.0191991210114699,17.631269429342
0.0181547176352418,17.6333719445061
0.0171257198455003,17.6354904043121
0.0161150089170029,17.6376329699758
0.0151251910053941,17.6398069044336
0.0141586082674855,17.6420189234155
0.0132173540350515,17.6442754434586
0.0123032838612357,17.6465827814279
0.0114180235856124,17.6489473284409
0.0105629860256687,17.6513756834295
0.00973937305782495,17.6538748194475
0.00894330065407622,17.656468756571
0.00815789932931485,17.6592345765685
0.00738695771865549,17.6621919032023
0.00663426087879873,17.6653643072596
0.0059038413459942,17.6687790630652
0.00519995347720457,17.6724678472314
0.00452702268614216,17.676467617413
0.00388955976181857,17.6808217708803
0.00329200404309648,17.6855819973691
0.0027384709528716,17.6908116692055
0.00223243779184018,17.6965920270088
0.00177648900260284,17.7030325025704
0.00138743829047308,17.7099786492397
0.0010706224304214,17.717472973456
0.000812206140434795,17.7261204290109
0.000643660578439153,17.7338913199897
0.000492932010779297,17.743288933034
0.000380302456970348,17.753288933034
0.000303342615054366,17.763288933034
0.000251790753928129,17.773288933034
0.000218155420256794,17.7832889330341
0.000197077431743279,17.7932889330341
0.000184845544537306,17.8032889330341
0.000178953549911143,17.8132889330341
0.000177733913335623,17.8232889330341
0.000180091497220602,17.8332889330341
0.000185326692683459,17.8432889330341
0.000193022962358829,17.8532889330341
0.000202976284906082,17.8632889330341
0.000215151917123094,17.8732889330341
0.000229660661671149,17.8832889330341
0.000246751069397575,17.8932889330341
0.000266816601678774,17.9032889330341
0.000290418895072115,17.9132889330341
0.000318330784502332,17.9232889330341
0.000351606412437941,17.9332889330341
0.000391691658176158,17.9432889330341
0.000440598274424561,17.9532889330341
0.000498658604154348,17.9629083633093
0.000565077639190274,17.9717923752115
0.00064085754863595,17.9799841272973
0.000727266238675437,17.987538208672
0.000825764897857603,17.9945056756395
0.000938013900888519,18.000933818193
0.0010658938819167,18.0068664611423
0.00121153395934101,18.0123442434556
0.00137734556521005,18.0174048631439
0.00156606096156684,18.0220833041846
0.00178077936769415,18.0264120526924
0.00202502152291082,18.0304213044082
0.00230279713178922,18.0341391622454
0.00261868742372852,18.0375918331745
0.0029779514749514,18.0408038335185
0.00338666410008751,18.043798207755
0.00385190044152792,18.0465967706445
0.00438199229805189,18.0492203955534
0.00498689672783768,18.0516893817934
0.00567875194795321,18.0540239593647
0.00644571321423767,18.0561757916856
0.00729668220949038,18.0581781417153
0.00824703015114727,18.0600689155875
0.00932120045370482,18.0618893217677
0.0105638066734669,18.0636945824507
0.0120990096585335,18.0656132417659
0.0144216025269952,18.0680942902364
0.0159309173977723,18.0695403022851
0.0175150826980787,18.0709863143337
0.018955724918478,18.0722864381653
0.0202416792945779,18.0734812446944
0.0213908095334642,18.0746291285458
0.0223985076393502,18.0757715695069
0.0232437397177089,18.0769489605266
0.0238856615575383,18.0782171987698
0.0242395321671453,18.0796899403655
0.023991603499997,18.0818479988398
0.0233012733578877,18.0834072099747
0.022274373366313,18.0849664211095
0.0211096388149669,18.0864020508168
0.0198114917377369,18.0878306582849
0.0183884777900666,18.0893041668764
0.0168497672975395,18.0908595138459
0.015844216858788,18.0918772298881
0.0148750159678184,18.0928949459302
0.0125618810393967,18.0955454540824
0.0103620978605512,18.0984520631876
0.00861685644799072,18.1011403790675
0.00721372459579112,18.1036485468316
0.00599892315934298,18.1061659670533
0.00493140393656043,18.1087422838367
0.00399045557199355,18.1114020040244
0.00315988759008355,18.1141683822588
0.002452268358032,18.1169538326606
0.00188474289926754,18.119577771219
0.0014198303893068,18.1220732389584
0.00102950655977049,18.1244813231505
0.000694055496619658,18.1268405837134
0.000399461579551422,18.1291867414429
0.000134453649760769,18.1315639436819
-0.000114277492212725,18.1340696764082
-0.000378844350436612,18.1370788464194
-0.000538792424113552,18.1390940625668
-0.000687255735452181,18.1411092787141
-0.000811691732496838,18.1429114380183
-0.000920643396066132,18.1445765776194
-0.00102350933217073,18.1462242382408
-0.0011269972132013,18.147955454661
-0.0012394162323917,18.1499178218588
-0.0013816638080117,18.1525171991296
-0.00160668795336626,18.1568694178969
-0.00178766807589942,18.1605611431287
-0.00194311560814444,18.1638567839536
-0.00211042241562245,18.1675373487889
-0.00231585787718639,18.1723081835102
-0.00252341627225265,18.1777202915685
-0.0026660740074395,18.1826235468374
-0.00272769379723421,18.1870114923853
-0.00269798216469223,18.1909374285343
-0.00257148822568965,18.1944751448451
-0.00234530454472128,18.1976999781306
-0.0020163985348209,18.2006823521667
-0.00158038474851544,18.203478990697
-0.0010283062097373,18.206147628927
-0.000336664334115672,18.2087745053118
0.000550404428699113,18.2114982894287
0.00174799807094564,18.2145347047863
0.00326814500690301,18.2178071770151
0.00497028145012338,18.2210299360898
0.00622578385722971,18.2231912795728
0.00759376142943048,18.2253526230558
0.00895487896169745,18.2273007967084
0.0103644282499128,18.229109863352
0.0118254514140937,18.2307747999072
0.013423403760532,18.2323783327768
0.0151695244786725,18.2339092605283
0.0171105741554117,18.2353879571191
0.0192657788919579,18.2368086412352
0.021672754569615,18.238178132325
0.0243590729602447,18.2394952927247
0.0273606330198156,18.240762682382
0.0307188418452688,18.2419834785652
0.0344785908337391,18.2431602278133
0.0386896792038582,18.2442952946668
0.0434151546871132,18.2453926078748
0.0487269696455099,18.2464556376046
0.0547098844900169,18.247487918154
0.061465168249608,18.2484931677012
0.0691143185504579,18.2494752434226
0.077807604277964,18.2504385410009
0.087731104212995,18.2513878532849
0.0991205742090646,18.2523286903035
0.112282262591374,18.2532676630774
0.127626500484246,18.2542130873061
0.145728013904629,18.2551761523239
0.167182221176871,18.2561620575315
0.19203655574835,18.2571520223571
0.220955040759997,18.2581569537172
0.254837442625863,18.2591925708401
0.29504772724351,18.2602855016532
0.341302350802086,18.2614261548352
0.380773202210453,18.2623470589081
0.41383085956632,18.2631126431875
0.442556969006137,18.263801000197
0.467632906601396,18.264450769181
0.489085847287521,18.2650868199332
0.506525155225047,18.2657311617564
0.519060874921148,18.2664096351933
0.524858247808651,18.2671627820354
0.520747982827818,18.2679715521867
0.505062263584792,18.2688029583681
0.476390760896485,18.2696724940406
0.432949319144213,18.2705911853591
0.372797735438102,18.2715677430247
0.329604742480424,18.2721652839194
0.282471956620802,18.2727628248142
0.240374853490601,18.2732695695456
0.203991148846636,18.2736996169461
0.17185133323197,18.2740819248506
0.142970603687013,18.2744343431486
0.11673528526858,18.2747682336977
0.0927105824339082,18.2750921053942
0.0705292002389352,18.2754138312288
0.0497879288747746,18.2757431378435
0.0298029584422632,18.2760982154505
0.00793465085150766,18.2765516605419
-0.000524428638703341,18.2767538594925
-0.00822353193009672,18.276956058443
-0.014602320592926,18.2771401795398
-0.0205796313302481,18.2773299760983
-0.0265485979838229,18.2775407581262
-0.0322775736385039,18.2777691464171
-0.0376220002420691,18.2780132007281
-0.042502413451015,18.2782723115419
-0.0468782011758352,18.2785467575914
-0.0507321713149742,18.2788374641992
-0.054286412822995,18.2791707757039
-0.0570097239768072,18.2794978791248
-0.0592188224730177,18.279846740078
-0.0609307895207482,18.2802207942547
-0.0621600010410696,18.280623843764
-0.0629198539742528,18.2810605885341
-0.0632212614485592,18.2815369058972
-0.0630709225453956,18.282060265958
-0.0624686021792073,18.2826407333415
-0.0614016420265822,18.2832927016442
-0.0598408596565405,18.2840354720818
-0.0577272559035514,18.2848988485989
-0.0549354079698968,18.2859362297094
-0.051119027953715,18.287279600731
-0.0470988033206288,18.28866541049
-0.0432249586898827,18.2900067255844
-0.039539752192974,18.2913075390878
-0.0360637689037497,18.2925698307569
-0.032807263530711,18.2937942926496
-0.0297741941314823,18.2949809669611
-0.0269641220918262,18.2961295863638
-0.0243732975384902,18.2972397527813
-0.0219954075507629,18.2983110284041
-0.0198221713752591,18.2993429767712
-0.0178438527721765,18.300335173761
-0.0160497142177265,18.3012871992424
-0.014428419700128,18.3021986152795
-0.0128784480848568,18.3031243037221
-0.0113894465011577,18.3040738580117
-0.00996559252093191,18.3050491056604
-0.00861077875498521,18.3060522611987
-0.00732868600132543,18.3070859316062
-0.0061227323533912,18.3081532152657
-0.00499602098845734,18.3092578325677
-0.00395128580165811,18.3104043029731
-0.0029908347508349,18.3115981909667
-0.00211649033182064,18.3128464576245
-0.00132952584387543,18.3141579805944
-0.000630594751399033,18.3155443556969
-1.96478754750857e-05,18.3170211979392
0.000504172318801486,18.3186103969283
0.00092263669761735,18.3202530872947
0.00124707782621507,18.3219489298464
0.00149294840045417,18.3237164714046
0.00167443202327644,18.325579076385
0.00180493694337442,18.3275685390444
0.00189756070470142,18.3297311163128
0.00196582948898138,18.3321406842672
0.0020252897345803,18.3349336949648
0.00209891287763014,18.3384431675906
0.00219583504905217,18.34221947453
0.00231952876038526,18.3460674398088
0.00246250172733528,18.3498402844576
0.00262089128637984,18.3536051481691
0.00279141882366574,18.3574110581125
0.00297208821676659,18.3612962321393
0.00316229373227555,18.3652936461996
0.00336267624232134,18.3694341494664
0.00357490882932924,18.3737483831476
0.00380149786262899,18.3782682228637
0.00404567259424532,18.3830281394946
0.00431145016134312,18.3880666644428
0.00460395872577342,18.3934277074717
0.00492273376001512,18.399033379898
0.00524670860060241,18.4044554749038
0.00558488122679661,18.4098101452202
0.00593730097621353,18.4150513478852
0.00630843327164922,18.4202022638786
0.0067019716317805,18.4252694042643
0.00712220286915493,18.4302630054109
0.00757352610262787,18.4351891713789
0.00806067035990158,18.4400518502544
0.00858875977074119,18.4448526749129
0.0091634440282373,18.4495915321177
0.00979100435560008,18.4542668865695
0.0104784698817541,18.458876279604
0.0112487364771355,18.4635024886074
0.0121177133215696,18.4681504830103
0.013106050730297,18.4728314575195
0.0142427880766615,18.4775724169816
0.0155742021588931,18.4824372936508
0.0171918554137704,18.4875910923866
0.0193778480637075,18.493626814705
0.021152968039627,18.4980154662905
0.0230344935783612,18.5024041178761
0.024619850994012,18.5060746708027
0.0259420611698755,18.5092881285598
0.0270523125295565,18.5122972517423
0.0279412585398168,18.5152119356715
0.0285600466491167,18.5179889505187
0.02891037773552,18.5207454123351
0.0289673298576855,18.5236254517006
0.0286397298106706,18.5269103707921
0.0276297131691511,18.5312033752867
0.0267388718152895,18.5338255789435
0.0256865440645434,18.5364477826003
0.0246188717316095,18.5388410970076
0.0235487103473469,18.5410910039471
0.0224767741613849,18.543260707143
0.0214059549819732,18.5453857388146
0.0203399303708061,18.5474885341617
0.0192823895399361,18.5495848832702
0.018236802182941,18.5516868044094
0.0172063579623404,18.5538040167974
0.0161939600765881,18.5559447835948
0.0152022351688942,18.5581164389908
0.0142335447763476,18.5603257490328
0.0132900013677501,18.5625791642604
0.012373477245128,18.5648830287478
0.0114856158676923,18.567243749264
0.0106278459932366,18.5696679373485
0.00980138527140961,18.5721625733785
0.00900463996015297,18.5747439361967
0.00821826744882954,18.5774958085105
0.00744606510304227,18.5804375084522
0.00669179678319517,18.5835923527152
0.00595947515152831,18.5869873155588
0.00525333794016735,18.5906537155492
0.00457779820293173,18.5946280860298
0.00393736311564783,18.5989533032661
0.00333648813989693,18.6036803319877
0.00277932010000437,18.6088715508252
0.00226939709250564,18.6146065945798
0.00180937753523123,18.6209923790988
0.00141500936930377,18.6278993850427
0.00109423616571241,18.6353468266784
0.000834719784989059,18.6438441877387
0.000662046677073298,18.6515993906632
0.000508541716753734,18.6609073485284
0.000392545367587528,18.6709073485284
0.000313350633960493,18.6809073485284
0.000260364866900376,18.6909073485284
0.00022585601101434,18.7009073485284
0.000204296111941214,18.7109073485284
0.000191859702790084,18.7209073485284
0.000185965191688896,18.7309073485284
0.000184896331580635,18.7409073485284
0.000187527681747216,18.7509073485284
0.000193142600036091,18.7609073485284
0.000201317775490422,18.7709073485284
0.0002118510802911,18.7809073485284
0.000224717789545046,18.7909073485284
0.000240047249273074,18.8009073485284
0.000258116500363276,18.8109073485284
0.000279360143981279,18.8209073485284
0.000304398099241132,18.8309073485284
0.000334085820007681,18.8409073485284
0.000369595905895408,18.8509073485284
0.000412547213853177,18.8609073485284
0.000465210125357938,18.8709073485284
0.000526096364012571,18.8802480614008
0.000595616932421751,18.8888651239345
0.000674893970490237,18.8968113704806
0.000765264116058365,18.9041400812878
0.000868255572372221,18.9109007330002
0.000985600978502374,18.9171391676613
0.00111926172595168,18.9228978887015
0.00127145820410343,18.9282163235501
0.00144470536942923,18.9331310572549
0.00164185312614199,18.9376760527061
0.00186613546678913,18.9418828613514
0.00212122842802511,18.9457808245195
0.00241132211987951,18.9493972675336
0.00274121032629626,18.9527576969011
0.00311640546175711,18.9558860077382
0.00354329012394261,18.9588047063759
0.00402932129272853,18.961535162733
0.00458331713708077,18.9640979175846
0.00521587568630381,18.9665130825162
0.00593235560086289,18.9687788213216
0.00672570471634684,18.970870761487
0.0076072521469292,18.9728256944405
0.00859456004811503,18.9746816729636
0.00971650671366373,18.9764822442527
0.0110290271783315,18.9782912435634
0.0127281248201687,18.9803046736587
0.0144609702907532,18.9821050927811
0.0163656455386217,18.9839055119035
0.0179954323297532,18.9853732174886
0.0193995211704703,18.9866365046962
0.0206521259113202,18.9878100920716
0.0217680693421084,18.9889493289215
0.0227380024335565,18.9900939680044
0.0235361955108905,18.9912866532669
0.0241135345490501,18.9925925707101
0.0243591554552401,18.9941640354628
0.0240170617673944,18.9960502880989
0.0230736533263139,18.9979365407351
0.0219790940104061,18.9994543636007
0.0207621231919284,19.000879557799
0.0194152847788808,19.0023177380377
0.0179464308514302,19.0038145392842
0.0163633114981345,19.0054068116818
0.0147025094437904,19.0071388543042
0.0131725974212646,19.0088678286083
0.0109229681247162,19.011723025473
0.00906745925214258,19.0144623544138
0.00758105348852286,19.0170121621103
0.00632080428451339,19.0195186833954
0.00521540960874922,19.0220755632168
0.00424173664448491,19.0247093912294
0.00338260741420576,19.0274434068206
0.0026238676460251,19.0303015488475
0.00200468877599397,19.0330599821668
0.00150377209305166,19.0356721144341
0.00108800945209487,19.0381817527238
0.000734293280311134,19.0406304977848
0.000427330170025789,19.0430487915161
0.000156535315782735,19.0454594654243
-8.81215270886773e-05,19.0479053029952
-0.000321663935897787,19.0505180654291
-0.000591699036243875,19.0539291960953
-0.000729155483814081,19.0558434959692
-0.000858313630765651,19.057757795843
-0.000970240932683851,19.059508967329
-0.00107223192442755,19.0611791354027
-0.00117158074742128,19.0628729663815
-0.00127494054014007,19.0647027140222
-0.00139322940145403,19.0668763529547
-0.00157146962158841,19.070296282659
-0.0017492837465645,19.0738588951842
-0.0018955201636663,19.0768880984423
-0.00204095931881206,19.0799857588282
-0.00220541140710511,19.0836034963708
-0.00240685239293075,19.0882835421984
-0.00260863518225188,19.0936036323393
-0.00274408565680445,19.0984881393513
-0.00279323658795408,19.102845868648
-0.00274838944591434,19.1066924756153
-0.00260342505431137,19.1102312288043
-0.0023556452881903,19.1134730492749
-0.00200276913354919,19.116480522288
-0.00154236833413452,19.1192993994128
-0.000967305200089299,19.1219832775433
-0.000257613425114784,19.1246097367268
0.000641960665927395,19.1273214429775
0.00186194415728885,19.130370626326
0.00339532119454511,19.1336264790963
0.00508216396829273,19.1367723182851
0.00638516920259033,19.1389743239846
0.007811037785094,19.1411763296841
0.0092100241451785,19.1431273666671
0.0106303680576588,19.1449014742097
0.012129369539302,19.1465640902665
0.01375933619157,19.1481556655879
0.0155455376302888,19.1496799047396
0.0175286737198338,19.1511506829402
0.0197304290175429,19.152564173461
0.022187679436432,19.1539262852211
0.0249314505435492,19.1552374311916
0.0279949783980563,19.1564984821373
0.031422603688502,19.1577135501816
0.0352607514401892,19.1588852664656
0.0395617623722621,19.1600162469253
0.0443894198986319,19.1611100622799
0.0498188728105707,19.1621703854749
0.0559382148056901,19.1632008115103
0.062853000198132,19.1642051400707
0.0706905831827382,19.1651873700983
0.0796086849695635,19.1661520293047
0.0898044225321068,19.1671041817155
0.101529488453125,19.1680497174504
0.115114505013235,19.1689958355681
0.131009411323993,19.1699518134846
0.149858338423574,19.1709305171881
0.171979614030479,19.1719234338452
0.197644928416261,19.1729239758901
0.227579258946724,19.1739447132643
0.262795057062613,19.1750044730149
0.304933951693019,19.1761377102032
0.339961996529078,19.1770081362496
0.376457906975812,19.177878562296
0.408916758890926,19.1786485892699
0.437302121340655,19.1793457567526
0.462074419353472,19.1800040611206
0.483233174872021,19.1806478962035
0.50038365343962,19.1812989780409
0.512647556244062,19.1819824639342
0.5182479112895,19.1827367554257
0.514098117885602,19.1835508151603
0.498486514819336,19.1843857945551
0.470038705702891,19.185256766944
0.427034394999091,19.1861744851297
0.36760265663021,19.1871480342217
0.325203526556185,19.1877402709372
0.278982045428949,19.1883325076526
0.23760556020849,19.1888362390824
0.201736800552667,19.1892651704567
0.169987589358259,19.1896473339962
0.141421298898554,19.1900001206474
0.115449048428795,19.1903346936034
0.0916499697629789,19.1906594779314
0.069665257971827,19.1909823282278
0.0490966663080123,19.1913130264964
0.0292597854902922,19.1916700360109
0.00745438294013219,19.1921284602056
-0.000808932887154559,19.1923287914277
-0.0083385767981921,19.1925291226498
-0.014672214699016,19.1927142222394
-0.0206288447958161,19.1929057861282
-0.0265675574675304,19.1931183005053
-0.0322606697951956,19.1933484097037
-0.037566832368936,19.1935942111867
-0.042408544590423,19.1938551246009
-0.0467463703457025,19.1941314525001
-0.0505620646747068,19.1944241416226
-0.0540835833779101,19.194760653414
-0.0567698071611311,19.1950900848058
-0.0589439461350171,19.1954414425417
-0.0606230733417964,19.1958182046563
-0.0618214389252861,19.1962242095133
-0.0625522561159493,19.196664201005
-0.0628262050802145,19.1971441113514
-0.0626497048444511,19.1976714813463
-0.062022058125211,19.1982565567677
-0.0609301249673731,19.1989138251368
-0.0593441190894557,19.199662827124
-0.0572040067069857,19.2005338135647
-0.0543818720250539,19.2015812645501
-0.0505204325285191,19.202941611012
-0.0465220717354533,19.2043231281668
-0.0426743368529107,19.2056601127097
-0.0390173939955075,19.2069565064651
-0.035570811266426,19.2082142491022
-0.0323441819012573,19.2094340227006
-0.0293409633638888,19.2106158746486
-0.0265603116261152,19.2117595495833
-0.0239981439086423,19.212864663586
-0.0216478789027226,19.2139307925382
-0.0195010281533891,19.214957511505
-0.0175477050295329,19.2159444045274
-0.015777074745049,19.2168910553344
-0.014177752037738,19.217797024721
-0.0126349924557431,19.2187258372951
-0.0111538521495967,19.2196786720626
-0.00973836410019895,19.2206574680981
-0.00839239672809313,19.2216644865164
-0.00711959881037623,19.22270239282
-0.00592334925686595,19.2237743588607
-0.00480670457105169,19.2248841985945
-0.00377234412421079,19.22603655266
-0.00282251304983285,19.2272371456613
-0.00195896207481338,19.2284931554421
-0.00118288277701845,19.2298137619648
-0.00049483525633374,19.231210998622
0.000105337679579553,19.2327011445767
0.000618621949009256,19.2343071628073
0.00102424774433859,19.23595578669
0.0013381244615817,19.2376601371276
0.00157543400467172,19.2394389518545
0.00175025247878367,19.2413165089857
0.00187593951175184,19.2433260975152
0.00196563249750921,19.2455166670605
0.00203306042954609,19.2479676196269
0.00209438993561971,19.2508295448774
0.00217506124751343,19.2544926371878
0.00227875294768537,19.2582962799895
0.0024065339354735,19.2620821865847
0.00255438142661254,19.2658441806151
0.00271853681720134,19.2696347999648
0.00289579785757497,19.2734945781592
0.0030842682167754,19.2774576202606
0.00328348278641412,19.2815551258303
0.00349427820775345,19.2858176375353
0.00371858431235108,19.2902765521024
0.00395924742099143,19.2949654642129
0.00421998724100068,19.2999216160917
0.00450558171422065,19.3051872210689
0.00482239681899515,19.3108108771413
0.0051439429132044,19.3162573291523
0.00547908103318228,19.3216421467299
0.00582741455204742,19.3269116796184
0.00619328710120107,19.3320882300469
0.00658030911705851,19.3371780778215
0.00699271941901938,19.3421921585672
0.00743485087256286,19.3471372942288
0.00791134082370917,19.3520181328253
0.00842718660900205,19.3568368792172
0.00898787715891691,19.3615938881425
0.00959950114979062,19.366287989732
0.0102688581688156,19.3709169199453
0.0110129745398116,19.3755333051493
0.0118515633721796,19.3801748766297
0.0128026720527413,19.3848442483565
0.0138924928740393,19.3895633512103
0.0151607048249417,19.3943816017043
0.0166800728221233,19.3994218913318
0.0186389407708241,19.4050664314977
0.0205911668101967,19.4100466270195
0.0222133234424775,19.4138917779956
0.0238804951090949,19.4177369289718
0.0253165645501229,19.4211208968951
0.026528927446051,19.4242079561733
0.0275347222168421,19.427173561612
0.0282861537590724,19.4300037172024
0.0287708785966904,19.4327548427135
0.0289791951857948,19.4355515911067
0.0288623506849878,19.4385801128486
0.0282254027893471,19.4423812931186
0.0274010809164046,19.4453142456858
0.0263394477406386,19.448247198253
0.025265726766086,19.450798434687
0.0241962614286308,19.4531267784113
0.0231250949276568,19.4553395694443
0.0220531616802882,19.4574883503111
0.0209837729996767,19.4596023984523
0.0199206574389627,19.461701033652
0.018867431096197,19.4637983165077
0.0178274554651523,19.4659052263955
0.0168038065231487,19.4680308277293
0.0157992768155563,19.4701829642597
0.014816386045623,19.4723687099863
0.0138573968884918,19.4745946757261
0.012924324458836,19.476867249153
0.0120189497964584,19.4791927774313
0.0111428313471432,19.481577725718
0.0102973113355912,19.4840288362104
0.0094835313324902,19.4865532596737
0.00869048343695132,19.489200165052
0.00790929923255802,19.4920248909603
0.00714375099408676,19.4950483044328
0.00639770255043417,19.4982951023019
0.00567526110810917,19.5017938867212
0.00498073999232125,19.5055779360212
0.00431860266579811,19.5096861380289
0.00369335872326962,19.5141643046051
0.0031093737643629,19.5190674299744
0.00257059704260029,19.5244637636591
0.00208023398027984,19.5304423406269
0.00164391545234212,19.5370674619217
0.00127579397927946,19.5441783826764
0.00103540313349931,19.5504042154166
0.000807244866546341,19.5583290344444
0.00062561628405023,19.5668866500945
0.000482158811621472,19.5761825581375
0.000373849515934227,19.5861825581375
0.000300155574029695,19.5961825581375
0.000251028801156799,19.6061825581375
0.000219161920741766,19.6161825581375
0.00019937796783976,19.6261825581375
0.000188120287170984,19.6361825581375
0.000182996517738355,19.6461825581375
0.000182416862094268,19.6561825581375
0.000185339138515019,19.6661825581375
0.000191102048751849,19.6761825581375
0.000199319475179281,19.6861825581375
0.000209814082227049,19.6961825581375
0.000222576958314956,19.7061825581375
0.000237746429761535,19.7161825581376
0.000255603031522962,19.7261825581376
0.000276580087385169,19.7361825581376
0.000301291581376517,19.7461825581376
0.000330581832869581,19.7561825581376
0.000365605742133059,19.7661825581376
0.000407955346409504,19.7761825581376
0.000459860613633517,19.7861825581376
0.000520026961749226,19.795549435959
0.000588748312114155,19.8041922021431
0.00066712946175282,19.8121626526221
0.000756492827766499,19.8195140546376
0.000858351117389476,19.8262959192203
0.000974419604495307,19.8325541286352
0.00110664000348491,19.8383312288989
0.00125721026499811,19.8436666909909
0.00142861965718069,19.8485971431857
0.00162368854842698,19.8531565898628
0.00184561673847639,19.8573766208562
0.00209804035834926,19.8612866116379
0.00238510254503378,19.864913916025
0.00271154101063294,19.8682840613155
0.00308280027912298,19.8714209529868
0.00350517913327931,19.8743470936287
0.00398602863514058,19.8770838296174
0.00453402921398844,19.8796516493601
0.00515959315917485,19.8820705684753
0.00587007691771052,19.8843449108781
0.00665654732638024,19.8864426121764
0.00752982656400651,19.8884001795088
0.0085066601122443,19.8902551842246
0.00961419496045263,19.8920497521242
0.0109037563926458,19.8938435126741
0.0125440811967244,19.8958060303453
0.0143738395274571,19.8977154212951
0.0159304181328872,19.8991933018095
0.0175707271662266,19.9006711823239
0.0190352435495896,19.9019722980396
0.0203397412417177,19.9031629239255
0.0215062839298206,19.9043047546098
0.0225313306413427,19.9054396070613
0.0233945483211301,19.9066074710502
0.0240561105139074,19.907862876265
0.0244341579628726,19.9093146614343
0.0242405979585339,19.9113991288915
0.0235754656092438,19.9129679693203
0.0225569484006762,19.914536809749
0.0213976842132559,19.9159703415447
0.0201027853030798,19.9173926605401
0.018680419890671,19.9188579499753
0.0171398802079014,19.9204034936466
0.0161886077741034,19.9213572934551
0.0152628365303021,19.9223110932635
0.0129432288481947,19.924909281817
0.0106567570110701,19.9278579019362
0.00884804267012596,19.9305803889293
0.00740154669410258,19.9331099644354
0.00616354186323344,19.9356204235997
0.0050768243754631,19.9381853193029
0.00411941395303513,19.9408302186231
0.00327460041108319,19.9435783352749
0.00252853081841783,19.9464538074424
0.00192767161678441,19.9491920055449
0.00144035216547664,19.9517879318626
0.00103468469247582,19.9542863852775
0.000688840581608636,19.9567267834612
0.000388653569410857,19.9591347407475
0.000124330667804291,19.9615274269725
-0.000113759303446325,19.9639433335624
-0.000339565211265089,19.9665009341461
-0.000591605108158059,19.9697062121727
-0.000730862341954575,19.9716519225048
-0.000861577954631158,19.9735976328369
-0.000973845198611307,19.9753626912128
-0.00107480647039805,19.9770239331133
-0.00117215951051424,19.9786907368675
-0.00127226477069982,19.9804686412414
-0.0013844495014907,19.9825336985641
-0.00153879028191516,19.985488585486
-0.00172528183643212,19.9892111553119
-0.00187580067978383,19.9923208862144
-0.00201877018936497,19.9953547304639
-0.00212567129348656,19.9976773652319
-0.00223013580627704,20
