ecg,time
0.000214021850055068,15.0007052219786
0.000192143370710483,15.0107052219786
0.000179027235143329,15.0207052219786
0.000172142070407739,15.0307052219786
0.000169792930652545,15.0407052219786
0.000170852804715724,15.0507052219786
0.00017458448686515,15.0607052219786
0.000180526346103194,15.0707052219786
0.000188419066845869,15.0807052219786
0.000198158627701043,15.0907052219786
0.000209767407342796,15.1007052219786
0.000223379236157466,15.1107052219786
0.000239236395197526,15.1207052219786
0.00025769807528611,15.1307052219786
0.000279261329369241,15.1407052219786
0.000304597500183018,15.1507052219786
0.000334609930517095,15.1607052219786
0.000370523227226565,15.1707052219786
0.000414021906361317,15.1807052219786
0.000466922718330443,15.1906114687941
0.000527474371005213,15.1997775082921
0.000596520139367515,15.2082350969438
0.000675195614916517,15.2160386585775
0.00076482172328046,15.2232396139227
0.000866903217968656,15.2298856938258
0.000983144659759696,15.236021202458
0.00111547502080463,15.2416872799618
0.00126607743612716,15.246922134634
0.00143742354207536,15.2517612542506
0.00163231272425582,15.2562376084236
0.00185391931898449,15.2603818438815
0.00210584857049198,15.2642224706624
0.00239220502973627,15.2677860426085
0.00271767809795187,15.2710973414145
0.00308765027882935,15.2741795689657
0.00350833899137142,15.2770545511312
0.00398698597611215,15.2797429663888
0.00453211985633485,15.282264619308
0.00515393434389804,15.2846387879151
0.00586104890719498,15.286873729791
0.00664276542698545,15.2889317270446
0.00750899938670011,15.29084767036
0.00847491876727196,15.2926569237449
0.00956433313487706,15.2943975252976
0.0108199210919228,15.2961194932912
0.0123706128699838,15.2979504363169
0.0147006568346412,15.3003013446322
0.0162844397627539,15.3017288878153
0.0179567327030726,15.3031564309985
0.0194815400689657,15.3044357092781
0.0208415071576726,15.3056034120211
0.0220602437292788,15.3067206088411
0.0231359105607323,15.3078290688978
0.0240491953250031,15.3089679121158
0.024761469724232,15.3101894719914
0.0251941211784667,15.3115958456459
0.0250863686219935,15.3135718109933
0.0244578816984382,15.3151390079321
0.023445503975987,15.3167062048709
0.0222844426734004,15.3181237030118
0.0209804371983244,15.3195268220665
0.0195409758415475,15.3209727234968
0.0179753447069517,15.3224993438965
0.0169751321512362,15.3234722799582
0.0159948676307936,15.3244452160198
0.0149003999138879,15.3255836245241
0.0124738608814854,15.3283596721259
0.0102862432491634,15.3312633353626
0.00856235348780025,15.3339363025374
0.00717700703202238,15.3364321394851
0.00597525039864591,15.3389454396409
0.00492027063673261,15.341519057734
0.00399165728399257,15.3441770814523
0.0031733758987676,15.3469426777124
0.00247067826096545,15.3497587651213
0.00190959530689185,15.3524116049642
0.00145135052567903,15.3549385230678
0.00106707354320397,15.3573864594037
0.000737257595857113,15.359795337422
0.000449078286061715,15.362193610588
0.000192728069515056,15.3646115118008
-4.37018835519012e-05,15.3671299879926
-0.000285424117271276,15.3700478050802
-0.000444099853699172,15.3721821539039
-0.000590026907774579,15.3743165027277
-0.000708700315209595,15.3761826290238
-0.000810442660057871,15.377880306708
-0.000905157405632113,15.3795441740278
-0.000999183502547944,15.3812765168677
-0.00109953130410241,15.3832136711464
-0.00122164189331994,15.3856914533626
-0.00142695591728728,15.3901382632605
-0.0015948427024948,15.3940185474923
-0.00173370650334654,15.3973847986444
-0.00187909569810083,15.4010657749156
-0.00205448346052364,15.4057736992236
-0.00223933737597983,15.4113547750716
-0.00236053601459606,15.4161824617348
-0.00241357564256967,15.4205216572981
-0.00238726465884375,15.4244013959997
-0.00227385294317428,15.4279047583594
-0.0020665480459851,15.4311120116043
-0.00175844254979644,15.4340896135947
-0.00134325688920024,15.4368814549717
-0.000811739300188326,15.4395370668701
-0.000141592351521204,15.4421365427802
0.000715454455242859,15.4447972583059
0.00190317256024882,15.4478038440433
0.00340856449474182,15.450986804062
0.00526677310390887,15.4543616384881
0.0065512369513721,15.456440678527
0.00796505779520849,15.4585197185658
0.00941001812584205,15.4604292159334
0.0109221269067036,15.4622098769653
0.0124904769145763,15.4638430114084
0.014207800291168,15.4654141487648
0.0160825290555221,15.4669110679654
0.0181649047333953,15.4683553904541
0.0204773398449623,15.4697434695768
0.0230575547790686,15.4710808009295
0.025940354026655,15.4723690151583
0.0291592643878,15.4736082721582
0.0327623893771763,15.4748031209968
0.0367994149354562,15.4759562318471
0.0413278778206711,15.4770705671293
0.0464135996321349,15.4781490331891
0.0521387545291276,15.4791956428876
0.0585987287548972,15.4802140511074
0.0659083259356086,15.481208146713
0.0742075905876621,15.4821821496195
0.0836691146764396,15.4831406613737
0.094512573194547,15.4840891415188
0.107021098398695,15.4850339947624
0.121572046803724,15.4859832237838
0.138689553257857,15.4869474580345
0.159107854467511,15.4879402878225
0.182749448811768,15.4889353610342
0.210234886333652,15.4899431506119
0.242397831028513,15.4909785054598
0.280463382831512,15.4920653351158
0.324700441792789,15.4932051551568
0.365586872932957,15.4941912708946
0.399699755220411,15.4949984014239
0.429212198368308,15.4957129004428
0.455011155069745,15.496379604798
0.477237984807934,15.4970253504267
0.495612123897435,15.4976720107683
0.509417655692095,15.4983430497172
0.517215027780134,15.4990714427238
0.516112573082219,15.4998827298754
0.503856313883913,15.5007100934158
0.479193052820798,15.5015696409679
0.440481441155838,15.5024733121892
0.385879884729483,15.5034298982898
0.341888294551077,15.5040735820161
0.292962147059217,15.5047172657423
0.249299060115832,15.5052552065878
0.21187496317622,15.5057038657403
0.178994974240247,15.5060979957208
0.149537321786523,15.5064583170528
0.122828513207856,15.5067974456041
0.0984099430480231,15.5071243796534
0.0759133592692761,15.5074469351801
0.0549666911987801,15.5077739329326
0.0350236323123632,15.5081197827073
0.0145434931214724,15.5085271917564
0.00172928824000392,15.508822083784
-0.00561702078840463,15.5090107262123
-0.0123296295406559,15.5091993686407
-0.0181791862802264,15.5093796209434
-0.024154740615066,15.5095830477307
-0.0299802577013711,15.5098055578382
-0.0354726043177422,15.5100444219594
-0.0405294280194005,15.5102985293966
-0.0450965308604617,15.5105678246617
-0.0491484614233627,15.5108529839533
-0.0526991487889229,15.5111581498786
-0.0556551330618221,15.5114765498065
-0.0580951974051056,15.5118157724299
-0.0600327925782924,15.5121786777599
-0.0614820457922225,15.5125687003025
-0.0624568746328228,15.5129900750552
-0.062969476780653,15.5134480645779
-0.0630287389463946,15.5139492958335
-0.0626383092231085,15.5145022771824
-0.0617919952267699,15.5151194008131
-0.0604697152999202,15.5158170026778
-0.0586298395251151,15.5166187773122
-0.0561878711385565,15.5175636477221
-0.052947127458789,15.5187305881276
-0.0488884531150876,15.520141143377
-0.0449468070162143,15.5215018363138
-0.0411785250988249,15.5228199394986
-0.0376118023960405,15.5240985465417
-0.0342609370113464,15.5253389224908
-0.0311324052240498,15.5265414043034
-0.0282275313766864,15.527705871961
-0.0255438827998433,15.5288319962585
-0.0230761518906991,15.5299193675948
-0.0208168154620781,15.5309675587491
-0.0187566837265706,15.5319761490302
-0.0168853808914003,15.532944724411
-0.0151917710193404,15.5338728616456
-0.0136157345763395,15.5347892230986
-0.0120985417298807,15.5357289839922
-0.0106448312527773,15.5366936321427
-0.00925856226821085,15.5376852481635
-0.00794350382642961,15.5387062702322
-0.00670318155923255,15.5397595848495
-0.0055408261776847,15.5408486430327
-0.00445931967788547,15.5419776164724
-0.00346113922734504,15.5431516122184
-0.00254829829829132,15.5443769758396
-0.00172228395524043,15.5456617333252
-0.000983988069181506,15.5470162603123
-0.000333628097280723,15.5484543443555
0.000229351271934284,15.5499949742451
0.000695406849369457,15.5516215109799
0.00106040212140629,15.5532936023012
0.00134082403871121,15.5550295477012
0.00155131594097808,15.5568502506398
0.00170561165376696,15.5587835684882
0.001816945897228,15.5608688428427
0.0018986667728081,15.5631663091154
0.00196539456597223,15.5657798649916
0.00203621918384015,15.5689298358698
0.00213096339878093,15.5726648408348
0.00225457472197882,15.5765866447516
0.00239824324256332,15.5803931019105
0.00255860492402431,15.5841646214312
0.00273215133859759,15.5879581654901
0.00291643340070412,15.5918158210001
0.0031103973063675,15.595772454783
0.0033143142460908,15.5998596544182
0.00352958401870879,15.6041080504576
0.00375852671747965,15.6085489286757
0.00400423288783061,15.6132155686138
0.00427056074197769,15.6181447031766
0.004562358291304,15.6233778308828
0.00488602044853222,15.628962595222
0.00521487852096569,15.6343762462286
0.00555785799379428,15.639732255344
0.0059144998529722,15.6449767610955
0.00628918563087093,15.6501306402773
0.00668560809506774,15.6551993841183
0.00710814486138794,15.6601934118807
0.00756129468735985,15.6651191670329
0.00804988863816698,15.669981016203
0.0085791348689879,15.6747808715002
0.00915474707167326,15.6795187671381
0.00978305457884976,15.6841932386831
0.0104711237573201,15.6888018640185
0.0112419867082441,15.6934279878996
0.012111459968956,15.6980758333533
0.0131002271650443,15.7027567072567
0.0142373288420782,15.7074975580951
0.0155690366660398,15.7123622603319
0.0171868711248193,15.71751566343
0.0193726316580806,15.7235499584446
0.0211485348053023,15.7279399873854
0.0230309613845771,15.7323300163263
0.024616831506313,15.7360010425693
0.0259393983555557,15.7392146545386
0.0270499522822657,15.7422238148031
0.0279391794656832,15.745138477399
0.0285582261292242,15.7479154141844
0.0289088113260133,15.7506717395391
0.0289660372061828,15.7535515531975
0.0286386673901217,15.7568360127495
0.0276286383080405,15.7611290172298
0.0267377657809267,15.7637512040288
0.0256853973910754,15.7663733908278
0.0246177127169685,15.7687666160403
0.0235475661896222,15.7710163758385
0.0224756658889807,15.7731858881341
0.0214049010927201,15.775310687686
0.0203389487151555,15.7774132067663
0.0192814981882544,15.779509229528
0.0182360199656971,15.7816107658238
0.0172057047272705,15.7837275242054
0.0161934569809767,15.7858677543887
0.0152019047316433,15.7880387742617
0.0142334110324633,15.79024732979
0.0132900898662908,15.7924998471099
0.0123738149440535,15.7948026407502
0.0114862311300703,15.7971620812085
0.0106287682408309,15.7995847362633
0.00980264477525718,15.80207753266
0.00900584590150194,15.8046580966808
0.00821941119800128,15.8074090533528
0.00744713230620644,15.8103497173086
0.0066927724178997,15.8135033804729
0.00596034354106416,15.8168969853968
0.00525408275800766,15.8205618095482
0.00457840241873769,15.8245343324569
0.00393780884641852,15.8288573591176
0.0033367566466137,15.8335817559431
0.00277939121964497,15.8387697655926
0.00226924967577526,15.8445008111848
0.00180898846726979,15.8508814742162
0.00141416864272205,15.857785779794
0.00108983798376098,15.8652301341713
0.000867764661559724,15.8722718512144
0.000674274607013493,15.8804850673722
0.000516439498300012,15.8896206201602
0.000394082741745901,15.8996206201602
0.000310034886632705,15.9096206201602
0.000253241751478251,15.9196206201602
0.000215656489680706,15.9296206201602
0.000191500388809837,15.9396206201602
0.000176746618838076,15.9496206201602
0.000168657119511818,15.9596206201602
0.000165394489089067,15.9696206201602
0.000165734729613651,15.9796206201602
0.000168873322569579,15.9896206201602
0.000174300035757089,15.9996206201602
0.000181718639868877,16.0096206201602
0.000190995271318588,16.0196206201602
0.0002021261652904,16.0296206201602
0.000215219887408324,16.0396206201602
0.00023049164474586,16.0496206201602
0.000248268832155747,16.0596206201602
0.000269008416031422,16.0696206201602
0.000293328518466864,16.0796206201602
0.000322059041568448,16.0896206201602
0.000356319994918958,16.0996206201602
0.000397642538925812,16.1096206201602
0.000448158932529173,16.1196206201602
0.000506982748669465,16.1290493598241
0.000574131223064373,16.1377538452988
0.000650655715812939,16.145783224072
0.000737831280636972,16.1531905328105
0.000837119240453157,16.1600251976055
0.000950177655744324,16.1663330576089
0.00107888388112252,16.1721566443451
0.00122536304961689,16.1775354347491
0.00139202178659191,16.1825060752142
0.00158158607187447,16.1871025942498
0.00179714728653671,16.1913566069836
0.00204221584138722,16.195297511044
0.00232078776553825,16.1989526729146
0.00263742611457952,16.2023476156812
0.00299736497818991,16.2055062151193
0.00340664470471536,16.2084509067221
0.00387229138759513,16.2112029141722
0.00440256523411938,16.2137825202805
0.00500731573506649,16.2162094081657
0.00569851271582185,16.2185031248757
0.00646437983170548,16.2206165211898
0.00731289708284523,16.2225802545918
0.00825844115942511,16.2244304765568
0.00932340331207458,16.2262054978214
0.0105472340152505,16.227954249734
0.0120336882219969,16.2297824922528
0.0141940468645238,16.2320573723395
0.015772728916247,16.2335379889096
0.0174520649487017,16.2350186054796
0.0189914404841265,16.2363427898758
0.0203583547843466,16.2375379157283
0.0215830833399717,16.2386725778434
0.0226675656141314,16.2397911616092
0.0235954441030655,16.240932444764
0.0243324826288509,16.2421450239852
0.024811221656604,16.2435165727899
0.0248409030537367,16.2453220743778
0.0242895349144924,16.2470135039715
0.0232780155042209,16.2487049335651
0.0221381690782818,16.2501533686093
0.020864246830725,16.2515629487405
0.0194573363452741,16.2530061162887
0.0179263670450245,16.2545226827313
0.0167985077890173,16.2556337554396
0.0156945899297821,16.2567448281478
0.0146084156765939,16.2578941944914
0.0122105386743419,16.2606881953075
0.0100848055629925,16.2635624834877
0.00840432694188434,16.2662137311113
0.00704517014787966,16.2687032997342
0.00585972547452481,16.2712237830116
0.00481830666218095,16.273807569796
0.00390126719766697,16.2764783060739
0.00309294932260401,16.2792592490393
0.00244135750806406,16.2819040561212
0.00191298765159344,16.2844087908586
0.00147477450998503,16.2868112962759
0.0011021371166311,16.2891555904013
0.000776675932743883,16.2914918626237
0.00048325396915109,16.2938879096722
0.000204154385067672,16.2964839380636
-0.000116721782693415,16.2999458320156
-0.000271822239064163,16.3018407066282
-0.000414823372748191,16.3037355812407
-0.000536678143798994,16.3054730198102
-0.000645957319439979,16.3071346253985
-0.000750616677769764,16.3088231507475
-0.000857548482965852,16.3106510559586
-0.000977549387576883,16.3128303329465
-0.00115573311680888,16.3163213487532
-0.00132296960831296,16.3198776473158
-0.00145625348816023,16.3229053479828
-0.00158602611356091,16.3260183025939
-0.00173006116925522,16.3296723850442
-0.00190474720794058,16.3344392864969
-0.00208312370173296,16.3399769151193
-0.00220102965404936,16.344797394755
-0.00225493464506931,16.3491458613448
-0.00223402350916882,16.3530417811184
-0.00213040885907226,16.3565496828396
-0.00193781024484056,16.3597375039842
-0.00164976939823576,16.3626757317809
-0.00125746741860336,16.3654318310093
-0.00074766053870215,16.3680689671873
-9.70274664409587e-05,16.3706616743513
0.000748226328002232,16.3733398110432
0.00192397249084889,16.3763636982804
0.00342198098180471,16.3795758040372
0.00527498718474756,16.3829857636071
0.00655627938464567,16.3850832367733
0.00796995854725725,16.3871807099396
0.00939314451064301,16.3890738772063
0.0108582686717781,16.3908086541147
0.0124186048547051,16.3924411020209
0.014119909202721,16.3940022603567
0.0159901558658115,16.3954982061743
0.0180684104940117,16.3969404240086
0.0203790928623967,16.3983269445923
0.0229583335297905,16.3996624023443
0.0258406669577747,16.4009485058836
0.0290595710298681,16.4021855502111
0.0326627429257269,16.4033780394786
0.0366996543962596,16.4045286750969
0.0412277488666974,16.4056404688646
0.0463123299141412,16.4067162693754
0.052035210475277,16.4077600849001
0.0584912134340319,16.40877554131
0.0657943139346787,16.4097664808829
0.0740833038518546,16.4107370554475
0.0835289347600556,16.4116917789873
0.0943476479350345,16.4126359544875
0.106817396467518,16.4135757723873
0.121306421812525,16.414518889976
0.138321850919816,16.4154753491683
0.158600851946909,16.4164593434816
0.182148106873766,16.4174479491709
0.209499358717265,16.4184473991178
0.241458087360139,16.4194714680673
0.279181840497318,16.4205418602262
0.323672436095698,16.4216772840681
0.366079351648988,16.4226847551519
0.401088871167631,16.4234967309307
0.431225912334492,16.4242091935712
0.45757320188082,16.4248713221075
0.480341939908808,16.4255111676505
0.499290534190853,16.4261509488696
0.513740303843544,16.4268141672309
0.522304257042361,16.4275337060629
0.522110806489607,16.4283396349865
0.51075414340894,16.4291615429121
0.486994185008298,16.4300161612771
0.449169545984824,16.430916074993
0.395386684704786,16.4318700907211
0.350235060978993,16.4325345565631
0.299673039884682,16.4331990224051
0.254697105509967,16.4337498797026
0.216385380648775,16.4342051853125
0.182863230213618,16.4346027752121
0.152902018138947,16.4349648639676
0.125778211274924,16.4353047010447
0.101008442504105,16.4356315488515
0.0782125372398513,16.4359532762994
0.0570172807366468,16.4362785152927
0.0368983191820505,16.4366208329433
0.0164872086821963,16.4370177350216
0.00809986456918821,16.4372013594516
0.000362051072184356,16.4373849838815
-0.00744176509491858,16.437587455293
-0.0139621286736517,16.4377733482789
-0.0199063744142995,16.4379595693199
-0.0258883747822119,16.4381674812643
-0.0316613615764022,16.438393480941
-0.0370673002926321,16.4386353581909
-0.0420186971931508,16.4388923294706
-0.0464701523466533,16.4391645550502
-0.0504015554408188,16.4394528697468
-0.0539096714156716,16.4397698890684
-0.0567311019107057,16.4400929361758
-0.0590375686098537,16.4404373845872
-0.0608442196361215,16.440806370288
-0.0621653892496399,16.4412035379919
-0.0630147491253728,16.4416333888545
-0.0634037998888932,16.4421015368501
-0.0633402020441405,16.4426150900013
-0.0628255792082801,16.4431833140875
-0.0618498402683467,16.4438199650842
-0.0603877912879817,16.444542925348
-0.0583881430350404,16.4453792472295
-0.0557443758317469,16.4463755671421
-0.0521853633470662,16.4476370635436
-0.0481392245738594,16.4490334303993
-0.0442265178301118,16.4503836702998
-0.0404962329801618,16.4516926532575
-0.0369720905258191,16.4529627873306
-0.0336660704282011,16.4541949839747
-0.030583245565563,16.4553893953464
-0.0277239801706231,16.4565458062729
-0.0250851350503038,16.4576638404421
-0.0226608675707914,16.4587430665504
-0.0204432519491995,16.4597830481761
-0.0184228066533585,16.4607833601858
-0.0165889601475134,16.4617435839469
-0.0149304644110852,16.4626632880839
-0.0133659888975782,16.4635843347531
-0.0118614251126881,16.4645290129811
-0.0104211736404168,16.4654989821015
-0.00904915876080772,16.4664963889981
-0.00774910337980649,16.4675237554177
-0.00652447685876788,16.4685840726915
-0.00537844300946986,16.4696809249711
-0.00431380583825881,16.4708186555757
-0.0033329529349869,16.4720025968699
-0.00243779596724917,16.4732393968555
-0.00162970701552581,16.474537498691
-0.00090944820398604,16.4759078733317
-0.00027708965102835,16.4773651953363
0.000268094296560276,16.4789298517285
0.000711882874052577,16.480564201504
0.00105821347378256,16.482247896275
0.00132304313309497,16.4839992992888
0.00152079635284975,16.4858404997365
0.00166505886541894,16.4878012346767
0.00176901770310288,16.4899241151766
0.0018461388449547,16.4922757268563
0.00191153636020227,16.4949747139465
0.00198614687540185,16.4982893979081
0.00208461211616159,16.5020379340658
0.00221153458825596,16.505934628589
0.00235782112825802,16.5097317103079
0.00251982192509969,16.5135042247083
0.00269414860701265,16.5173060446584
0.00287859306810604,16.5211777893716
0.00307233859837289,16.525153631136
0.00327584616966329,16.5292649090599
0.00349064579263579,16.533542290602
0.00371913017831596,16.5380173176568
0.00396442000960743,16.5427237592896
0.0042303870275201,16.547699076692
0.00452191291429577,16.5529857325296
0.00484475629752337,16.5586198838452
0.00517041457831778,16.5640421932542
0.00551046444999875,16.5694138495026
0.00586370618106239,16.5746680089635
0.00623485946953372,16.5798317599776
0.00662749412751779,16.5849097170131
0.00704594507906213,16.5899129134994
0.00749460969992344,16.5948477399541
0.00797821451191207,16.5997186015256
0.0085018553341841,16.6045274548731
0.00907113299522405,16.6092744436549
0.00969226002232574,16.6139582191415
0.0103721759593168,16.6185764180391
0.0111310839124348,16.6231981026146
0.0119866383475556,16.6278430102113
0.0129582802654514,16.6325184109073
0.0140736749493131,16.6372487752682
0.0153758722211481,16.6420908900256
0.0169469831550001,16.6471885360492
0.0190188931803805,16.653021689079
0.0208691209093925,16.6576623618742
0.0228491145480424,16.6623030346693
0.024474850817332,16.6660596891408
0.0258200241508067,16.6693050500181
0.0269503656941575,16.6723265911795
0.0278659061537676,16.6752611326062
0.0285099578392518,16.6780464220896
0.0288861896035746,16.6807994088921
0.0289731217592832,16.6836596587247
0.0286900337066989,16.6868836060451
0.0277207892770707,16.6912047836948
0.026839341403281,16.6938614214588
0.0257877893119586,16.6965180592228
0.0247199637989924,16.6989312948461
0.023650037909162,16.7011917948898
0.0225781928562841,16.7033674050941
0.0215071357217789,16.7054956038997
0.0204405135396416,16.7075997301376
0.0193820290615241,16.7096960587292
0.0183351775809454,16.7117968933185
0.0173031767946909,16.7139121300433
0.0162889580225761,16.7160501424785
0.0152951743425447,16.7182183332159
0.0143242128976327,16.7204235050955
0.0133782106642052,16.7226721215976
0.0124590624335534,16.7249705223476
0.0115684349706344,16.727325087406
0.0107077767916488,16.729742391228
0.00987832649291541,16.7322293536723
0.00908072928921549,16.7347947028699
0.00829313732688827,16.7375287756953
0.00751935157708038,16.7404505209715
0.00676310936378542,16.743582922034
0.00602839897495742,16.7469525533433
0.00531943653820771,16.7505902570953
0.00464061949383239,16.7545319896313
0.00399644851979662,16.758819918361
0.00339139213017164,16.7635040591584
0.00282963677636235,16.7686454163875
0.00231479263227046,16.7743214574341
0.00184960346881161,16.78063573612
0.00144822626758023,16.7874931363214
0.00111807247370822,16.7948813717654
0.000894181695733096,16.8017833815841
0.000695543069024254,16.8099545497536
0.000533840397552868,16.8190062014022
0.000407061903757181,16.8290062014022
0.00031995923877354,16.8390062014022
0.000261084532652902,16.8490062014022
0.000222104084324222,16.8590062014022
0.0001970288512763,16.8690062014022
0.000181682571550571,16.8790062014022
0.000173224390446036,16.8890062014022
0.000169747437002032,16.8990062014022
0.000169980930758218,16.9090062014022
0.000173088813865469,16.9190062014022
0.000178539739934266,16.9290062014022
0.00018602374879415,16.9390062014022
0.000195398698303719,16.9490062014022
0.000206656782836509,16.9590062014022
0.000219906068190923,16.9690062014022
0.000235364538012741,16.9790062014022
0.000253365792213532,16.9890062014022
0.000274377048696312,16.9990062014022
0.000299031946752469,17.0090062014022
0.000328183262396336,17.0190062014022
0.000362984698693366,17.0290062014022
0.000405017678199478,17.0390062014022
0.000456491028139358,17.0490062014022
0.000515847920441432,17.058334341966
0.000583560648244898,17.0669433560158
0.000660717210475055,17.074885696402
0.00074860820556244,17.0822137449338
0.000848708468229647,17.0889762046534
0.000962689901908286,17.0952182637239
0.00109244492366927,17.1009818678022
0.00124011540817022,17.1063059632151
0.00140812658698788,17.1112267145537
0.00159922522282221,17.1157777121497
0.00181652597415092,17.1199901718621
0.00206356556815118,17.123893126075
0.00234436974707847,17.1275136068357
0.00266353578046095,17.1308768312414
0.00302633732039561,17.1340063949978
0.00343886117619642,17.1369244768176
0.00390818899571979,17.1396520652318
0.00444264859591605,17.1422092280045
0.005052173977056,17.1446154517318
0.00574884407255627,17.1468901048922
0.00651918743720304,17.1489823668695
0.00737253968160071,17.150927158542
0.00832341707412324,17.152760271508
0.00939438159424416,17.1545195991197
0.0106252198718161,17.1562536791425
0.0121246406227854,17.1580722167029
0.0143090066596984,17.1603399969677
0.0158978966234986,17.1618094371873
0.0175873047863973,17.1632788774069
0.0191351335134606,17.1645930071274
0.0205103122825593,17.1657801907609
0.0217428451856743,17.1669081287103
0.0228344396252495,17.1680208151207
0.0237684821221816,17.1691569325927
0.0245102946025594,17.1703652728995
0.0249913268566259,17.171734547125
0.0250150829549365,17.1735476595643
0.0244600984302951,17.175217720934
0.0234518436767768,17.1768877823037
0.0223095538547261,17.1783286137321
0.0210303323652577,17.1797338567581
0.019616342086851,17.1811739067072
0.0180766025229889,17.1826883790518
0.016911933838594,17.1838278509065
0.0157732331392968,17.1849673227612
0.0146487392395692,17.1861522441681
0.0122291493454469,17.1889638436521
0.0100966361876665,17.1918418732597
0.00841316378646656,17.1944938641754
0.00705291726576692,17.1969821828451
0.0058667585236491,17.1995011572285
0.00482485530129425,17.2020832521413
0.00390750000920248,17.2047521029568
0.0030989951749375,17.207530943146
0.00242318902041095,17.2102800100497
0.00188012655418557,17.2128754872878
0.0014337003447255,17.2153552628791
0.00105720682112288,17.2177643233101
0.000731955327456401,17.2201452614198
0.000444659664892068,17.2225388470029
0.000183635934868135,17.2250056784512
-6.90907860651485e-05,17.2277176262648
-0.000272155710473053,17.2301720695667
-0.000455053206235694,17.2326265128687
-0.000590474416743522,17.234609990202
-0.000701201592038201,17.2363451686164
-0.000801822361682753,17.2380148885144
-0.000899645754604126,17.239725730133
-0.00100134879034039,17.2415975794552
-0.00111877662673115,17.2438773774616
-0.00131980196510251,17.2480678599897
-0.00149245647159705,17.2519458474997
-0.00162981629867118,17.2552076435258
-0.00176781583772175,17.2586426287906
-0.00192784344022534,17.2628502016311
-0.00212921621029209,17.2686806635618
-0.00226765564090432,17.2736687035823
-0.00234349550033835,17.2781760846472
-0.00234432155457435,17.2822047385273
-0.00226163492368323,17.2858267935805
-0.00208878811295312,17.2891163107553
-0.00181901396761859,17.2921502080952
-0.00144506276355134,17.294986312898
-0.000958006195285777,17.297674506575
-0.000340257168508969,17.3002827960588
0.000447198596508036,17.3029155471683
0.00150625665172944,17.3057837125233
0.00289900883392782,17.3089079380758
0.00464180733499935,17.3122361010355
0.005973675050877,17.3144909167096
0.00744635280843592,17.3167457323838
0.00890345142756454,17.3187474505754
0.0103790488630915,17.3205563843249
0.0119143533358702,17.3222247537044
0.0135848981094056,17.323822452363
0.0154015524997187,17.3253410946933
0.0174154574135827,17.3268051897693
0.0196477590959947,17.3282108466515
0.0221380818218465,17.3295656047154
0.0249145028882242,17.3308682927973
0.0280180168023313,17.3321231160196
0.0314905522358376,17.3333325001446
0.0353779006625112,17.3344985904122
0.0397349720264998,17.3356245143512
0.0446278293459467,17.3367140247337
0.0501320702999246,17.3377704959781
0.0563374522874151,17.3387974985446
0.0633516453643321,17.3397988251982
0.0713040602463007,17.3407784079541
0.080356965593058,17.341740930749
0.0907122452185558,17.3426914900253
0.102628493872799,17.3436360670755
0.116446368890955,17.3445820062852
0.132630972221687,17.3455388115908
0.151852248217873,17.3465197925666
0.174340507515512,17.3475121950221
0.200441187355086,17.3485132091947
0.230901005072056,17.3495357907346
0.266771821387258,17.3505996048552
0.309665133840811,17.3517382990776
0.344351476426015,17.3525919635148
0.380340647129493,17.353445627952
0.412370823747598,17.3542044871574
0.440405741344714,17.3548950651145
0.464845243346811,17.3555497463734
0.485647168558371,17.3561923557486
0.502374308788752,17.3568447130198
0.51408045359195,17.3575328604112
0.518832941141297,17.358297961119
0.513524570564096,17.3591128075251
0.496614510587139,17.3599505585316
0.466679627954601,17.3608259138057
0.421966541928463,17.3617492371703
0.374893259396058,17.3625195320764
0.31984374338233,17.3632898269825
0.281337903971807,17.3637810337477
0.241023090368219,17.3642722405128
0.20480458670378,17.3647049509795
0.172689463744167,17.3650904090011
0.143823963717405,17.3654452918944
0.117602985463165,17.3657810646725
0.093594235798076,17.3661063072904
0.0714359109120657,17.3664288445242
0.0507386798186776,17.3667581185274
0.0308670475182368,17.3671111401061
0.0095911297339134,17.3675497957934
0.000358584435205464,17.3677688272055
-0.00798894269021099,17.3679878586175
-0.0144399135148596,17.3681746419431
-0.0203866515869149,17.3683640456845
-0.0263393864556471,17.3685747271236
-0.0320630814086064,17.3688032446563
-0.0374090094704121,17.3690475522885
-0.0422952480212312,17.3693069753377
-0.0466797200669207,17.3695817509725
-0.0505434835288536,17.3698727749734
-0.0541195277298686,17.3702075326287
-0.0568522084243016,17.3705349418398
-0.0590712707387659,17.3708840195473
-0.0607937759841227,17.3712581905543
-0.0620339928125277,17.3716612225295
-0.0628052814041988,17.3720977690098
-0.0631186023607091,17.3725736428465
-0.0629808140543242,17.3730962211839
-0.0623920734413651,17.3736753832852
-0.0613403569020343,17.3743253296484
-0.0597976354796203,17.3750649553013
-0.0577073084810208,17.3759232451911
-0.054950123827114,17.3769514960397
-0.051205590603185,17.3782727888809
-0.0471888735768985,17.3796593790307
-0.0433167196966212,17.3810009359924
-0.0396326493535554,17.3823016217429
-0.0361576504413964,17.3835635519135
-0.0329021270241345,17.3847874977881
-0.0298700801040683,17.3859735495161
-0.0270610673053974,17.3871214701704
-0.0244713155846888,17.3882308817672
-0.0220944831065795,17.3893013602041
-0.019922261327524,17.3903324785177
-0.0179448908744522,17.3913238191038
-0.0161516173181271,17.3922749660665
-0.0145310944432678,17.3931854838106
-0.0129793289565625,17.3941117410292
-0.0114886038827704,17.3950618886707
-0.0100630695388536,17.3960377738924
-0.00870661110187488,17.397041619594
-0.00742289956216664,17.3980760431231
-0.00621534078043782,17.399144155753
-0.00508702296608557,17.4002496941742
-0.00404066189839251,17.4013971988456
-0.00307854369695276,17.4025922618815
-0.00220246446457886,17.4038418816299
-0.00141366530182507,17.4051549875502
-0.000712759708963902,17.406543250207
-9.96475314988174e-05,17.408022397635
0.000426596493483591,17.4096145012793
0.000847119308765475,17.411258233569
0.00117405644523126,17.4129555604975
0.001422853344558,17.414725059968
0.00160772321603705,17.4165902522485
0.00174212877830083,17.4185831848602
0.00183926324246484,17.4207505678545
0.00191282674280874,17.4231671981157
0.00197872559372001,17.4259718435841
0.0020609576027396,17.429506516712
0.00216668816660184,17.433287122954
0.00229867803029775,17.437126905162
0.00244990158961527,17.4409050886161
0.00261663452454039,17.4446847295785
0.00279567983330637,17.4485126450561
0.00298511467996512,17.4524260368548
0.0031844200684885,17.4564574773272
0.00339434667093036,17.4606377848452
0.00361670369562995,17.4649978316714
0.00385416619964664,17.4695699494066
0.00411018491382705,17.4743893288909
0.00438908644860076,17.4794954312173
0.00469646019216102,17.4849333228782
0.00502230904634923,17.4904594880918
0.00535644340975388,17.495851807561
0.00570433208916614,17.5011590156662
0.00606774130779279,17.5063624006608
0.00645086323880864,17.5114777682534
0.00685769616346072,17.5165132999482
0.0072926385382332,17.5214776305112
0.00776028979020808,17.526376162924
0.00826559567146549,17.5312120016153
0.00881394026374873,17.5359861120648
0.00941126704252887,17.5406977894547
0.0100641892672106,17.5453450594473
0.0107845066907706,17.5499519875625
0.011595428974002,17.5545880239553
0.0125126985781608,17.5592476758178
0.0135602551940374,17.5639492884362
0.0147727477635018,17.5687313439263
0.016209895857891,17.5736875657991
0.0180078383354995,17.5790828833297
0.0204759865780961,17.5855128795139
0.0220864783808158,17.5893431749458
0.0237466386050869,17.5931734703777
0.0252020397372001,17.596589329222
0.0264320690689496,17.5996933458468
0.0274554920003686,17.6026637627996
0.0282298586477801,17.6055056832199
0.0287373306707488,17.6082589427932
0.0289702998472163,17.611046088018
0.028884888082247,17.6140435668865
0.0283123904057141,17.6177247523881
0.027500441639216,17.6207318379075
0.0264330513225333,17.6237389234269
0.0253567373927325,17.6263224784377
0.0242871319724191,17.6286651028143
0.023216161512708,17.6308853934446
0.0221442212726323,17.633038301873
0.0210745182800824,17.6351543952529
0.0200107749906939,17.6372536164925
0.0189566255130016,17.6393503739248
0.0179154558726643,17.6414558550323
0.0168903680126502,17.6435792517612
0.0158841788568945,17.6457284871523
0.014899432841562,17.6479106770142
0.0139384146421839,17.6501324518215
0.0130031606712416,17.6524001975414
0.0120954750116427,17.6547202344349
0.0112169335189133,17.6570989949777
0.0103688979245989,17.6595431633061
0.00955252749475904,17.6620598151025
0.00875860873324538,17.6646916111725
0.00797621606705393,17.6674995171225
0.00720912369574747,17.6705040480281
0.0064611730448084,17.6737295727251
0.00573645007169237,17.6772043050704
0.00503924984545814,17.6809610608969
0.00437402546998783,17.6850381568031
0.00374528642979419,17.6894806896474
0.00315741944274898,17.6943426596062
0.00261442012715241,17.6996908390795
0.00211956760533535,17.7056119013829
0.001676745247219,17.7121982362395
0.0013027477833687,17.7192629451087
0.00100373887534812,17.7268996546527
0.000799763714340256,17.7340942093975
0.000616134243255497,17.7427510204709
0.000474919020393023,17.7518990521372
0.000365874064743272,17.7618990521372
0.000291326904262465,17.7718990521372
0.000241276918803271,17.7818990521372
0.000208432724776355,17.7918990521372
0.000187603538966766,17.8018990521372
0.000175206035355034,17.8118990521372
0.000168818280040824,17.8218990521372
0.000166819746619534,17.8318990521372
0.000168134142265856,17.8418990521372
0.000172059522611128,17.8518990521372
0.000178159416553938,17.8618990521372
0.000186192953917764,17.8718990521372
0.000196070079089993,17.8818990521372
0.000207824244656218,17.8918990521372
0.000221598671823288,17.9018990521372
0.000237644330595111,17.9118990521372
0.000256329264789927,17.9218990521372
0.000278160403857786,17.9318990521372
0.000303820968167646,17.9418990521372
0.000334229437712058,17.9518990521372
0.000370630595700445,17.9618990521372
0.000414736866496785,17.9718990521372
0.000468356511051556,17.9817984633824
0.000529730359210263,17.9909563329516
0.00059971222531836,17.9994049721146
0.000679451139800886,18.0071991074361
0.000770283675086429,18.0143904000227
0.000873732598202637,18.0210267760831
0.000991523177503517,18.027152699784
0.00112560816178263,18.0328094433241
0.00127819802514602,18.0380353244936
0.00145179590204366,18.0428659224615
0.00164923760307817,18.0473342844793
0.00187373983976631,18.0514711252253
0.00212895754186522,18.055305016404
0.00241905399053147,18.058862570393
0.00274878891354433,18.0621686281824
0.00312363023692762,18.0652464564257
0.00354990107527528,18.0681179568864
0.00403497694760084,18.0708039031189
0.00458756058243809,18.0733242261582
0.00521808032019795,18.0756983810769
0.00593261027275865,18.0779268536199
0.00672284984693015,18.0799816184099
0.00759934901254374,18.0818979935162
0.00857826548338974,18.0837119606368
0.00968542714021565,18.0854632100346
0.0109685315962979,18.0872062416343
0.0125835713272655,18.089094530825
0.0150534273558768,18.0915617013236
0.0165961623826315,18.0929476008245
0.0182080644267364,18.0943335003255
0.0196744867528422,18.0955854554376
0.0209871052304025,18.0967439470504
0.0221607843681699,18.0978627380847
0.0231888766486804,18.0989816998533
0.0240481000508382,18.100141609859
0.0246935043079571,18.1014017699222
0.0250281587847964,18.1028911912804
0.0246582838745903,18.1051590370357
0.0239014100459825,18.1066557827404
0.0228346471911993,18.1081525284451
0.0216262116782186,18.1095608397325
0.0202787543005099,18.1109789969691
0.0188014262049327,18.1124533316527
0.017202511740272,18.1140207731612
0.0166110920363009,18.1146023576349
0.0160294971578015,18.1151839421085
0.0136914661257624,18.1176959451044
0.0112332598064232,18.1207310145922
0.00930327617877927,18.1235209056377
0.00777730081785989,18.1260909509355
0.00649937266155903,18.1285894250704
0.00538071451104734,18.1311340985647
0.0043968267035839,18.1337526920259
0.00353003925145489,18.1364684196547
0.00277573515510286,18.1392653386836
0.00217367161172796,18.1418980163778
0.00168356712183442,18.1443970648794
0.00127472613057775,18.1468046488447
0.000925033654005646,18.1491648903514
0.000618498415412042,18.1515230199362
0.00034227978913475,18.1539364374489
8.08951369255185e-05,18.1565304029537
-0.000213490928130891,18.1598963569127
-0.0003628864831918,18.1618188932993
-0.000500935759347098,18.1637414296859
-0.000618277882684547,18.1654952185822
-0.000723112965485537,18.1671610139265
-0.000823300529165766,18.1688442185161
-0.000925398762113298,18.1706542039315
-0.00103917191284054,18.1727858975565
-0.00120014405676428,18.1760089348126
-0.00136660464599595,18.1795926681685
-0.00149927290526567,18.1826267028434
-0.00162651823538294,18.1856820926823
-0.00176666874778571,18.1892167675342
-0.00193495389432687,18.1937359956119
-0.0021237269397083,18.1994123228963
-0.00225000966687409,18.2042946828299
-0.00231244353077523,18.2087007513804
-0.00229949607553848,18.212644575633
-0.00220310646514843,18.2161916074177
-0.00201675360067259,18.2194177706926
-0.00173394203234123,18.2223932927473
-0.00134673823220993,18.2251803855604
-0.000844129388841552,18.2278353173398
-0.000206652878085148,18.2304255722335
0.000613963588897736,18.2330756354812
0.00175596461461483,18.2360651730806
0.00321455187062435,18.23923897168
0.00503026066412712,18.242621823013
0.00633182814053358,18.2447783612141
0.00776764512631961,18.2469348994152
0.00919963936322204,18.2488652160778
0.0106637405495399,18.2506246949039
0.012210998337985,18.2522704993839
0.0138942969915361,18.2538435193345
0.0157397330381662,18.2553487188654
0.0177886537475397,18.2568000798332
0.020064009619176,18.2581947334415
0.0226036098975788,18.2595385848972
0.0254399011767078,18.260832371836
0.0286077034503189,18.262077152847
0.0321530446435126,18.2632769806398
0.036124408600372,18.2644345067727
0.0405761293425878,18.265552254619
0.0455757162386969,18.2666339744764
0.0512016625023164,18.2676832498856
0.0575465075831152,18.2687036777052
0.0647214210417052,18.2696990811648
0.0728613570104607,18.270673556261
0.0821325515514116,18.2716316029333
0.0927452515253006,18.2725784755104
0.104968662527066,18.2735202666834
0.119158552242453,18.274464490602
0.135803139701539,18.2754209521642
0.15560855709345,18.2764034171971
0.178684302795679,18.2773935631095
0.20547824900669,18.2783935439471
0.236767945200744,18.2794167490636
0.27366151811434,18.2804839038858
0.317435560261205,18.2816202362483
0.35177090192723,18.2824503454613
0.387203470211284,18.2832804546743
0.418750827557563,18.2840227574689
0.446381775089124,18.2847026750508
0.470428472288694,18.2853507767587
0.490795831436407,18.285990299436
0.506985411997877,18.2866434061346
0.517943523838084,18.2873377955989
0.521467825355291,18.2881198785064
0.514477364192038,18.2889350929562
0.495646918763313,18.2897764555175
0.463474265642609,18.2906581832438
0.416146106670425,18.2915901520803
0.369423240027921,18.2923296196718
0.315491938823107,18.2930690872633
0.267647176019872,18.2936680378796
0.227499343850804,18.2941497949895
0.192722475865286,18.2945629411382
0.161807588059584,18.2949348535102
0.133910076532898,18.2952809349405
0.108493689615357,18.2956113485166
0.0851591273872317,18.2959341750057
0.0635445567323553,18.2962575137222
0.043205370303558,18.2965925518231
0.0232301897391273,18.2969640957716
0.00826019494273942,18.2972830650683
-0.000212103471876913,18.2974852335604
-0.00792768316080134,18.2976874020525
-0.0143704301107464,18.2978729062533
-0.0203228035263487,18.2980613482434
-0.0262887476269669,18.2982711514073
-0.0320297257992254,18.2984988219558
-0.037394903006505,18.2987422831097
-0.0423010942147687,18.2990008389043
-0.0467054678749131,18.2992747104058
-0.0505893767649778,18.2995647797859
-0.0541805338175691,18.2998977258204
-0.056933322245977,18.3002239816958
-0.059171526428651,18.3005718163217
-0.0609121606793303,18.3009446270692
-0.0621695440086357,18.3013461595982
-0.0629571253636645,18.3017810403846
-0.0632859889147484,18.302255047865
-0.0631631530574153,18.302775513916
-0.0625890480328449,18.3033522076129
-0.0615519677780354,18.3039992629791
-0.0600243094579379,18.3047354147488
-0.0579502341949719,18.3055893463545
-0.0552123112931454,18.3066116296307
-0.0514974803137904,18.3079224974402
-0.0474706866825198,18.309311361041
-0.0435861035763779,18.310655112749
-0.0398883948668583,18.3119579974066
-0.036399122752416,18.3132221669259
-0.0331290485370299,18.3144484064924
-0.0300824341728814,18.3156368088892
-0.0272590440137752,18.3167871344021
-0.0246552727507197,18.3178989999834
-0.0222649131032131,18.3189719759772
-0.0200797605703995,18.3200056304761
-0.0180901314044023,18.3209995422808
-0.0162853205560493,18.3219532937977
-0.0146540075543882,18.3228664500864
-0.0130986700123224,18.3237911968137
-0.011604053731566,18.3247397590022
-0.0101743800709465,18.325713929693
-0.00881354569031184,18.3267159095049
-0.00752523683675088,18.3277482877948
-0.00631287806337265,18.3288141407191
-0.00517957986179735,18.3299171602871
-0.00412808404773292,18.3310618291605
-0.00316070673912284,18.3322536631987
-0.00227927829073328,18.3334995577144
-0.00148507876185474,18.3348082988138
-0.000778766084503064,18.3361913502055
-0.000160291374854999,18.3376641272048
0.000371209913826637,18.3392481985729
0.000798173286108889,18.3408891367304
0.00113043994949994,18.3425824338328
0.00138359390356126,18.3443465901524
0.00157190391788831,18.3462046983995
0.0017088608692611,18.3481881112484
0.001807645318111,18.3503422967598
0.001881870867325,18.3527395344064
0.00194717213512865,18.3555122941697
0.00202649325955079,18.3589784458513
0.00212945467970757,18.3627478322759
0.00225989193332365,18.3666175010746
0.00240930322171972,18.3704046239314
0.00257394512939753,18.3741787611427
0.00275058397105258,18.3779905012899
0.00293724271126325,18.3818788754922
0.00313333460477125,18.3858772988101
0.0033395265735856,18.3900168409288
0.00355752672379854,18.3943282174165
0.00378988583823047,18.3988432660433
0.00403988572464009,18.4035963152194
0.00431160051275096,18.4086256382378
0.00461021392423424,18.4139747577665
0.00493471619475389,18.4195578733466
0.00526450925609477,18.4249640888898
0.0056084633891912,18.4303038487632
0.00596671626158155,18.4355324703604
0.00634375851721195,18.4406718913053
0.00674336401201715,18.4457284070714
0.00716990598684624,18.4507119192368
0.00762788595407458,18.4556283538269
0.00812214350840777,18.460481492874
0.00865792073334255,18.4652728109545
0.00924099062443224,18.4700020269972
0.00987776547922225,18.4746674652987
0.0105754196583671,18.4792666123621
0.0113600226393676,18.4838976776482
0.0122454896493853,18.4885491250248
0.0132538830286427,18.4932365653011
0.0144159118105054,18.4979901361924
0.0157818502913971,18.5028825888595
0.0174555822393851,18.508106497773
0.0197953819654079,18.5144261237472
0.0214981232462592,18.5185675316691
0.0232833463007533,18.5227089395911
0.0248195358307468,18.5262777778423
0.0261097800999514,18.5294494678912
0.0271908957040529,18.5324427482241
0.0280411380520478,18.5353302721808
0.0286227553374599,18.5380969141655
0.0289344744330739,18.5408607397059
0.0289457982772226,18.5437742908025
0.0285462024468077,18.5471652959739
0.0277717039284247,18.5504377000042
0.0266754370414452,18.5537101040346
0.0255875899228788,18.5563946851395
0.0245168260046595,18.5587774692098
0.023446244157414,18.5610181919206
0.0223742753981128,18.563182479065
0.0213037748098893,18.5653045520468
0.0202384307629175,18.5674060544643
0.0191819167853098,18.5695023327645
0.0181376776161958,18.5716051381852
0.0171088765594015,18.5737240191586
0.0160983907155324,18.5758671268752
0.0151088222946387,18.5780417200255
0.0141425097158048,18.5802545145612
0.0132015425427752,18.5825119315525
0.0122877731494843,18.5848202949278
0.0114028240509111,18.5871860071143
0.0105481048804465,18.5896156822005
0.00972481483428567,18.5921163116213
0.00892888585278823,18.594712571496
0.00814367346310398,18.5974809799898
0.00737296615848594,18.6004412100984
0.00662055105977887,18.6036168829321
0.00589046234563477,18.6070353326065
0.00518695498189764,18.6107283087742
0.0045144540252726,18.6147328562708
0.00387746787017997,18.6190924812459
0.00328043018273214,18.6238590181995
0.00272744611258617,18.629096047986
0.00222197676568306,18.6348851395398
0.00176658709977735,18.6413362238873
0.00137830668361999,18.6482898037207
0.00106290488532449,18.6557929944021
0.000808848555309779,18.6643199357632
0.000638398876351878,18.6721736359986
0.000488226020986865,18.6815344205814
0.000375331700931868,18.6915344205814
0.000298022826651,18.7015344205814
0.000246026462996239,18.7115344205814
0.000211841136795395,18.7215344205814
0.000190101682726017,18.7315344205814
0.000177090161445715,18.7415344205814
0.00017028921759574,18.7515344205814
0.0001680141845747,18.7615344205814
0.000169146250736176,18.7715344205814
0.000172954879214897,18.7815344205814
0.000178983948498884,18.7915344205814
0.000186978906879182,18.8015344205814
0.000196840177102908,18.8115344205814
0.000208594657172848,18.8215344205814
0.000222381140580064,18.8315344205814
0.000238447696649354,18.8415344205814
0.000257160579247426,18.8515344205814
0.000279025765580377,18.8615344205814
0.000304726200640766,18.8715344205814
0.000335180697527367,18.8815344205814
0.000371634999988687,18.8915344205814
0.000415803240199381,18.9015344205814
0.000469489756532905,18.9114328370781
0.000530935965359007,18.9205896998933
0.000600996232399544,18.9290373627363
0.000680820494421335,18.9368305589194
0.000771746474829659,18.9440209533374
0.000875298253512706,18.9506564748945
0.000993202565037729,18.9567815898185
0.00112741380352629,18.9624375719756
0.00128014430851333,18.9676627405826
0.00145389934209425,18.9724926761374
0.00165151716367581,18.9769604272211
0.00187621731837255,18.9810967099149
0.00213165804821913,18.9849300974771
0.00242200654072448,18.9884872041183
0.00275202719325777,18.9917928731078
0.00312719359947613,18.9948703740413
0.0035538358810066,18.9977416126121
0.00403933842838101,19.0004273677923
0.00459241552662195,19.0029475782935
0.0052235111134533,19.0053217103894
0.00593853350294343,19.007549749823
0.00672933926137388,19.0096042956994
0.00760652105497755,19.0115206947432
0.0085863042456367,19.0133349720633
0.00969465646946794,19.0150869338192
0.0109796306074304,19.0168313996127
0.0125991802054315,19.0187237153974
0.0150792866452719,19.0211994490279
0.0166191541783619,19.022582478286
0.0182269035413508,19.0239655075441
0.0196895270077591,19.0252157321662
0.0209989862257393,19.0263736514022
0.0221696024911327,19.0274925899469
0.0231944176281382,19.0286123229895
0.0240498673193344,19.0297737752613
0.0246905157131666,19.0310368130021
0.0250179014048708,19.0325327441747
0.0246290486582717,19.0348170210215
0.0238640318314728,19.036310544023
0.0227931508209714,19.0378040670246
0.0215812325773785,19.0392122226305
0.0202306658462857,19.0406316404936
0.0187506171399496,19.0421081558826
0.0171492695123741,19.0436787027548
0.0165395314198379,19.0442789279511
0.0159415446503345,19.0448791531473
0.0136010535394955,19.0474058479137
0.0111649058203167,19.0504295803644
0.00925093317505959,19.0532102397712
0.00773550040177541,19.0557747142867
0.00646307829093678,19.0582742051035
0.00534896082185867,19.0608209380763
0.00436897986902748,19.0634423397483
0.00350559413100242,19.0661616114641
0.00275412967257891,19.0689631979151
0.0021543734077427,19.071600610087
0.00166607367226432,19.0741049642851
0.00125857651934761,19.0765190520589
0.000909858180508051,19.0788873473514
0.000604029745804272,19.0812552050465
0.000328308712349507,19.0836803874745
6.70551786250694e-05,19.0862911498396
-0.000229890574224939,19.0897135572353
-0.000377588179725917,19.0916302390505
-0.000514186325833969,19.0935469208657
-0.000630650097978637,19.0952994054961
-0.000735090052739441,19.0969693081379
-0.000835204825883259,19.0986611827424
-0.00093758821343632,19.1004864045615
-0.00105237007116848,19.1026488006307
-0.00121906317110009,19.1060074338224
-0.00138376543253397,19.10957487618
-0.00151567115879534,19.1126052732404
-0.0016436454135574,19.1156901748142
-0.00178546465257301,19.1192816794005
-0.00195664939751324,19.123907952981
-0.00214049172970061,19.1295108245022
-0.00226198690995614,19.1343556100807
-0.00231818021610265,19.1387237971402
-0.00229780164707041,19.1426337815593
-0.00219296136494521,19.1461547282374
-0.0019972387666437,19.1493609497463
-0.00170407371141883,19.152322735556
-0.00130536481803603,19.1551014286718
-0.00078974183939409,19.1577529112566
-0.0001365835963526,19.1603465356703
0.000704072790126242,19.1630073014194
0.00187774478347852,19.1660252778567
0.00336642274343614,19.1692139013339
0.00520779320901128,19.1725954266425
0.00650594142082464,19.1747152778023
0.00793849423002871,19.1768351289621
0.00937875712686183,19.1787464927267
0.010854486576976,19.1804907890009
0.0124219733614737,19.1821292536869
0.0141271900292834,19.1836939492932
0.015999187541486,19.1851924292873
0.0180774770588846,19.1866367141381
0.0203867001167348,19.1880250468293
0.0229635053790251,19.1893623607831
0.0258424028710398,19.1906502977203
0.0290571761513256,19.1918892380955
0.0326554746288477,19.1930836345085
0.0366868047379237,19.1942361820509
0.041208076914109,19.1953497573801
0.0462857077182476,19.1964274788455
0.0520011337353728,19.1974732471575
0.0584492582474895,19.198490698224
0.0657442363761866,19.1994836964804
0.0740251936799068,19.2004564265498
0.0834632941158422,19.2014134317334
0.0942762386560468,19.202360107554
0.106743838849006,19.2033027427312
0.121237916531203,19.204249159907
0.138272647095385,19.2052096821405
0.15860004569545,19.2061990215131
0.182156304334297,19.2071911495272
0.20952977031312,19.20819500645
0.241537281386956,19.2092248889883
0.27936639994878,19.210303534954
0.323661151875369,19.211441280858
0.365315421539376,19.2124397828469
0.399893479825209,19.2132507028706
0.429733812358013,19.2139651721938
0.455822020099877,19.2146302998898
0.478336522377118,19.2152735794334
0.497019008894913,19.2159170570556
0.511176768008259,19.2165841549629
0.519406645119951,19.2173076081807
0.518839194646569,19.2181164584789
0.507126601499526,19.2189411248137
0.483026690013445,19.2197980329611
0.444892971341827,19.220699456133
0.390862615366395,19.2216541831526
0.346294856557582,19.2223093470124
0.296531655937175,19.2229645108722
0.252189656979714,19.2235096918162
0.214306079406424,19.2239621662424
0.181093486926027,19.2243583553223
0.151374821715138,19.2247197912254
0.12445078507997,19.2250594359651
0.0998501580294797,19.2253864315776
0.0771989227209018,19.2257086187888
0.056125359095271,19.22603470106
0.0360975402534047,19.2263785753293
0.015683362878656,19.2267797330635
0.00818406980468276,19.2269452098788
0.00120875638830115,19.227110686694
-0.00669429456811863,19.2273147675931
-0.0133079682785747,19.2275024651119
-0.0192165385931931,19.2276866063892
-0.0251948329137463,19.2278929781771
-0.0309859960777562,19.2281178135297
-0.0364227796041999,19.2283587074389
-0.041412231983486,19.2286147534102
-0.0459057159012841,19.2288860304952
-0.0498811484212367,19.2291733136057
-0.0534332320944754,19.2294888752181
-0.0562994600196668,19.2298105537055
-0.058650274783993,19.2301534012912
-0.0605005898422794,19.2305204914115
-0.0618646653347952,19.2309153944576
-0.0627562540000251,19.2313425162152
-0.063187099612504,19.2318073437674
-0.0631653005720549,19.2323168100277
-0.0626932722841241,19.2328798580008
-0.0617622849670575,19.2335098312349
-0.0603490800294377,19.2342239844152
-0.0584060886271007,19.2350480863904
-0.0558355048820867,19.2360257466743
-0.0523971683392059,19.2372513103139
-0.0483485995464598,19.2386522610556
-0.0444277740441294,19.2400058931593
-0.040686414052675,19.2413177720699
-0.0371497072149213,19.2425905490309
-0.0338303885144266,19.2438252631467
-0.0307339813458377,19.2450221347653
-0.0278611524138887,19.2461809850996
-0.0252089811016252,19.2473014569747
-0.0227717877759001,19.2483831289114
-0.0205417677663985,19.2494255695222
-0.0185095263469519,19.2504283566201
-0.0166645495618638,19.2513910741384
-0.0149956218065447,19.252313294036
-0.0134276501282903,19.2532329605848
-0.0119192734547431,19.2541761883596
-0.0104749623485656,19.2551445860539
-0.00909865160724806,19.2561402808109
-0.00779407789786653,19.2571657694314
-0.00656472724793378,19.2582240118921
-0.00541378318197233,19.259318552453
-0.00434407259195849,19.2604536829181
-0.00335800925494359,19.2616346678993
-0.0024575344894944,19.262868064272
-0.00164405373227167,19.2641621892015
-0.000918366577236409,19.2655278333324
-0.000280585470403466,19.2669794016037
0.000269966597356129,19.2685368540253
0.000720407717399492,19.2701688340215
0.00107234091992227,19.2718490280385
0.00134187731419086,19.2735957683989
0.00154350799944499,19.2754307826036
0.00169086495766251,19.2773832306433
0.00179715280497361,19.2794947133635
0.00187580727004784,19.2818298351234
0.00194180012031238,19.2845025633514
0.00201549839179295,19.2877654749038
0.00211320411687836,19.2915085510043
0.00223891274110151,19.2953925322199
0.00238455578233018,19.299184961142
0.00254659729095421,19.3029580445188
0.00272158288228014,19.3067641407494
0.00290719021529085,19.3106431435428
0.00310249895451833,19.3146288810595
0.00330790048931928,19.3187525586766
0.00352489595384224,19.3230448566813
0.00375588931002403,19.3275374391216
0.00400405312840929,19.3322643129925
0.00427335639901484,19.3372632834342
0.00456883806225944,19.3425772600019
0.00489303363681095,19.3481836770772
0.00522123943025288,19.3535958117669
0.00556373366036636,19.3589497617381
0.0059199749983181,19.3641896277145
0.00629457400566415,19.3693398049998
0.00669121216913939,19.3744057497193
0.00711425266890886,19.379397888205
0.00756815616223054,19.3843223635316
0.0080577176532457,19.3891832524996
0.0085881186991492,19.3939822539983
0.00916505910257104,19.3987192787524
0.00979486467687955,19.403392794118
0.0104846065801411,19.4080003456827
0.0112577147468323,19.4126272294187
0.0121297711952762,19.4172756550933
0.0131216499254458,19.4219575156979
0.0142626342431141,19.4267002350041
0.0155995709531145,19.4315689686874
0.0172257161936547,19.4367324624074
0.0194328128093319,19.4428052689627
0.0211971565822878,19.4471559043266
0.023064275986598,19.4515065396906
0.0246430217971107,19.4551625453227
0.0259612194918612,19.458370247199
0.0270678708349333,19.4613771406996
0.0279519301352912,19.4642880981482
0.0285660388543576,19.4670635914648
0.0289115253087443,19.4698208129162
0.028962785246216,19.4727048679361
0.0286262910964825,19.4760023841656
0.0278614486687709,19.4794239287001
0.0269922853287,19.4821467222948
0.025937573472052,19.4848695158896
0.0248687798614965,19.4873150838711
0.0237990766809364,19.4895920552329
0.0227273542188243,19.4917768120169
0.021655967865061,19.4939100077167
0.0205885037752583,19.4960163933064
0.0195286793653914,19.4981129893616
0.0184800246941955,19.5002125362838
0.0174457974560563,19.5023251997339
0.0164289680863425,19.504459525376
0.0154322281025723,19.5066230220308
0.0144580009454987,19.508822554641
0.0135084569522556,19.5110646180245
0.0125855254269566,19.5133555494655
0.011690902735945,19.5157017113266
0.010826068708035,19.5181096302867
0.009992289334081,19.5205861629326
0.00919063496245572,19.5231386197842
0.00840146143542146,19.525848196126
0.00762556008342594,19.5287426329267
0.00686667151825286,19.5318443318426
0.00612875046598918,19.5351793288803
0.00541598309320367,19.5387778280991
0.00473274573284399,19.5426750135249
0.00408353101342884,19.5469121063814
0.00347282132485766,19.5515379073996
0.00290486540972144,19.5566115797319
0.00238337193722998,19.5622078144403
0.00191121059287413,19.5684258276493
0.00150029394363079,19.5752163835248
0.0012208999924235,19.5809865225248
0.00100688792194079,19.5867566615249
0.00078275750862434,19.5947394533746
0.000601679064312523,19.6035087109423
0.000461436441200496,19.6129022437864
0.000356773133293823,19.6229022437864
0.000285407012841918,19.6329022437864
0.000237632210649421,19.6429022437864
0.000206394367672523,19.6529022437864
0.000186700965891185,19.6629022437864
0.000175120981435467,19.6729022437864
0.000169340092306145,19.6829022437864
0.000167810570729412,19.6929022437864
0.000169505477814022,19.7029022437864
0.000173757557531984,19.7129022437864
0.000180156010701149,19.7229022437864
0.000188480089152004,19.7329022437864
0.000198656605155504,19.7429022437864
0.000210734386659911,19.7529022437865
0.000224872097201997,19.7629022437865
0.000241337775024271,19.7729022437865
0.000260519911828239,19.7829022437865
0.000282951473771153,19.7929022437865
0.000309350359745685,19.8029022437865
0.000340682882739719,19.8129022437865
0.000378261819009311,19.8229022437865
0.000423899067167177,19.8329022437865
0.000478726691662154,19.8426709592306
0.000541433781200477,19.8517033248026
0.000612923019172855,19.8600362512853
0.000694374020367046,19.8677239102864
0.000787152750554941,19.8748172706044
0.000892813350707216,19.8813636197899
0.00101311623731474,19.8874068364063
0.00115005389726849,19.8929876534055
0.00130588193733975,19.8981438899076
0.00148315456002716,19.9029106647687
0.00168476596827924,19.9073206013313
0.00191399960679165,19.9114040249115
0.002174587664111,19.9151891502974
0.00247078331532819,19.9187022652297
0.00280745238773873,19.9219679192426
0.0031901898734303,19.9250091219299
0.00362547348017913,19.9278475550882
0.00412087132945526,19.9305038152779
0.00468533260403072,19.9329977093182
0.00532961173941593,19.9353486378634
0.00605575235592969,19.9375453386016
0.00685900242203503,19.9395741152979
0.00775064875857668,19.9414702763314
0.00874795584155988,19.9432699294554
0.00987902175516827,19.9450140002712
0.0111973242133773,19.9467612864469
0.0128955275411055,19.9486979141094
0.0147345646814354,19.9505302009766
0.0163258101407942,19.9519755603854
0.0180012869219476,19.9534209197943
0.0194966872929453,19.9546939195212
0.0208304036849426,19.9558610163174
0.0220243261546068,19.956982069157
0.0230745292675626,19.9580980806614
0.02396003807596,19.9592488442337
0.0246397329287132,19.9604894837223
0.0250281254054159,19.9619323633433
0.0248073556124914,19.964056539248
0.0241200249521324,19.9655899799156
0.0230863925865909,19.9671234205832
0.0219074678700994,19.9685377424759
0.0205877796113613,19.9699487542478
0.019135939529593,19.9714079895751
0.0175609469254508,19.9729526549604
0.016573520282029,19.9739220269698
0.015614052257459,19.9748913989793
0.01324569836651,19.9774941734971
0.0108905589600629,19.980477885832
0.00903781411747963,19.9832233434563
0.00756348941458314,19.9857659193897
0.00631294765825499,19.9882692432562
0.00521702005562314,19.9908238956529
0.00425278500252416,19.9934561868236
0.00340319092532105,19.9961892770007
0.00288960007490632,19.9980946385003
0.00243217708126658,20
