ecg,time
0.00527020318734822,15.0008341425564
0.005618206300954,15.0052873692731
0.00600227331890312,15.0099636497477
0.00643058721630068,15.0148978116026
0.00689430301078456,15.019921490953
0.00738153829534998,15.0248611804191
0.00789950677422602,15.0297527376754
0.00845071386912891,15.0345737303053
0.00904093359663084,15.0393258429954
0.00967675396276776,15.0440095014523
0.0103660201534405,15.0486272239631
0.0111336391274603,15.0532737101209
0.0119944394182697,15.0579470867124
0.0129697338408215,15.0626632714427
0.0140886367985961,15.0674511055524
0.0153970731799049,15.072376277679
0.0169850446804008,15.0776063849285
0.0191281344306043,15.0837435251479
0.0208708700761463,15.0882237224064
0.0227138273841699,15.0927039196649
0.024261275181961,15.0964481064506
0.0255486328437627,15.0997283596635
0.0266256117461436,15.1028022385802
0.0274837826674278,15.1057874675713
0.028072893110533,15.1086342756407
0.0283935111643376,15.1114634917142
0.0284188312552572,15.1144262085139
0.0280512634701174,15.1178250737229
0.0272687136608563,15.1212984219068
0.0261390818674412,15.1247717700908
0.0250380676527877,15.1275561921753
0.0239609883619499,15.1300126927216
0.0228862255310607,15.1323202376774
0.0218114137597107,15.1345487975744
0.0207392441739934,15.1367342824423
0.0196733662550631,15.1388993063189
0.0186174654845798,15.1410598653126
0.017575020783094,15.1432281938991
0.0165492460341211,15.1454142129732
0.0155430768087159,15.1476263734154
0.0145591769507917,15.1498721793842
0.013599951527416,15.1521585347872
0.0126675513258842,15.1544920109093
0.0117638882544394,15.1568790277662
0.0108906428251368,15.1593260157692
0.0100492683463521,15.1618395663418
0.00924100351175487,15.1644265491839
0.00846687793341999,15.1670942471704
0.0077055510912219,15.1699367407955
0.00696037821253595,15.1729751958982
0.00623509083091848,15.1762333461647
0.0055336214191808,15.1797385604851
0.00486006591178904,15.1835225135401
0.00421861605336319,15.1876220642811
0.00361344771646237,15.1920805245507
0.00304855659055017,15.1969497246023
0.00252763883061557,15.2022938484603
0.00205355759807652,15.2081958809528
0.00162833366006881,15.2147666854557
0.00126252525881795,15.2219502664347
0.000957689067665882,15.229726889184
0.000707208556524202,15.2382246087853
0.0005048945176251,15.2476138737307
0.000358830417890707,15.2576138737307
0.000273230604719324,15.2662851292874
0.000202768587511683,15.2762851292874
0.000153660062410426,15.2862851292874
0.000119624075927587,15.2962851292873
9.64178254290874e-05,15.3062851292873
8.09263610565765e-05,15.3162851292873
7.08523730056044e-05,15.3262851292873
6.45550026685732e-05,15.3362851292873
6.0899435403068e-05,15.3462851292873
5.91144115343076e-05,15.3562851292873
5.86772485446086e-05,15.3662851292873
5.92324678160728e-05,15.3762851292873
6.05382008473265e-05,15.3862851292873
6.24313908145989e-05,15.3962851292873
6.48046377885665e-05,15.4062851292873
6.75902934231087e-05,15.4162851292873
7.07493663427295e-05,15.4262851292873
7.42638280999777e-05,15.4362851292873
7.81313907597683e-05,15.4462851292873
8.23620823945883e-05,15.4562851292873
8.69761266239594e-05,15.4662851292873
9.20027789063604e-05,15.4762851292873
9.74798898735483e-05,15.4862851292873
0.000103454055674363,15.4962851292873
0.000109981282670746,15.5062851292873
0.000117128146837985,15.5162851292873
0.000124973474452991,15.5262851292873
0.000133610616574759,15.5362851292873
0.000143150441365287,15.5462851292873
0.000153725231994887,15.5562851292873
0.000165493762173311,15.5662851292873
0.000178647938307354,15.5762851292873
0.000193421565083157,15.5862851292873
0.000210102038297845,15.5962851292873
0.000229046140633514,15.6062851292873
0.000250701687946873,15.6162851292873
0.000275637672562212,15.6262851292873
0.000304586996325576,15.6362851292873
0.000338508272847918,15.6462851292873
0.000378677228516895,15.6562851292873
0.000426825321793652,15.6662851292873
0.000484397523103573,15.6761340049385
0.000549555621338104,15.6852506090874
0.000623065218085898,15.6936680878276
0.000705964094383829,15.701439655056
0.000799460656512125,15.708615539701
0.00090493125178171,15.7152423584013
0.00102393537926637,15.7213633996813
0.00115823830061645,15.7270189049261
0.00130983955396492,15.7322462659808
0.00148100427590072,15.7370801799139
0.00167429791700377,15.7415528513319
0.00189263124605863,15.7456942198601
0.00213931197916868,15.7495321518661
0.00241810123315663,15.7530925630607
0.00273328936893389,15.7563995879169
0.00308978700630854,15.7594757900543
0.00349324412038413,15.7623423230837
0.00395019961475291,15.7650191018727
0.00446828733725971,15.7675250426428
0.00505652375731309,15.7698783161272
0.00572571585249457,15.7720966643922
0.00647377836381742,15.7741593414538
0.00729782989031039,15.7760625641334
0.0082084003601935,15.7778382334583
0.00922107822587944,15.7795179851046
0.0103601681136285,15.7811359693127
0.0116688279279183,15.7827370604435
0.0133052975882876,15.7844641031
0.0155452878038206,15.7864978197231
0.017289476840236,15.7879132978552
0.0191451427492551,15.7893287759873
0.020804358453339,15.7905651076609
0.022281116674215,15.791684939408
0.0236095931346495,15.7927531414834
0.0247913289365377,15.7938112143947
0.0258087053081439,15.7948968992074
0.0266247699572591,15.7960597008766
0.0271647955576761,15.7973941617994
0.0271943422651795,15.7992379948272
0.0265966734249614,15.8008508038858
0.0256697121291551,15.8022873064943
0.0245310019041828,15.8036551509984
0.0232247975178034,15.8050197265526
0.0217671181652781,15.8064299820748
0.0201689023807819,15.8079236515554
0.0184356513201812,15.8095410030897
0.0165999688345922,15.8113381810309
0.014496864638341,15.8136126979904
0.0125973379358585,15.8159347965447
0.0108095642570862,15.8184432994021
0.0092227968914895,15.8210415168492
0.00793630004133257,15.8235171467829
0.00683187206680506,15.8260254541932
0.00588279224975994,15.8285969889341
0.00507221889509219,15.8312551221508
0.00438852982972113,15.8340229098386
0.00382450310592738,15.8369248197331
0.00337745873389046,15.8399881310361
0.00305041718657904,15.8432444431809
0.00285490679614787,15.8467315458455
0.00281447755592398,15.8502848577853
0.00291953423855946,15.8534641292656
0.0031417411458651,15.8563326183734
0.00346557147999701,15.8589359298789
0.00388426413391811,15.861320226893
0.00439850008747172,15.8635320830516
0.00501697504991225,15.8656200638216
0.00575903644662879,15.8676375566513
0.00666203611497278,15.8696509611851
0.00779864907203385,15.8717554996186
0.00931088623144981,15.8740958892197
0.0113493264553707,15.8767383722384
0.0130562145527838,15.8786438743651
0.0149962348278319,15.8805493764918
0.0169492619184076,15.8822317703413
0.0189603591589281,15.8837516448639
0.0211159828760001,15.8851766979458
0.0234579607545034,15.8865250159909
0.0260418226852569,15.8878152289013
0.0289131162785527,15.8890544041856
0.032117354405117,15.8902466119753
0.0357048089399692,15.8913954909353
0.0397299033271763,15.8925039369875
0.0442513359622357,15.8935742093491
0.0493395125063808,15.8946094897503
0.0550723053471042,15.8956123545279
0.0615435999870274,15.8965860477507
0.0688622412431663,15.8975336464531
0.0771589715667409,15.8984585383744
0.0865911549456243,15.8993643016054
0.0973501077565887,15.9002547572363
0.109672625701543,15.9011341605099
0.12385484067998,15.902007258462
0.140273698413277,15.9028795211882
0.159420161356857,15.9037575222248
0.181954348684049,15.9046496197907
0.208615590592546,15.9055612406398
0.239449897167826,15.9064749174879
0.275224487263792,15.9073996480546
0.317011906804946,15.9083505327347
0.36666125397325,15.9093599585852
0.40344036568017,15.9100562116581
0.441261305097942,15.9107524647311
0.474918391654828,15.911377975099
0.504529021188812,15.9119573599134
0.530509335636443,15.9125192063932
0.552729563362787,15.9130867235613
0.570543427259734,15.9136862631326
0.582429650719936,15.9143616781352
0.584672409181996,15.915105836412
0.574955715300562,15.9158776068455
0.551889206936381,15.9166987513039
0.515579287179045,15.917543372285
0.465591541488418,15.9184183092502
0.400732590866364,15.9193350782515
0.351345784850402,15.9199436005357
0.297850446895712,15.9205521228199
0.251112843384776,15.9210599085116
0.211526027123233,15.9214843643001
0.176991940315959,15.9218586000525
0.146197710361041,15.9222021902004
0.118364972801088,15.922527148133
0.0929613749638536,15.9228423055643
0.0695466750918192,15.9231558514084
0.0476369257352856,15.9234781921846
0.0263692796564431,15.9238301634889
0.0082647305928442,15.9241747802153
-0.00129400212058986,15.9243805906173
-0.00995493986536611,15.9245864010193
-0.0166561766329739,15.9247617173979
-0.0228052845960086,15.9249381889402
-0.0290222053265738,15.925135808161
-0.0350443846815152,15.9253510460413
-0.0407026001903407,15.9255817246627
-0.045902039418566,15.9258270400772
-0.0505927982094699,15.9260871060941
-0.0547522004559341,15.9263626964277
-0.0583743441814307,15.9266551201979
-0.0614637012044418,15.92696618018
-0.0640281884453596,15.927298187266
-0.0661729073479569,15.9276754781007
-0.0676666864893073,15.9280569493254
-0.0686776396817297,15.9284697894706
-0.0692200556598755,15.9289197855994
-0.0693030541239325,15.9294139403968
-0.0689296940721111,15.9299613476525
-0.0680917793118152,15.9305753986942
-0.0667647903904401,15.9312740785048
-0.0648971374289286,15.9320844882792
-0.0623794341673714,15.9330537692312
-0.0589272305522023,15.9342902339381
-0.0548288986321097,15.9357072962138
-0.0508333242025662,15.9370794583035
-0.04699747147548,15.9384121423465
-0.0433508476381414,15.9397075247568
-0.0399096749816658,15.940966307754
-0.0366826215703357,15.9421884552871
-0.0336732583442498,15.9433735834199
-0.0308813135096584,15.9445211667151
-0.0283034620663815,15.9456306455296
-0.0259339277855441,15.9467014778125
-0.0237650019700771,15.9477331579904
-0.0217875151461441,15.9487252150154
-0.0199912693952349,15.9496771962572
-0.018365430421904,15.9505886409385
-0.0168094184030568,15.9515138292437
-0.0153118010960243,15.9524628916671
-0.0138767094941071,15.9534376441968
-0.0125079773381118,15.9544402943801
-0.0112092196852128,15.9554734417238
-0.00998377808254678,15.9565401763002
-0.00883466345891536,15.9576442088621
-0.00776449537637159,15.9587900472382
-0.00677543679127199,15.9599832413278
-0.0058691225732431,15.9612307332127
-0.00504657845334094,15.9625413748085
-0.00430812412467748,15.9639267255158
-0.00365324833500632,15.9654023460698
-0.00308043084989025,15.9669900397971
-0.00260956739519136,15.9686319602593
-0.00222992735973031,15.970326835149
-0.00192569339312059,15.9720931816583
-0.00168217006500399,15.9739542805075
-0.00148519112925358,15.9759417940747
-0.00132050367160443,15.9781017479766
-0.00117269149809916,15.9805075546484
-0.00102267946241051,15.9832945148475
-0.000838860496510658,15.9867912579402
-0.000627952574115504,15.9905648587259
-0.000379099145886973,15.9946536887054
-9.86190405249873e-05,15.9989699193418
0.000208016781481725,16.003537506753
0.000534105365028174,16.0083810744373
0.000874414770359915,16.0135270347566
0.00117430840163171,16.018176860373
0.00144873773154534,16.0225390039257
0.00171552742521601,16.0268707457128
0.00199420173135503,16.0314728789474
0.00229457527973946,16.0364916268246
0.0025871689187407,16.0413981943108
0.00288941990495981,16.0464524794188
0.0031462276969199,16.0506999052914
0.00338732676721241,16.0546356772554
0.0036248034571841,16.0584483132422
0.00386503905097384,16.0622276702845
0.00411260407838873,16.0660298170598
0.00437147870337776,16.0698963882367
0.00464556153144468,16.0738618570202
0.00493896778674165,16.0779570546716
0.00525631094074948,16.0822118357013
0.0056029554124189,16.0866564415893
0.00598536231039199,16.0913227155361
0.00641162998555036,16.0962453414133
0.00687463171473923,16.1012747948673
0.00736057313990276,16.1062153879516
0.00787727524889639,16.1111100189309
0.00842697654955258,16.1159338294127
0.00901545059134759,16.1206888671403
0.00964921781794148,16.12537532311
0.0103360840173608,16.1299957504154
0.0111001131277004,16.1346406419806
0.0119566841275645,16.1393127182775
0.0129267308078731,16.1440266965877
0.0140389390326814,16.1488106312844
0.0153382170673089,16.1537279018801
0.0169115416847196,16.1589390561154
0.0190177318514081,16.1650068633979
0.0207824846030807,16.1695638014064
0.0226542880739218,16.1741207394148
0.0242144595346146,16.1778928110716
0.0255094298262776,16.1811837703416
0.0265931881823799,16.184261762801
0.0274603417791789,16.1872537509255
0.0280580418432515,16.1901032618432
0.0283875418897775,16.1929309786813
0.0284232894048427,16.1958861682906
0.0280718326088076,16.1992614077463
0.0270507620252385,16.2036119973817
0.0261500044887354,16.2063023960823
0.0250899662106949,16.2089927947828
0.024016377779901,16.2114508575158
0.0229419073151841,16.2137633156745
0.021867075214425,16.2159948545243
0.0207946926970018,16.2181819066032
0.0197284059607573,16.220347528372
0.0186719080578539,16.2225079683902
0.0176286909574802,16.2246756123098
0.0166019831514037,16.2268604756896
0.0155947344164387,16.2290710709282
0.0146096226585588,16.2313149409304
0.0136490661869495,16.2335990135882
0.0127152286633488,16.235929872378
0.0118100345936101,16.2383139399065
0.0109351758878323,16.2407576435489
0.0100921176932828,16.2432675624848
0.00928210958590017,16.2458505490902
0.00850619189606623,16.248513861481
0.00774414875213741,16.2513468511809
0.00699805663792779,16.2543747410827
0.0062716542947483,16.2576210302265
0.00556886448712409,16.2611128877657
0.00489377613832754,16.2648817499238
0.00425057849807175,16.2689641845172
0.00364345206153377,16.273403132319
0.00307639680298058,16.2782499713296
0.00255315204485957,16.283568009837
0.00207661873947163,16.2894391393648
0.00164885706970483,16.2959725521503
0.00127973991626593,16.3031285207079
0.000971940106019052,16.3108719653274
0.000718827929994271,16.3193289604524
0.000514187226185794,16.3286675342189
0.00036472912223866,16.3386675342189
0.000278537383810292,16.3472160868148
0.000206471195431443,16.3572160868148
0.000156253992759223,16.3672160868148
0.000121415092344745,16.3772160868148
9.76276395252529e-05,16.3872160868148
8.17237311381609e-05,16.3972160868148
7.13618518759464e-05,16.4072160868148
6.48642785773081e-05,16.4172160868148
6.10682667811859e-05,16.4272160868148
5.91830772649273e-05,16.4372160868148
5.86729978538484e-05,16.4472160868148
5.9173846738463e-05,16.4572160868148
6.04378087334629e-05,16.4672160868148
6.22976587297832e-05,16.4772160868148
6.46430265949789e-05,16.4872160868148
6.74041288181674e-05,16.4972160868148
7.05404246588825e-05,16.5072160868148
7.40327405829522e-05,16.5172160868148
7.78779142287409e-05,16.5272160868148
8.20852725241441e-05,16.5372160868148
8.66744404527485e-05,16.5472160868148
9.16741248627821e-05,16.5572160868148
9.71216369718805e-05,16.5672160868148
0.000103063008546636,16.5772160868148
0.000109553625336109,16.5872160868148
0.000116659355045958,16.5972160868148
0.000124458193605941,16.6072160868148
0.000133042499247861,16.6172160868148
0.000142521934919786,16.6272160868148
0.000153027302271827,16.6372160868148
0.000164715533144163,16.6472160868148
0.000177776218939713,16.6572160868148
0.000192440222164603,16.6672160868149
0.000208991155350933,16.6772160868149
0.000227780874778561,16.6872160868149
0.000249250692678884,16.6972160868149
0.000273960884743835,16.7072160868149
0.000302632472433057,16.7172160868149
0.000336207570442165,16.7272160868149
0.000375938503996873,16.7372160868149
0.000423522738694855,16.7472160868149
0.000480657237866099,16.7571113395423
0.000545335422954207,16.7662725787546
0.000618306358455608,16.7747313176816
0.000700597512799941,16.7825409457601
0.000793407453404011,16.7897519224346
0.000898102087065311,16.7964110781935
0.00101622913353749,16.8025618967446
0.00114954052114881,16.8082447985827
0.00130002046564256,16.81349734665
0.00146991707615099,16.8183543973327
0.00166177596589546,16.8228483014148
0.00187848564056277,16.8270091306652
0.00212332771883827,16.8308648750122
0.00240003374655293,16.8344415651266
0.00271285931665388,16.8377634387578
0.00306667366839543,16.8408531501757
0.00346707794442926,16.8437319351068
0.00392055128346245,16.8464197780779
0.00443465301966027,16.8489356489564
0.00501830511732745,16.8512977563425
0.00568218967830716,16.8535238566564
0.00642585526674867,16.8555973517115
0.00724499626880498,16.8575094298286
0.00814988069455609,16.8592920037987
0.00915572471800533,16.8609767003481
0.0102861068220746,16.8625973522106
0.0115824831958207,16.8641977530939
0.0131923313362621,16.8659121049904
0.0154184254838672,16.8679496019693
0.0171795466496423,16.8693865476099
0.0190586940093581,16.8708234932506
0.0207298483204031,16.8720689332651
0.0222142648858637,16.873192616376
0.0235495853877571,16.8742622441356
0.0247385763857695,16.8753199697215
0.0257644343104099,16.876403383041
0.026591333982983,16.8775609625718
0.0271473722630833,16.8788834511767
0.0272161794750185,16.8806798496421
0.0266503503763004,16.8823063483844
0.0257417590895013,16.88374985285
0.0246155383278352,16.8851204875412
0.0233203730904377,16.8864834865987
0.0218728351939644,16.887889304207
0.0202841472612028,16.8893759638485
0.0185602924649519,16.8909831808908
0.0167306298622883,16.8927653855967
0.0149551220949702,16.8946540017693
0.0130861365701512,16.8968682127082
0.0112959162879357,16.8992834443331
0.00961547111533313,16.9019184582166
0.00825628010398375,16.9044231583467
0.00710675515785767,16.9069200400632
0.00611864024609312,16.9094726050138
0.0052729092008631,16.9121057093129
0.00455668293020947,16.9148423153223
0.00396160285546194,16.9177063819641
0.00348372891776688,16.9207243103263
0.00312439262045894,16.9239263996329
0.00289247163329005,16.9273485964192
0.00280934605437677,16.9310059971762
0.00288176968433568,16.9342688416948
0.00307684486810908,16.9372096161377
0.00337660049629337,16.9398750233187
0.00377199104324198,16.9423085359055
0.00426208064998456,16.9445583332948
0.00485343187268274,16.9466721172249
0.00556231421884083,16.9487014868765
0.00642079659040443,16.9507090394344
0.00749130239961298,16.9527822921749
0.00889334080315294,16.9550493624065
0.0108380126913212,16.9576778000041
0.0125656823497187,16.9596798632015
0.0145385393949083,16.9616819263988
0.0164975745599653,16.9634215621188
0.0184918670021756,16.9649749027351
0.0206080041964593,16.9664178372325
0.0229030248319662,16.9677821176511
0.0254252609848828,16.9690837333526
0.0282281175439514,16.9703348071521
0.0313499899552746,16.971536738738
0.0348460195373553,16.9726956332734
0.0387645177220854,16.9738127775869
0.0431664985881756,16.9748915967888
0.0481178130490224,16.975934606395
0.0536950439569146,16.9769446435149
0.0599881681257909,16.9779247982106
0.0671015777002561,16.9788780738302
0.0751611860168572,16.9798078798944
0.0843173079849847,16.9807177014278
0.0947527773499892,16.9816113090733
0.106692909484116,16.9824928544674
0.120418465604337,16.983366943857
0.136285582213801,16.9842388643746
0.154755286767985,16.9851148929609
0.176441913487222,16.98600287919
0.20220656017409,16.9869136150752
0.232031492245487,16.9878261683401
0.266602409366305,16.9887473644634
0.306900961758592,16.9896903924961
0.354515370412672,16.9906817645652
0.39236262479015,16.9914092655576
0.431706259490726,16.9921367665499
0.466617111359979,16.9927814365526
0.497214740251256,16.9933696985419
0.524127908974048,16.9939337882273
0.547361133306474,16.9944975980343
0.566414182122389,16.9950857402576
0.58006908549687,16.995735138532
0.585195482093901,16.9964758810887
0.578601295447629,16.9972385605378
0.559079855814415,16.9980452953233
0.525671419049291,16.9988945228045
0.479398825427804,16.999756284523
0.417778049872723,17.0006696481794
0.366380721550582,17.0013239379926
0.309884504413599,17.0019782278058
0.260871413603102,17.0025146404641
0.219849367762877,17.0029547541245
0.184326910012719,17.003338125155
0.152779634329572,17.0036873278646
0.124338903019878,17.0040156058187
0.0984336062387039,17.0043322501902
0.074613500163873,17.0046453943882
0.0524201036788062,17.0049645818953
0.031136982959912,17.0053067774385
0.00827846351879199,17.0057341837396
-0.0014143106265458,17.0059429967711
-0.0101834446769627,17.0061518098026
-0.0168595027909673,17.0063269769305
-0.0230171789144839,17.0065042615114
-0.0292314397366379,17.0067025359829
-0.0352435102373406,17.0069183246495
-0.0408873766572958,17.0071495072549
-0.0460701604077757,17.0073953173785
-0.050743122767394,17.0076558947087
-0.0548842963460137,17.0079320324974
-0.0584882196254351,17.008225056928
-0.061559633404986,17.0085367873142
-0.0641061891595616,17.0088695528786
-0.0662220670601841,17.0092455678388
-0.0677019182430645,17.0096278419454
-0.0686994780300664,17.0100416490791
-0.0692288200291993,17.0104927874427
-0.0692989256544892,17.0109883089908
-0.0689126428039277,17.0115373786492
-0.0680613557852688,17.0121535414581
-0.0667199899493405,17.0128549427415
-0.0648358943632636,17.013669049099
-0.0622971428569723,17.0146438860459
-0.0588096283280193,17.0158911465047
-0.0547132835581651,17.0173066975687
-0.0507216562795547,17.0186776831331
-0.0468908706323928,17.0200092842753
-0.043249919119819,17.0213036193998
-0.0398147537619325,17.0225613617331
-0.0365938721146049,17.0237824611081
-0.0335907216568285,17.0249665273419
-0.0308049339922924,17.0261130328914
-0.0282331065724897,17.0272214181025
-0.0258694011292857,17.0282911418285
-0.0237060610794168,17.0293216995899
-0.0217338818396407,17.0303126211453
-0.0199426421497477,17.0312634540455
-0.0183214948759548,17.0321737368053
-0.0167670251164775,17.0330995781969
-0.0152710899760816,17.0340493269934
-0.0138377893277095,17.0350248227064
-0.0124709517192974,17.0360282825513
-0.0111741853559497,17.0370623182098
-0.00995082339495042,17.0381300350554
-0.00880386673830318,17.0392351633338
-0.0077359231756262,17.0403822361145
-0.00674914200103319,17.0415768366242
-0.0058451423214679,17.0428259520082
-0.00502493166788652,17.0441384969209
-0.00428880851992976,17.0455261213581
-0.00363623635186359,17.0470045231236
-0.00306566352378934,17.0485957260968
-0.00259763186330347,17.0502388637095
-0.00222033613360334,17.0519354957007
-0.00191801936398411,17.0537041738776
-0.00167600722616325,17.0555683662331
-0.00148014077712351,17.057560039885
-0.00131615231849316,17.059725765871
-0.00116856763177329,17.062140064269
-0.00101813694128051,17.0649410160019
-0.00083254979399732,17.0684679869928
-0.000620810949066044,17.0722465915425
-0.000370947251739889,17.0763420809375
-8.9570137541363e-05,17.0806656698271
0.000217758983645545,17.0852413539596
0.000544349388981704,17.0900937934208
0.00088504129683957,17.0952494874301
0.00118387418790638,17.0998868047167
0.00145777556633198,17.1042439260849
0.00172461185344361,17.1085791919525
0.0020041673200228,17.1131981710743
0.00230395235936665,17.1182082285867
0.00259654364221121,17.1231148673463
0.00289943345108765,17.128178806381
0.00315538961018433,17.1324101484039
0.00339620117222649,17.1363389671728
0.0036336854246833,17.1401490549809
0.00387411952911314,17.1439283834047
0.00412203714830996,17.1477322451865
0.00438140868521948,17.1516019147156
0.00465613631469446,17.1555716802968
0.00495034911790395,17.1596722971353
0.00526868368216414,17.1639336108126
0.00561653825935428,17.1683859006084
0.00600042380910852,17.1730610940336
0.00642851402920025,17.1779940030408
0.00689215057185747,17.1830183054654
0.00737924317195776,17.1879580884418
0.0078970711240126,17.192849969851
0.0084481118732272,17.197671264497
0.00903813916228148,17.2024236937298
0.009673733965902,17.2071076595778
0.0103627364147334,17.2117256782445
0.0111299609027761,17.216371989549
0.0119902963480768,17.2210452227471
0.0129650138094728,17.2257611638078
0.0140831801144167,17.230548566076
0.0153906069400209,17.2354728608075
0.0169769567590064,17.2407008544255
0.0191158964625801,17.2468301488119
0.0208610079398193,17.2513186353036
0.0227070826943874,17.2558071217953
0.024255948305724,17.2595543985007
0.0255441702658278,17.2628358551747
0.0266219228936758,17.2659101951882
0.0274811186736041,17.2688961881364
0.0280712103634067,17.2717432982613
0.0283928445832295,17.2745723354797
0.0284193604839794,17.2775341784533
0.028053652665805,17.280930292176
0.0270201153849284,17.2852731096208
0.0261165388567809,17.2879528630882
0.025056291590868,17.2906326165557
0.0239827817757931,17.2930844665454
0.022908285604531,17.2953935990399
0.021833480458049,17.2976232894521
0.0207612324252104,17.299809367863
0.0196951969556065,17.3019746062966
0.0186390630987925,17.3041350986922
0.0175963151559032,17.3063031384067
0.016570172820088,17.308488683444
0.0155635774902138,17.3107002084103
0.0145791985568346,17.3129452327209
0.013619446424876,17.3152306694841
0.0126864770014905,17.3175630947075
0.0117822071037698,17.3199489296276
0.0109083220247211,17.3223946027402
0.0100662796216544,17.3249067010008
0.0092573230624056,17.3274920867655
0.0084824861173822,17.3301580333914
0.00772087159005589,17.33299675119
0.00697533041048268,17.3360310094712
0.00624959701197155,17.3392844487862
0.00554759999062265,17.3427843592102
0.00487343260262991,17.3465623207646
0.00423128578284847,17.3506550763374
0.0036253373186755,17.355105790492
0.00305958106000858,17.3599661477037
0.00253773842874107,17.3652999138153
0.00206268272536578,17.3711896799279
0.00163645090257467,17.377745639728
0.00126933269042333,17.3849182313106
0.000963323356213163,17.3926816486911
0.000711801146253352,17.4011631575939
0.000508566212458548,17.4105322404576
0.000361161912464072,17.4205322404576
0.000275328720185878,17.4291543454299
0.000204232419056195,17.4391543454299
0.000154685435753554,17.4491543454299
0.000120331965707668,17.4591543454299
9.68959464973355e-05,17.4691543454299
8.12414414810767e-05,17.4791543454299
7.10536402446054e-05,17.4891543454299
6.46771081484805e-05,17.4991543454299
6.09659944181908e-05,17.5091543454299
5.91413432663989e-05,17.5191543454299
5.867532334557e-05,17.5291543454299
5.92090158354503e-05,17.5391543454299
6.04982010692381e-05,17.5491543454299
6.23781739812617e-05,17.5591543454299
6.47403600549704e-05,17.5691543454299
6.75162664648571e-05,17.5791543454299
7.06662888827948e-05,17.5891543454299
7.41719456441771e-05,17.5991543454299
7.80306024936367e-05,17.6091543454299
8.22520095704368e-05,17.6191543454299
8.68561529500832e-05,17.6291543454299
9.18720701605815e-05,17.6391543454299
9.73373973385135e-05,17.6491543454299
0.0001032985060186,17.6591543454299
0.000109811155408814,17.6691543454299
0.000116941639286783,17.6791543454299
0.000124768452975699,17.6891543454299
0.00013338455171402,17.6991543454299
0.000142900323061936,17.7091543454299
0.000153447459287789,17.7191543454299
0.000165183999333236,17.7291543454299
0.00017830092591094,17.7391543454299
0.000193030869525256,17.7491543454299
0.000209659715790942,17.7591543454299
0.000228542280419565,17.7691543454299
0.000250123781863701,17.7791543454299
0.000274969730185872,17.7891543454299
0.00030380827949338,17.7991543454299
0.000337591447516729,17.8091543454299
0.000377585601485103,17.8191543454299
0.000425508598131253,17.8291543454299
0.000482906279277158,17.8390216431005
0.000547873033975466,17.8481559771506
0.000621167857360474,17.8565898450953
0.000703824423621469,17.8643765305747
0.000797047218759824,17.8715663540824
0.000902208425764505,17.8782060171884
0.00102086284719321,17.8843388859403
0.00115477042840917,17.8900052728929
0.00130592459813546,17.8952426378774
0.00147658370478561,17.9000857412513
0.00166930528766937,17.9045668456712
0.00188699123551523,17.9087159432363
0.00213293886035457,17.9125609494262
0.00241089748003706,17.9161278256086
0.00272514358922748,17.9194407472408
0.00308057128820523,17.9225223139341
0.00348281106345952,17.9253937118908
0.00393837795904915,17.9280748835838
0.0044548760475194,17.9305847664618
0.00504128403081987,17.9329415461867
0.00570835894358119,17.9351629703229
0.00645466765001811,17.937229937687
0.00727675967396724,17.9391366707106
0.00818505993087813,17.9409150745279
0.00919500704636567,17.9425967796494
0.010330612594745,17.9442158066498
0.011634344908145,17.9458165904108
0.0132600801858029,17.9475384805595
0.0154945364976028,17.9495737025434
0.017245360904738,17.9509976110726
0.0191102451239417,17.9524215196017
0.0207742268183797,17.9536614740828
0.0222540746728417,17.9547828462937
0.0235853229447,17.9558516148911
0.0247700021270076,17.9569095371851
0.0257908235734729,17.9579942891342
0.0266112956106242,17.9591549524653
0.0271578550986932,17.9604844981228
0.0272036869556692,17.9623085096668
0.0266190150624205,17.9639268590384
0.0256995847664127,17.9653661868293
0.0245660245852479,17.9667351278686
0.0232643754508388,17.9680990222635
0.0218108816892207,17.969507421869
0.0202166008157669,17.9709981712576
0.0184872359020811,17.9726113028705
0.0166540584131735,17.9744022381087
0.0145402092461454,17.9766822365493
0.0126352134073093,17.9790046422052
0.0108458759905807,17.9815076482888
0.00925207780500324,17.9841087164165
0.00796138899202459,17.9865839823765
0.00685345489785727,17.9890912155891
0.00590129260373043,17.9916611653349
0.00508793367467978,17.9943172309107
0.00440165833758078,17.9970824541686
0.00383515335942143,17.9999812584181
0.00338563521094464,18.003040848644
0.0030559827873809,18.006292715353
0.00285749820054527,18.0097744941536
0.00281369560993306,18.0133361248511
0.00291614564838104,18.0165221185559
0.00313616766745012,18.0193964130655
0.00345803976363697,18.0220046653893
0.00387483276552229,18.0243929342757
0.0043870769678412,18.0266077919358
0.00500329248329201,18.0286977646427
0.00574255563857244,18.0307160688459
0.00664176803058135,18.0327288014734
0.00777250468100146,18.0348301640151
0.00927508609688921,18.0371640279206
0.0113057206042365,18.0398055302414
0.0130139809021179,18.0417185752071
0.0149562056839878,18.0436316201728
0.0169092378167465,18.045318511067
0.0189180447005098,18.0468407348415
0.0210703805274714,18.04826756036
0.0234080800457032,18.0496172627614
0.025986382543898,18.0509084846231
0.0288514541217643,18.0521486909981
0.0320481991479878,18.0533417384357
0.0356273624855749,18.0544914924117
0.0396428721072628,18.0556007196301
0.0441535093839646,18.0566717447177
0.0492293729876743,18.057707716482
0.054948116415049,18.0587112129289
0.0614033133983039,18.0596854743016
0.0687033919716439,18.060633569741
0.0769786754886249,18.0615588915657
0.086385886613565,18.0624650091965
0.0971155370161858,18.0633557363164
0.109403388849456,18.0642353204542
0.123544166546049,18.0651084958471
0.139912880756794,18.0659807145556
0.1589977311992,18.0668585230551
0.181454553062081,18.0677502312172
0.20803821058324,18.0686618834422
0.238781393988372,18.0695754432074
0.274447054892053,18.0704998318656
0.316098924158786,18.0714499620305
0.365559788800873,18.0724576279337
0.402433690181356,18.0731565617452
0.440389401731385,18.0738554955566
0.474157928032697,18.0744826304157
0.503858827898578,18.075062755845
0.529926134860845,18.0756247469381
0.552242172238166,18.0761918495598
0.570174971052136,18.0767902210114
0.582235079917212,18.0774629613623
0.584754561841243,18.0782067295374
0.575339191636821,18.0789775723364
0.552616463953518,18.0797972888542
0.516594840773684,18.0806420831371
0.466974894422929,18.0815156729232
0.402399670415802,18.0824325028051
0.352820040527852,18.0830452512405
0.299042651494854,18.0836579996758
0.252087909247964,18.0841684799285
0.212361656867266,18.0845944340225
0.177730105019641,18.084969553552
0.146861000006712,18.0853136876544
0.118967577376654,18.0856389636636
0.0935138885884507,18.085954254435
0.0700589493231886,18.0862677375833
0.0481219596978931,18.0865897182867
0.0268577991251105,18.086940567549
0.00839200150027706,18.0872912131464
-0.0012161117738916,18.0874978758965
-0.00991865203892065,18.0877045386467
-0.0166263660335975,18.0878799463809
-0.0227742582030928,18.0880563002443
-0.0289915445481735,18.088253822979
-0.0350151911575377,18.0884689798233
-0.0406755026564474,18.0886995843971
-0.0458773802644162,18.0889448272076
-0.0505707476509241,18.0892048182694
-0.0547328233199257,18.0894803284014
-0.0583576405821786,18.089772664266
-0.0614496298588324,18.0900836260772
-0.0640167482350935,18.0904155221288
-0.0661657447091426,18.0907930059438
-0.0676615591911456,18.0911743602476
-0.0686744687154837,18.0915870594824
-0.0692187939962161,18.0920368892109
-0.0693036747874727,18.0925308449671
-0.0689322006863256,18.0930780102218
-0.0680962362136787,18.0936917540095
-0.0667713422958821,18.0943900381569
-0.0649060820641794,18.0951999111631
-0.0623914336731996,18.0961683873524
-0.058944317257384,18.0974032996387
-0.0548456987528984,18.0988205828811
-0.0508495530137772,18.1001929158528
-0.0470129650296649,18.1015257570666
-0.0433655174590002,18.1028212914211
-0.0399234721172688,18.1040802253763
-0.0366955219359038,18.1053025249462
-0.0336852558461873,18.1064878071094
-0.0308924161080348,18.1076355467384
-0.0283136890228156,18.1087451841932
-0.0259433073751155,18.1098161772914
-0.0237735694537717,18.1108480203002
-0.0217953109043213,18.111840242053
-0.0199983372189274,18.1127923898909
-0.0183718159792571,18.1137040031367
-0.0168155794970134,18.1146290966667
-0.0153177174047147,18.1155780594977
-0.0138823652258042,18.1165527042025
-0.0125133574517755,18.1175552369288
-0.0112143101323956,18.1185882554207
-0.00998856603090301,18.1196548475362
-0.00883913752908978,18.1207587212073
-0.00776864589537041,18.1219043806116
-0.00677925606642695,18.1230973708291
-0.00587260519671646,18.1243446274277
-0.00504972165528245,18.1256549932588
-0.00431092820902194,18.1270400146437
-0.00365571726656811,18.1285152325442
-0.00308257313744383,18.1301024185073
-0.00261129719534458,18.1317441633618
-0.0022313156038165,18.1334387844338
-0.00192680216768424,18.1352047940882
-0.00168305836478203,18.1370654460638
-0.00148591684738171,18.1390523588944
-0.00132112677835289,18.1412114798527
-0.00117328023483748,18.1436160626803
-0.00102332694262548,18.1464010116411
-0.000839759073326576,18.1498934412064
-0.00062896923269046,18.1536663420203
-0.000380260765214506,18.1577542265634
-9.99095596479834e-05,18.1620694125094
0.000206626709719604,18.166635850299
0.000532643475181443,18.1714781582492
0.000872898487275308,18.1766227365923
0.00117294467307726,18.1812743629661
0.00144745067602445,18.1856372418335
0.00171423561752312,18.1899685099748
0.00199278839909232,18.1945683086376
0.00229324749710354,18.1995883197626
0.00258584321492489,18.2044949030936
0.00288800589754859,18.2095478534222
0.00314493606265752,18.2137975839104
0.00338607662853415,18.2177343502579
0.0036235528552952,18.2215473533108
0.00386376099044912,18.2253267204886
0.00411127685374105,18.2291286312011
0.00437008202922134,18.2329947714237
0.00464407465317796,18.2369596407334
0.00493736802885703,18.2410540813251
0.00525457240435183,18.2453079491108
0.00560104747899479,18.2497514803964
0.00598324741483045,18.2544165067148
0.00640926006674128,18.2593376940618
0.00687217249580537,18.2643678688343
0.00735795229135166,18.2693085735271
0.00787449645469621,18.2742035899514
0.00842400993939872,18.2790277535124
0.00901226627992076,18.283783157952
0.00964577738542393,18.2884699641725
0.0103323442037973,18.2930907303042
0.0110959256728768,18.297735422834
0.0119519695069206,18.3024073380387
0.0129213623950815,18.3071210432981
0.014032737468199,18.3119044969394
0.0153308783813414,18.3168207957839
0.0169023944387222,18.3220296314383
0.0190041169168897,18.3280891109144
0.0207716792803185,18.3326558280902
0.0226471570235074,18.337222545266
0.0242088860948281,18.3409980542099
0.025504765376418,18.3442903079643
0.0265893277249893,18.3473687992721
0.0274575470025314,18.3503615987547
0.0280562645002645,18.3532114386074
0.0283868146311941,18.3560389877638
0.0284237912761493,18.3589933038845
0.0280742177852454,18.3623658123393
0.0270548063888708,18.3667174609363
0.0261544265290194,18.3694092827947
0.0250944166339548,18.3721011046531
0.024020817019019,18.3745599987545
0.0229463499138262,18.3768729011351
0.0218715144774936,18.3791046868315
0.0207991144700631,18.3812918692335
0.0197327948124586,18.3834575428381
0.0186762490681934,18.3856179768432
0.0176329702168505,18.3877855691999
0.01660618791273,18.3899703431324
0.0155988530376546,18.3921808160773
0.014613644628322,18.394424534059
0.013652982032074,18.396708426958
0.0127190299397118,18.3990390792445
0.0118137138771964,18.4014229137091
0.0109387266220839,18.4038663576096
0.010095534292158,18.4063759890903
0.00928538730547759,18.4089586592342
0.00850932686307591,18.4116216241448
0.00774722730744263,18.4144538580064
0.00700106262570822,18.4174809076196
0.00627457212703186,18.4207262533694
0.00557167780245744,18.4242170484681
0.00489646799832472,18.4279847101841
0.00425313173161106,18.4320657832859
0.00364584984443013,18.4365031790948
0.00307862310983419,18.4413482353352
0.00255519319314438,18.4466642002656
0.0020784646889992,18.4525328735501
0.00165050086416575,18.4590633157397
0.00128111910968233,18.4662170958603
0.00097308228560137,18.4739579112965
0.000719759626354359,18.4824116800776
0.000514932805105037,18.4917462395656
0.000365202359477365,18.5017462395656
0.000278962628629214,18.510285222999
0.000206767946867062,18.520285222999
0.000156461967556165,18.530285222999
0.000121558766334443,18.540285222999
9.77247591896731e-05,18.550285222999
8.17878122479136e-05,18.560285222999
7.14028748729241e-05,18.570285222999
6.48892716336082e-05,18.580285222999
6.10820196521527e-05,18.590285222999
5.91888182667416e-05,18.600285222999
5.86729111027706e-05,18.610285222999
5.91694191414866e-05,18.620285222999
6.04300509793837e-05,18.630285222999
6.22872477958086e-05,18.640285222999
6.46304017301729e-05,18.650285222999
6.73895584514413e-05,18.6602852229991
7.05240533562556e-05,18.6702852229991
7.40146214755372e-05,18.6802852229991
7.78580307461443e-05,18.6902852229991
8.20635523366604e-05,18.7002852229991
8.66507637560582e-05,18.7102852229991
9.16483284739335e-05,18.7202852229991
9.7093515174477e-05,18.7302852229991
0.000103032311224626,18.7402852229991
0.00010952005363568,18.7502852229991
0.000116622554561774,18.7602852229991
0.000124417744864378,18.7702852229991
0.000132997905025115,18.7802852229991
0.000142472603656874,18.7902852229991
0.000152972526496399,18.8002852229991
0.000164654461332686,18.8102852229991
0.000177707818582657,18.8202852229991
0.000192363230823777,18.8302852229991
0.0002089040150518,18.8402852229991
0.000227681642884315,18.8502852229991
0.000249136918987012,18.8602852229991
0.00027382943914386,18.8702852229991
0.00030247929868875,18.8802852229991
0.000336027327027129,18.8902852229991
0.000375724027788969,18.9002852229991
0.000423264222787478,18.9102852229991
0.000480364460098804,18.9201841303972
0.000545005077082647,18.9293488870442
0.000617933848446211,18.9378108774845
0.000700177433795321,18.9456235049852
0.000792933629661407,18.9528372471582
0.000897567526363449,18.9594989513512
0.00101562592185046,18.9656521166561
0.00114885970121929,18.9713371776808
0.00129925188120162,18.9765917108386
0.00146904923812053,18.9814505850707
0.00166079583365291,18.9859461626878
0.00187737843249651,18.9901085258792
0.00212207661080305,18.9939656743002
0.00239861960339921,18.9975436476849
0.00271126028388473,19.000866691935
0.00306486466079494,19.0039574684727
0.00346503006194273,19.0068372195053
0.00391823096013931,19.0095259350729
0.00443202088177084,19.0120425893009
0.00501531442654171,19.0144053938149
0.00567878397851725,19.0166321062406
0.00642210570849859,19.018706456148
0.00724086298573101,19.0206192346322
0.00814530352979581,19.0224023556143
0.00915061487282287,19.024087445687
0.0102803199100797,19.0257083138206
0.011575745522488,19.0273086721646
0.0131835520790082,19.0290220633184
0.0154085610277459,19.0310598609291
0.0171710474838256,19.0324985315768
0.019052082553157,19.0339372022246
0.0207241681934071,19.0351833576114
0.0222091706874974,19.0363073401336
0.0235450111054703,19.0373770800296
0.0247345515497855,19.0384347826864
0.0257610504218288,19.039518027845
0.0265887668111545,19.0406752184991
0.0271460054065369,19.0419968196394
0.0272176703644095,19.0437898127005
0.0266542201169391,19.0454173684951
0.0257469869812685,19.0468614147541
0.0246216814659218,19.048232272984
0.0233273247251624,19.0495951667322
0.0218805294486075,19.0510006673148
0.0202925384163038,19.0524868224195
0.018569369134371,19.054093309373
0.0167401409285149,19.0558744378646
0.0149941721734918,19.0577291351558
0.0131272082466346,19.0599352434131
0.0113363848999588,19.0623436053336
0.00964799723004982,19.0649818614713
0.00828242556510083,19.0674896314415
0.00712920410084154,19.0699857050674
0.0061379150905595,19.0725368244181
0.00528933612329951,19.0751679966252
0.0045704845183599,19.077902182233
0.00397291071133323,19.0807633036511
0.00349257660072903,19.0837776961264
0.00313068555947623,19.0869755602355
0.00289591828186689,19.0903927022405
0.00280932330771839,19.0940584839035
0.00287913388130167,19.0973280342408
0.00307206438719701,19.1002746390778
0.00336992555133101,19.1029449523074
0.00376350183407038,19.1053823905615
0.00425173793300762,19.1076352794311
0.0048410322595123,19.1097512240328
0.00554743358152499,19.1117817080183
0.0064025784490869,19.1137889394996
0.00746817046349816,19.1158599550407
0.00886217945857848,19.1181217686439
0.0107996548523114,19.1207489725515
0.0125293466441395,19.122759077429
0.0145053600295748,19.1247691823066
0.01646518311233,19.1265133434749
0.0184583952130578,19.1280692075712
0.0205717158999988,19.1295134266267
0.0228634859259078,19.1308789123621
0.0253814420710532,19.1321813966822
0.0281794944756379,19.1334333497166
0.0312956644039344,19.1346360303542
0.0347852662446739,19.1357956588693
0.0386962503025031,19.1369134355527
0.0430898076472701,19.1379928759347
0.0480314241263549,19.139036438114
0.0535976771090503,19.1400469965525
0.0598782260176924,19.1410276206162
0.0669771816362393,19.1419813125366
0.0750200863570996,19.1429114786561
0.0841567585871532,19.1438215975323
0.0945694782858311,19.1447154399615
0.106482748170122,19.1455971486131
0.12017625732419,19.1464713194648
0.136004727596796,19.1473432283587
0.154427128638377,19.1482191315547
0.176054691508477,19.1491068446452
0.201743224230889,19.1500170918072
0.231495324249521,19.1509295782119
0.265979669674932,19.1518505412215
0.306171854352976,19.1527930443609
0.353643642006518,19.1537832297357
0.391569101029349,19.1545131119756
0.431024790550184,19.1552429942155
0.466028046985183,19.1558891493435
0.496695973781445,19.1564781086622
0.523674021704771,19.1570424120641
0.546976510832785,19.1576060242359
0.566112842486073,19.158193463446
0.579883396303026,19.1588412545275
0.585203743318353,19.1595818211393
0.578818177526025,19.1603439365338
0.559532181193384,19.1611497412767
0.526310568486343,19.1619995198771
0.48027751353673,19.1628604785513
0.418891270557316,19.1637733447723
0.367360027949743,19.1644308270104
0.31065875566475,19.1650883092484
0.261492729307092,19.1656266759327
0.220376183426833,19.1660678382923
0.184789806398096,19.1664518130862
0.153194319331888,19.1668013856777
0.124714848534837,19.1671298849785
0.0987776070553874,19.1674466349696
0.0749315346175019,19.1677597695289
0.05271935755365,19.1680787874538
0.0314320026291123,19.1684204564162
0.00865054341747835,19.1688452907456
-0.00120920031100677,19.1690570941115
-0.0101177629567273,19.1692688974774
-0.0168081770086028,19.1694443027163
-0.022963998148064,19.1696213906187
-0.0291789659741097,19.1698195012014
-0.0351935933004592,19.1700351517558
-0.0408410728793431,19.1702662078392
-0.0460280440382372,19.1705118936683
-0.0507054782168496,19.1707723425176
-0.0548512298017666,19.1710483426818
-0.0584597275837811,19.1713412160757
-0.0615356448382577,19.1716527778048
-0.06408670139526,19.1719853525357
-0.0662097943414169,19.1723616867587
-0.0676931432767395,19.1727437587058
-0.0686940669377475,19.1731573223997
-0.0692266927381136,19.1736081731865
-0.0693000370020878,19.1741033506002
-0.0689170008848237,19.1746520016254
-0.0680690746127581,19.1752676325266
-0.0667313236625484,19.1759683480798
-0.0648513656522029,19.1767815223874
-0.062317919304853,19.1777549563911
-0.0588393475039258,19.1789994783269
-0.0547424942408455,19.1804154088909
-0.0507498643696826,19.1817866913089
-0.0469177952431772,19.1831185658769
-0.043275408354837,19.1844131655439
-0.0398387236135532,19.1856711708048
-0.0366162814701744,19.1868925350287
-0.0336115605115838,19.188076869595
-0.0308242166830814,19.1892236474841
-0.0282508669956041,19.1903323090407
-0.0258856887884438,19.1914023128878
-0.02372093755922,19.1924331542697
-0.0217474175550901,19.1934243627424
-0.019954913385283,19.194375485813
-0.018332581122406,19.1952860621777
-0.0167777212432092,19.1962117385674
-0.015281360693682,19.1971613139376
-0.0138476071982929,19.1981366218584
-0.0124802906192706,19.1991398770991
-0.0111830208960063,19.2001736882601
-0.00995913330891034,19.2012411568427
-0.00881163129628775,19.2023460081584
-0.00774312562489782,19.2034927688863
-0.00675576904339756,19.2046870138139
-0.00585118464440081,19.2059357186719
-0.00503038456101451,19.207247782218
-0.00429367263778498,19.2086348314831
-0.00364051874317265,19.2101125295064
-0.0030693791859915,19.2117028441875
-0.00260063326107237,19.2133456731256
-0.00222274629070526,19.2150418598592
-0.00191994613648723,19.2168099472266
-0.0016775531683482,19.2186733556843
-0.00148140664315042,19.2206639749261
-0.00131724267520104,19.2228282372692
-0.00116960187751564,19.2252403806065
-0.00101927914209093,19.2280377754636
-0.000834145026789206,19.2315570251852
-0.000622619052969576,19.2353343356226
-0.00037301123316598,19.239428141026
-9.18607419624962e-05,19.2437498691879
0.000215293586825682,19.2483235059653
0.000541757666268395,19.2531737021856
0.000882353280119645,19.2583269348568
0.00118145267637294,19.2629673882076
0.00145548598015871,19.2673257543127
0.00172230857454495,19.2716600972426
0.00200163708240666,19.2762747466116
0.00230156883276087,19.2812869685667
0.00259415871944689,19.2861935587893
0.00289688405994176,19.2912550129185
0.00315305393762231,19.2954903999362
0.00339393735828078,19.2994209695305
0.00363141885617365,19.3032316958321
0.00387180172654256,19.3070110243376
0.00411962889179567,19.3108144434507
0.00437887317943807,19.3146833185343
0.00465343581053799,19.3186519845341
0.00494744229715629,19.3227512157419
0.00526552329800859,19.3270108598436
0.00561306839114337,19.331461186329
0.00599657574961451,19.3361341010315
0.00642419974368414,19.3410643831451
0.006887674052542,19.3460900026594
0.00737447246383607,19.351029996041
0.00789201243342764,19.3559225805143
0.00844271048546373,19.3607445180583
0.00903234029072264,19.3654976130848
0.00966746741924032,19.3701822143799
0.0103559232514421,19.3748008477418
0.011122329974198,19.3794467959196
0.0119817018163133,19.3841197319598
0.0129552233488007,19.388835168543
0.0140718631431152,19.3936216778885
0.0153771993430068,19.3985441604998
0.016960196529598,19.4037677962105
0.019090608364643,19.4098810058902
0.0208406791121769,19.4143867891925
0.0226932574148087,19.4188925724948
0.0242450472725191,19.4226462360323
0.0255350394140537,19.425930167126
0.0266143735618952,19.4290054563444
0.0274756644379112,19.4319930168114
0.0280677610783447,19.4348407494952
0.0283914703744591,19.4376694273625
0.0284204259056468,19.440629496124
0.0280585026438683,19.4440200305366
0.0270282608808648,19.4483648709033
0.0261254263685823,19.4510474299554
0.025065233686095,19.4537299890076
0.0239917040202233,19.4561834754706
0.0229172147224737,19.4584934850024
0.0218424021249995,19.4607236629511
0.0207701180133871,19.4629099977907
0.0197040154505117,19.4650753365007
0.0186477845711671,19.4672358138161
0.0176049117168224,19.4694037474712
0.0165786189172505,19.4715891106769
0.0155718497987114,19.4738003880199
0.0145872760065331,19.4760451051325
0.0136273100519072,19.4783301790066
0.0126941098961351,19.4806621876244
0.0117895943931101,19.4830475525824
0.0109154506013502,19.4854927020425
0.0100731383053946,19.4880042209048
0.00926390238029989,19.4905889688453
0.00848877833390983,19.4932542151729
0.00772704968705154,19.4960914103767
0.00698136189414058,19.4991239758225
0.0062554505347158,19.5023755144216
0.00555324265991539,19.5058732840876
0.00487883038107027,19.5096488265924
0.00423640419844716,19.5137388382188
0.00363014263289494,19.5181864239408
0.00306404118083799,19.5230431865517
0.00254182604524751,19.5283727698147
0.00206637787742871,19.5342575782796
0.00163973978126224,19.5408075388299
0.00127209131235251,19.5479757052632
0.000965607028593797,19.5557338054442
0.000713663071490093,19.5642087874135
0.000510055272872679,19.5735697455586
0.000362106953456361,19.5835697455586
0.000276179255281149,19.5921721334486
0.000204825849172932,19.6021721334486
0.000155101175606073,19.6121721334486
0.000120619013556795,19.6221721334486
9.70898341815292e-05,19.6321721334486
8.13692181302706e-05,19.6421721334486
7.11352711882664e-05,19.6521721334486
6.47266496829356e-05,19.6621721334486
6.09930254679613e-05,19.6721721334486
5.91523200194559e-05,19.6821721334486
5.86746133278686e-05,19.6921721334486
5.91995915226777e-05,19.7021721334486
6.04820817615382e-05,19.7121721334486
6.23567108587012e-05,19.7221721334486
6.47144282079282e-05,19.7321721334486
6.74863987359867e-05,19.7421721334486
7.06327697618195e-05,19.7521721334486
7.41348760672833e-05,19.7621721334486
7.79899432243847e-05,19.7721721334486
8.22076089706862e-05,19.7821721334486
8.68077634054957e-05,19.7921721334486
9.18193560924976e-05,19.8021721334486
9.72799366700007e-05,19.8121721334486
0.000103235786162738,19.8221721334486
0.000109742564243872,19.8321721334486
0.000116866451091419,19.8421721334486
0.000124685808843321,19.8521721334486
0.000133293433486319,19.8621721334486
0.000142799519256581,19.8721721334486
0.000153335520771937,19.8821721334486
0.000165059181514126,19.8921721334486
0.000178161112832072,19.9021721334486
0.000192873473248579,19.9121721334486
0.00020948154145939,19.9221721334486
0.000228339342857014,19.9321721334486
0.00024989105252658,19.9421721334486
0.000274700782101571,19.9521721334486
0.000303494779644416,19.9621721334486
0.000337222415788331,19.9721721334486
0.000377146303149283,19.9821721334486
0.000419433075718771,19.9910860667243
0.000469599876074972,20
