ecg,time
0.00799346635839285,15.0015849819218
0.0085479670423908,15.0063930232541
0.00914262094990575,15.0111312853678
0.00978451147323322,15.0158026467503
0.0104828307108737,15.0204167794895
0.0112630895776257,15.0250669149526
0.0121396617485331,15.0297447659343
0.013134947331917,15.0344684998863
0.0142797723561134,15.0392701805796
0.0156241507607297,15.044224647498
0.0172708642598001,15.0495289828418
0.0195749408141008,15.0559703223067
0.0212431236063589,15.0601811820117
0.0229874346599654,15.0643920417167
0.0244852438673445,15.0680240656608
0.025740551302139,15.0712566203034
0.0267882684693147,15.0743107460446
0.0276071850407735,15.0772638072892
0.0281584869494345,15.080096637119
0.0284396001450986,15.0829311277629
0.0284176729814112,15.0859277799776
0.0279732703542945,15.089443049208
0.0271782249885233,15.0927436453204
0.0260769361334295,15.0960442414329
0.0249843546088228,15.0987770517135
0.023908538862977,15.1012146073743
0.0228340018212553,15.1035115936569
0.0217594423537697,15.105733049394
0.0206877199467142,15.1079134009451
0.0196225061894824,15.1100745902748
0.0185674752538455,15.112232243026
0.0175260873146677,15.1143983640107
0.0165015329173591,15.1165827287261
0.0154967264035598,15.1187936862617
0.0145143088745626,15.1210386752042
0.0135566638189471,15.123324555632
0.0126259222590845,15.1256578696802
0.0117239752679336,15.1280450269339
0.0108524851655215,15.1304924552742
0.0100128867635819,15.1330067587243
0.00920640249141375,15.1355948279483
0.00843250068817932,15.1382695336559
0.00767109591813479,15.1411217812932
0.00692603568356046,15.1441713467755
0.00620106395895912,15.1474422151872
0.00550013076518114,15.1509620359012
0.00482735044940142,15.1547628122498
0.0041869305980172,15.1588818026007
0.0035830635386671,15.1633628279646
0.00301986771257051,15.1682584142594
0.00250088811237875,15.173633743393
0.00202891739237976,15.1795733253251
0.00160595139260891,15.1861902511603
0.00124371485869595,15.1934017666287
0.000942061846912538,15.20121208541
0.000694391534264414,15.2097515343747
0.00049455313154584,15.2191930986045
0.000382730758616581,15.2269129016167
0.000279069326089031,15.2369129016167
0.000207267049872353,15.2469129016167
0.000157201984433062,15.2569129016167
0.000122599805357822,15.2669129016167
9.90711353597069e-05,15.2769129016167
8.33797437087752e-05,15.2869129016167
7.31669919432436e-05,15.2969129016167
6.67696262232156e-05,15.3069129016167
6.30455361118794e-05,15.3169129016167
6.12192866356234e-05,15.3269129016167
6.07640583722493e-05,15.3369129016167
6.13205879520233e-05,15.3469129016167
6.26442100084085e-05,15.3569129016167
6.45702061247945e-05,15.3669129016167
6.69904597051916e-05,15.3769129016167
6.98372972064694e-05,15.3869129016167
7.30722126048365e-05,15.3969129016167
7.66780817932417e-05,15.4069129016167
8.0653911396524e-05,15.4169129016167
8.50114229315392e-05,15.4269129016167
8.97729660216566e-05,15.4369129016167
9.49704108577509e-05,15.4469129016167
0.000100644792648657,15.4569129016167
0.000106846572882435,15.4669129016167
0.000113636451653228,15.4769129016167
0.000121086721169283,15.4869129016167
0.0001292832009392,15.4969129016167
0.000138327846949141,15.5069129016167
0.000148342187072246,15.5169129016167
0.000159471810778146,15.5269129016167
0.000171892243414242,15.5369129016167
0.000185816679223385,15.5469129016167
0.000201506256313607,15.5569129016167
0.000219283868194184,15.5669129016167
0.000239552980815868,15.5769129016167
0.000262823662534782,15.5869129016167
0.00028974921065986,15.5969129016167
0.000321178678176216,15.6069129016167
0.000358233823200294,15.6169129016167
0.000402424563158054,15.6269129016167
0.000455826940559023,15.6369129016167
0.000517292955901029,15.6463409702999
0.000586734912994659,15.6550524803243
0.000665087137454448,15.6630953948679
0.000753488894663171,15.6705213481993
0.000853247064880016,15.6773785004246
0.000965844469669425,15.6837115576016
0.00109296025942787,15.6895620608971
0.00123649545402341,15.6949686292539
0.00139860469911078,15.6999671123335
0.00158172660048929,15.7045907798162
0.00178862774717697,15.7088705361877
0.00202244711419709,15.7128351393657
0.00228675502548515,15.7165113404228
0.00258561647746917,15.7199240329702
0.00292367617212184,15.7230964483152
0.00330626801739718,15.7260503445586
0.00373954581672853,15.7288061619879
0.00423066655475043,15.7313832349644
0.00478804189480846,15.7338000469064
0.00542168577420638,15.7360745077958
0.00614012724481794,15.7382145419415
0.00693137286464345,15.7401816838803
0.00780433754494268,15.7420080712747
0.00877240000363548,15.7437256040266
0.0098556626098174,15.7453669093273
0.0110877745853402,15.7469711599882
0.0125660979738,15.7486311908424
0.0145587182046724,15.7505553970618
0.0164499501683051,15.7521634235988
0.0185095247499567,15.7537714501357
0.0202564584001167,15.7550814905681
0.021781869652848,15.7562311455087
0.0231517356156433,15.7573116973333
0.024376869404644,15.7583703141523
0.0254449877085135,15.7594443648105
0.0263259206969695,15.7605777052842
0.026960742225926,15.7618442527209
0.0272005618430878,15.7634472511584
0.026810458009271,15.7651206084131
0.0258718625924355,15.7667939656678
0.0247557648940418,15.76820791096
0.0234860121623825,15.7695724893625
0.0220644341255424,15.7709687175068
0.0205004794602786,15.7724386264046
0.0188009701303649,15.7740210039907
0.0174268561669844,15.7753299634551
0.0161301813036977,15.7766389229194
0.0139179741944937,15.7790932735304
0.012005982965738,15.7815133371458
0.0103359672014867,15.7839450605981
0.00882983871777898,15.7864975048326
0.0075833394441837,15.7889779476022
0.00651039147974827,15.7914993975967
0.00558704706719851,15.7940897936918
0.00479738387999559,15.7967722452084
0.00413018442372559,15.7995700183727
0.00357830218029023,15.8025081292155
0.00313885135394439,15.8056147461929
0.00281432513922778,15.8089227623647
0.00261527461333807,15.8124717931499
0.00256475931534664,15.8161445158743
0.00265780994782366,15.819424976123
0.00286583752844658,15.8223825676628
0.0031730399018335,15.8250614098628
0.00357251525501978,15.8275100321932
0.00406450271391758,15.8297759939085
0.00465659996277855,15.8319078329277
0.00536653692642286,15.8339595789033
0.00622790033989942,15.8359957533281
0.00730726134928032,15.8381105326661
0.00874295307781063,15.8404584821266
0.0106891448258076,15.8431226407967
0.0123774188864326,15.8451111178137
0.0142990955233747,15.8470995948307
0.0162097394132383,15.8488327657617
0.0181655807014614,15.8503898833761
0.0202351844328065,15.8518324962608
0.022493334977656,15.8532045030396
0.0249759388801306,15.8545131908271
0.0277330183499187,15.8557696454046
0.0308094878784221,15.8569783827528
0.0342534663214237,15.8581428955251
0.0381157619012922,15.8592656609625
0.0424552928237844,15.8603497228802
0.0473361497105355,15.8613974740947
0.0528349806073329,15.862412058521
0.0590384492608178,15.8633962571543
0.0660507984051758,15.8643533631778
0.0739947519004693,15.8652866489563
0.0830177210281529,15.8661995992204
0.0932994306507963,15.8670960242106
0.105060449505444,15.867980040264
0.118575906294255,15.8688562481301
0.134194728947424,15.8697299280088
0.152368075886421,15.8706073246336
0.173696393134134,15.8714962263617
0.19901832338377,15.8724072538426
0.228385704022174,15.8733216023063
0.262420800964926,15.8742440188323
0.302075368715666,15.8751871484538
0.34885594046584,15.876175767575
0.38705361694263,15.8769187579952
0.426922938438426,15.8776617484154
0.462261888059302,15.8783168105529
0.493170016286136,15.8789109350545
0.520362899850438,15.8794780896488
0.543896325724983,15.8800426101893
0.56332036550881,15.8806286194121
0.577513298868987,15.8812708512693
0.583616087732814,15.88201227774
0.578092237584534,15.8827733311598
0.559800653694239,15.8835761498833
0.527170247940307,15.8844338516567
0.481904371172387,15.8852952963399
0.421321757901139,15.8862078974769
0.369560045423889,15.8868745016789
0.312419179161468,15.8875411058809
0.262913804323493,15.8880852181167
0.221589926647804,15.8885296218382
0.185866442083801,15.8889155712235
0.154169232361461,15.8892664348232
0.125609073436193,15.8895957818333
0.0996065237590605,15.8899130283969
0.0757096658457322,15.890226305783
0.0534663302197931,15.8905449721971
0.0321916406727331,15.8908851894144
0.00966780947788929,15.891302497117
-0.000763067696010975,15.8915250511258
-0.00827802650528896,15.8917013554037
-0.015159596865532,15.8918776596816
-0.0212132150649078,15.8920473698938
-0.0274334497749982,15.8922396750147
-0.0335243114953984,15.8924505525177
-0.0392886021568163,15.8926773192355
-0.0446146701502875,15.892918846004
-0.0494425108873525,15.8931750274869
-0.0537432745135576,15.893446473547
-0.057507225742294,15.8937343541579
-0.0607364565589383,15.8940403380735
-0.0634394630839208,15.8943665937142
-0.0657552657698308,15.8947421959673
-0.0673717912789219,15.895116511697
-0.0685011566629449,15.8955209109638
-0.0691586947002461,15.8959609202588
-0.0693546195432902,15.8964431073447
-0.0690937102666347,15.896975944229
-0.0683712169751326,15.8975714849111
-0.067167237774797,15.8982463569776
-0.065438803612015,15.8990246078289
-0.0630965452565765,15.8999462777582
-0.0599263903701638,15.9010947823373
-0.055799992868013,15.9025256552528
-0.0517599024287786,15.9039078097157
-0.0478698148970479,15.9052495468927
-0.0441641801303317,15.9065535963972
-0.0406617531023182,15.9078209400178
-0.0373727528823024,15.9090516804066
-0.0343018385196236,15.9102454976368
-0.0314495621304519,15.9114018907794
-0.0288132399425663,15.9125203043676
-0.026387590437541,15.9136001911493
-0.0241652727094781,15.914641037619
-0.0221373715623609,15.9156423663717
-0.0202938420721141,15.9166037229925
-0.0186239137544025,15.9175246517787
-0.0170502696994065,15.9184445056904
-0.0155341020429524,15.9193879671353
-0.0140798128627075,15.920356659153
-0.0126912863854283,15.9213527118023
-0.0113722011748516,15.9223786270533
-0.0101259743772737,15.9234373725747
-0.00895570561957808,15.9245325034532
-0.0078641174464,15.9256683263932
-0.00685349162018589,15.9268501264317
-0.00592559983148519,15.9280844886796
-0.00508162600474433,15.9293797700659
-0.00432207490357794,15.9307468188568
-0.00364665687176037,15.9322001268913
-0.00305412804864848,15.9337597926137
-0.00255887462430587,15.9353922252477
-0.00215934098499184,15.9370732601042
-0.00183916474787484,15.938821219594
-0.00158346532286853,15.9406579376952
-0.00137801477186188,15.9426127484292
-0.00120869030647026,15.9447275614844
-0.00106056294916249,15.9470675905451
-0.000915942639593301,15.9497482426089
-0.000748236535637361,15.9530269114095
-0.000547842651806316,15.9567708493143
-0.000312081807363332,15.9608124581379
-3.52833197505313e-05,15.9652172087233
0.000270214951867424,15.9698813387751
0.000597131286778115,15.9748307126497
0.00092066141850407,15.9797983051937
0.00120831770291088,15.9843179274866
0.00147699705809301,15.9886416211687
0.00174373324488517,15.99302580227
0.002031406820063,15.9978370824608
0.00232411906729845,16.0027856577769
0.00261443227158078,16.0077097234865
0.00289337572278225,16.0124214997528
0.00313978095799495,16.0165415866446
0.00337524353589885,16.0204273178113
0.00360915113427143,16.024223182316
0.00384702323403399,16.0280052377562
0.00409308089855406,16.0318239625258
0.00435114585075336,16.0357183822018
0.00462503221433904,16.0397214967631
0.00491884171028352,16.0438637242687
0.00523720974630628,16.0481749725661
0.00558556357813913,16.0526859344267
0.00597049444483404,16.0574293144623
0.00640035143318056,16.062441059234
0.00685790031798346,16.0674583405751
0.00734052752678262,16.0724135488041
0.00785243310779999,16.0773097940092
0.00839724831873751,16.0821359204193
0.00898061518454128,16.0868925198792
0.00960923435282783,16.0915813770268
0.0102908902030415,16.0962050622423
0.011048141127361,16.1008462028458
0.0118973284486585,16.1055153851298
0.0128586949746984,16.1102248397902
0.0139601848066058,16.1150010678321
0.0152450426694417,16.1199035238022
0.0167954971926027,16.1250814476624
0.018845506434121,16.1310383989921
0.0206509998275595,16.1357273805526
0.0225758922650058,16.140416362113
0.0241583789130603,16.1442306278236
0.0254665636793224,16.1475351387423
0.0265620563523073,16.1506165052477
0.0274441980936425,16.1536155875026
0.0280562077727397,16.1564660941248
0.0284004119717834,16.1592883953808
0.0284531727589585,16.162228887075
0.0281271277164048,16.1655651896561
0.0271282302568189,16.1699273049107
0.0262329167955237,16.1726331570163
0.0251736325604703,16.1753390091218
0.0241002009889884,16.1778048856291
0.0230260173139161,16.1801201638339
0.0219513268252623,16.1823519691762
0.0208788447546891,16.1845377537349
0.01981220148555,16.1867010406328
0.0187550962580335,16.1888583242089
0.0177110331236161,16.1910221305125
0.0166832536373535,16.1932025586033
0.0156747198886025,16.1954081712335
0.0146881218609388,16.1976465389006
0.0137258886588146,16.1999246036646
0.0127901948322365,16.202248951038
0.011882975391706,16.2046259975266
0.011005931517737,16.2070621607525
0.0101605387478378,16.2095640017095
0.00934805638474769,16.2121383520744
0.00856953473703171,16.2147924451627
0.00780562560556966,16.2176116964194
0.00705737791611693,16.2206244800274
0.00632853581944796,16.2238540514863
0.00562301660034922,16.2273273558319
0.00494490898367754,16.2310755663181
0.0042984103504914,16.2351349306743
0.00368772127640027,16.2395479772801
0.00311699183451413,16.2443655043226
0.0025899084450874,16.24964993898
0.00210939614131734,16.255481800929
0.00167758648917787,16.261968359085
0.00130381111959853,16.2690838023156
0.000991821191189575,16.2767787053328
0.000734970204134276,16.2851765093971
0.00052701350752004,16.2944417995019
0.000374959066124631,16.3044417995019
0.000286260798398666,16.3130430313025
0.000212408890654052,16.3230430313025
0.000160903723317744,16.3330430313025
0.000125193779991553,16.3430430313025
0.000100827024279373,16.3530430313025
8.45316977393129e-05,16.3630430313025
7.38994190962278e-05,16.3730430313025
6.72137671107901e-05,16.3830430313025
6.32892287418744e-05,16.3930430313025
6.1320302453561e-05,16.4030430313025
6.07608770588702e-05,16.4130430313025
6.12393285458783e-05,16.4230430313025
6.25027038641284e-05,16.4330430313025
6.43804491409127e-05,16.4430430313025
6.6760231153027e-05,16.4530430313025
6.95713100035966e-05,16.4630430313025
7.27729420685849e-05,16.4730430313025
7.63463462368407e-05,16.4830430313025
8.02892608443911e-05,16.4930430313025
8.46123849727674e-05,16.5030430313025
8.93371876980645e-05,16.5130430313025
9.4494723786571e-05,16.5230430313025
0.000100125218299704,16.5330430313025
0.000106278277142187,16.5430430313025
0.000113013652062212,16.5530430313025
0.000120402545586833,16.5630430313025
0.000128529492031355,16.5730430313025
0.000137494902141983,16.5830430313025
0.000147418417836774,16.5930430313025
0.000158443297555478,16.6030430313025
0.000170742152082309,16.6130430313025
0.000184524490137552,16.6230430313025
0.000200046735110155,16.6330430313025
0.0002176256746945,16.6430430313025
0.000237656761870804,16.6530430313025
0.000260639395291106,16.6630430313025
0.000287212435076674,16.6730430313025
0.000318205047013009,16.6830430313025
0.000354711040427832,16.6930430313025
0.000398200156647788,16.7030430313025
0.000450689182733205,16.7130430313025
0.000511470983419264,16.7225360712324
0.000580163085276134,16.7313100958154
0.000657672411676476,16.7394107835787
0.000745122537836786,16.746890016345
0.000843805072619166,16.7537962765993
0.000955186254490457,16.7601745679817
0.00108092666237441,16.7660667044566
0.00122290621622728,16.771511560003
0.00138325559155842,16.7765452252848
0.00156438638672998,16.7812011929406
0.00176903404350284,16.7855105700238
0.00200030173916319,16.7895022998996
0.00226171906109511,16.7932033082546
0.00255730312873314,16.7966386479498
0.00289164285919144,16.7998316904434
0.00327000551540087,16.8028043201595
0.00369846458782645,16.8055770878644
0.00418407833082427,16.8081694164501
0.0047351335502138,16.810599855597
0.00536148221206893,16.8128863525271
0.00607386033217548,16.8150433646934
0.00685839520072801,16.8170245292624
0.00772367798079837,16.8188620426127
0.00868266479199813,16.8205879101381
0.00975467857936577,16.8222345256567
0.0109716875723361,16.8238400962107
0.0124202714271413,16.8254881166784
0.0143454534095676,16.8273729970452
0.0167944664595172,16.8294509182276
0.018427581752539,16.8307196946477
0.0201178898637683,16.8319884710677
0.021654230142588,16.8331440059347
0.0230367587986005,16.8342283372099
0.0242748871600725,16.8352873698712
0.0253577706803333,16.8363585007879
0.0262569874502009,16.8374843555759
0.0269172206496631,16.8387344169326
0.0272046583825347,16.8402889168572
0.0268592620111824,16.8420089247563
0.0259244400583144,16.8437289326553
0.0248119931237567,16.8451538482625
0.0235489442875269,16.8465189042813
0.022134113834447,16.847912694985
0.0205765179356365,16.8493783812098
0.0188831935197157,16.8509545832439
0.0182248057138021,16.8515724852449
0.0175798007543658,16.8521903872459
0.015129836280587,16.8547199876444
0.0127932216264608,16.8574864883147
0.010967772018069,16.8599928210113
0.00934014590596102,16.8625957825332
0.00801608717689808,16.865080038972
0.00688327580426012,16.8675827496154
0.00590751415742356,16.8701452899585
0.00507063210701853,16.8727915470777
0.00435981936630521,16.8755445175317
0.00376646206840365,16.8784284183099
0.00328604621005527,16.8814701011227
0.00291889511623311,16.8847005341372
0.00267216355041394,16.8881566122714
0.00256422571545096,16.8918835892168
0.00260992867746125,16.895294891709
0.00277891428053274,16.8983632833727
0.0030517770324025,16.901138110413
0.00341837964021286,16.9036637989735
0.00387665004818465,16.9059900169006
0.00443136100836859,16.908164370852
0.00509601231685033,16.9102380259308
0.00589810333800739,16.9122723838387
0.00688948594509839,16.9143475491346
0.00817542708867006,16.9165902191663
0.00995864700673778,16.9191877835039
0.0121531630914969,16.9218721302779
0.0142364494155746,16.9240498129066
0.0161575911412831,16.9257991942504
0.0181015682210574,16.9273526478045
0.0201789721520176,16.9288062855729
0.0224236510924503,16.9301753594
0.0249030854580181,16.9314877896
0.0276502379909298,16.9327449331014
0.0307191585972109,16.9339558174321
0.0341508090580147,16.9351211004332
0.0380015273813803,16.9362453043728
0.0423256480060977,16.9373301549262
0.0471906877938244,16.9383790048618
0.0526702111805987,16.9393943670492
0.0588526089850611,16.9403794253033
0.065840600906453,16.9413372742431
0.073756052896547,16.9422711619169
0.0827462869813277,16.943184650487
0.0929895347119711,16.944081487986
0.104705114634683,16.9449657898126
0.118166576982599,16.9458421545707
0.133720262863122,16.9467158278343
0.151813877130097,16.9475930202969
0.173042862390384,16.948481471321
0.198237092793754,16.9493916867657
0.227481754328249,16.95030593629
0.261371209279103,16.9512279787134
0.30084757929854,16.9521702619878
0.347392143619585,16.9531569944019
0.385721846212061,16.9539041629711
0.425781620638109,16.9546513315404
0.461279567882646,16.9553090535619
0.49230564262399,16.9559044370808
0.519605421594689,16.956472020832
0.543251543914111,16.9570362931804
0.562809432100785,16.957621254314
0.577184772669813,16.9582610713807
0.58359870040477,16.9590022868791
0.578407997154559,16.9597624990557
0.560490698232344,16.9605638824388
0.5281498422812,16.9614228386553
0.483254661006638,16.9622831353289
0.423050560895227,16.9631948245769
0.371081103068634,16.9638665559379
0.313616217297708,16.964538287299
0.26387007375076,16.9650855115627
0.222398574039256,16.9655315725553
0.186576058783681,16.9659184701619
0.154804508179556,16.9662699138185
0.126184741035865,16.9665996098014
0.100133041256177,16.9669170275979
0.0761961064423038,16.9672303021528
0.0539233641820445,16.9675487295761
0.032640012826338,16.9678881994278
0.0102122134854436,16.9683021228423
-0.000521245097366606,16.9685302627644
-0.00806776937186238,16.9687068514036
-0.0149780424732356,16.9688834400428
-0.0210190532428478,16.9690523243391
-0.0272387599625621,16.9692439781518
-0.0333372379281072,16.9694543233575
-0.0391138196979311,16.9696806151214
-0.0444547590481342,16.9699216845791
-0.0492988014661064,16.9701774000509
-0.0536163346890281,16.9704483519193
-0.0573971523196523,16.9707356938891
-0.0606430555447018,16.9710410793162
-0.0633626037208058,16.9713666604166
-0.065695268704594,16.9717413090258
-0.0673276014856345,16.9721147214595
-0.0684722951056275,16.9725180717565
-0.0691447693793702,16.9729568467595
-0.0693553752623853,16.9734375631474
-0.0691091042000696,16.9739686206765
-0.0684016180710847,16.9745619175897
-0.0672135693225746,16.9752339304089
-0.0655029728377286,16.9760083696649
-0.0631826276215453,16.9769245248579
-0.0600453694652095,16.9780634035764
-0.0559174829367705,16.9794960470915
-0.0518738412961217,16.9808794196538
-0.0479788565570331,16.9822222605493
-0.0442676137923083,16.9835273673798
-0.0407591837955171,16.9847957564577
-0.0374639762094592,16.9860275474746
-0.0343867842115165,16.9872224282733
-0.0315282635197724,16.9883799008058
-0.0288858132463281,16.9894994099764
-0.0264542183983278,16.9905804077462
-0.0242261901295137,16.9916223794826
-0.0221928518563596,16.9926248468406
-0.020344185168507,16.9935873550199
-0.0186694351118009,16.9945094487643
-0.0170942345534318,16.9954286451113
-0.0155763647805026,16.9963714169134
-0.0141202606681532,16.9973393633511
-0.012729811398364,16.9983346051133
-0.011408702181644,16.9993596323862
-0.0101603583583848,17.0004173980758
-0.00898788939234501,17.0015114385312
-0.00789402941057033,17.0026460363033
-0.006881073638844,17.0038264447083
-0.00595080930056252,17.0050592062468
-0.00510443821800492,17.0063526190047
-0.0043424859197154,17.0077174471425
-0.00366468727125438,17.0091680569153
-0.00306982841595811,17.0107243482245
-0.00257157349382444,17.0123556670874
-0.00216954709484571,17.0140350590838
-0.00184731636984354,17.0157808333346
-0.00158997616811196,17.0176146553275
-0.00138328640856755,17.019565591024
-0.00121313140533082,17.0216750821159
-0.00106462430615587,17.0240074279247
-0.000920202952089275,17.0266758906504
-0.000753729411226578,17.0299307390832
-0.000553897451761646,17.033672332278
-0.000319546544879281,17.0376998049474
-4.36715201778378e-05,17.0420974789422
0.000261100721722441,17.0467537915494
0.000587496390069019,17.0516946018032
0.000912306519672028,17.0566790905764
0.00120074625414509,17.0612079559736
0.00146971972172115,17.0655336617564
0.00173626429504089,17.069912366326
0.00202287156051616,17.0747037733594
0.00231587992946115,17.0796564492604
0.00260602984642023,17.0845777520292
0.00288653633746868,17.0893170767925
0.00313344674078811,17.0934468111298
0.00336905008240058,17.0973363885638
0.00360291836564613,17.1011334817594
0.00384062776070821,17.1049151838799
0.00408641862610482,17.1087324060168
0.00434411711061426,17.112624386789
0.00461753383467659,17.1166242399462
0.00491075939494232,17.1207624165985
0.00522841205947085,17.1250688206188
0.00557589405809356,17.1295741085874
0.00595975948728334,17.1343109161791
0.00638830081854513,17.1393150925811
0.00684541504402612,17.144336214234
0.00732723316256614,17.1492921187542
0.00783833921707892,17.1541903729989
0.00838219753874359,17.1590183107266
0.00896445164319431,17.1637767672758
0.00959176220327416,17.1684673990892
0.010271889300981,17.173092801361
0.0110268655387492,17.1777329218729
0.0118733803703362,17.1824013061974
0.0128314417286491,17.1871094232678
0.0139287386921112,17.1918833214168
0.0152079208474268,17.1967811110619
0.0167495136561865,17.2019480741838
0.0187789480302542,17.2078678171983
0.0205999702055612,17.2126104070778
0.0225450563412922,17.2173529969573
0.0241348904724808,17.2211837978749
0.0254469528352374,17.2244940459446
0.0265457900074581,17.227577627218
0.0274323693105911,17.2305802045637
0.0280485945704988,17.2334321842011
0.0283971241950423,17.2362539169545
0.0284549019464008,17.2391910203784
0.0281363555876297,17.2425168353614
0.0271442299608839,17.2468836216309
0.0262503808507233,17.2495956681262
0.0251910767240002,17.2523077146215
0.0241175780436158,17.2547770187069
0.0230434069750239,17.2570941019625
0.0219687073198756,17.2593269087437
0.0208961614330853,17.2615132263441
0.0198293939357242,17.2636767328958
0.0187721058425421,17.2658340062731
0.0177278051395869,17.2679976220047
0.0166997379332982,17.2701777099516
0.0156908706298784,17.2723828531265
0.014703897719012,17.2746206344207
0.0137412522754077,17.2768980041489
0.0128051129337864,17.2792215517843
0.0118974187504799,17.2815976945714
0.0110198742254885,17.2840328499856
0.0101739587686591,17.2865335748721
0.00936093492853407,17.2891066960731
0.00858185645562837,17.2917594389944
0.00781773088050283,17.2945757496466
0.00706920359219653,17.2975852643216
0.00634002089785488,17.3008111661726
0.00563409698988575,17.3042803382629
0.00495551821510802,17.3080238803162
0.00430848084278399,17.3120779510772
0.00369718658664246,17.316484965437
0.0031257870129379,17.3212955673394
0.0025979804442855,17.3265719559088
0.00211670432969275,17.3323942998875
0.00168410260097949,17.3388693611342
0.00130928319100069,17.3459763730909
0.000996357846701489,17.3536611524347
0.000738675845323495,17.3620465450521
0.000529983921890954,17.3712964130789
0.000376845672073324,17.3812964130789
0.000287968679913287,17.3898588934848
0.000213601219548557,17.3998588934848
0.000161739618362048,17.4098588934848
0.000125771555778632,17.4198588934848
0.000101217996405029,17.4298588934848
8.47901290167682e-05,17.4398588934848
7.40653378576847e-05,17.4498588934848
6.73153439297951e-05,17.4598588934848
6.33456585255768e-05,17.4698588934848
6.13445232837924e-05,17.4798588934848
6.07616425220063e-05,17.4898588934848
6.12225968854228e-05,17.4998588934848
6.24725229096059e-05,17.5098588934848
6.43395272897377e-05,17.5198588934848
6.67103220465651e-05,17.5298588934848
6.95134805694575e-05,17.5398588934848
7.27077604383155e-05,17.5498588934848
7.62740112818843e-05,17.5598588934848
8.02096887121919e-05,17.5698588934848
8.45252642470461e-05,17.5798588934848
8.92420116986521e-05,17.5898588934848
9.43908058400348e-05,17.5998588934848
0.000100011693665049,17.6098588934848
0.000106154093653685,17.6198588934848
0.000112877550314184,17.6298588934848
0.000120253028459939,17.6398588934848
0.000128364782391808,17.6498588934848
0.000137312886500127,17.6598588934848
0.000147216572494137,17.6698588934848
0.000158218592133446,17.6798588934848
0.00017049092307876,17.6898588934848
0.000184242273953225,17.6998588934848
0.000199728045284867,17.7098588934848
0.000217263701030819,17.7198588934848
0.000237242958279324,17.7298588934848
0.000260162906171948,17.7398588934848
0.000286659282710475,17.7498588934848
0.000317556957390978,17.7598588934849
0.000353943708659877,17.7698588934849
0.00039728061984218,17.7798588934849
0.000449571727384693,17.7898588934849
0.000510204699888829,17.7993662169037
0.000578733674131379,17.8081539853619
0.000656059646361813,17.8162673750321
0.000743302769899568,17.8237583220911
0.000841751329398927,17.8306753798838
0.000952867958560795,17.8370636175015
0.00107830919849937,17.8429649088825
0.00121995038451767,17.8484181839587
0.0013799169734135,17.8534595863456
0.00156061469954527,17.8581226576981
0.00176477222569786,17.8624385496697
0.00199548496571316,17.8664362463355
0.00225627364515634,17.8701427117655
0.00255114499070392,17.8735830338836
0.00288467582793193,17.8767806150378
0.00326211895109456,17.8797573674415
0.0036895304687328,17.8825338662565
0.00417394727919598,17.8851295540496
0.0047236291954759,17.8875629952654
0.00534839326910861,17.88985214569
0.00605945376346998,17.8920129065415
0.00684253189695361,17.8939971702189
0.00770614940577191,17.8958371469501
0.00866317279238117,17.8975648682162
0.00973276080630296,17.8992126821967
0.0109465310439568,17.9008185979536
0.0123888022765084,17.9024641299789
0.0143001401701389,17.9043410766892
0.0167446698924377,17.906420500618
0.0183809743130009,17.9076936626181
0.020076319330472,17.9089668246181
0.0216170535024467,17.910125037172
0.0230032939545907,17.9112105522733
0.0242451667844253,17.9122697574178
0.0253322824909366,17.9133401029113
0.0262367131053912,17.9144638866024
0.0269041281440228,17.91570940152
0.0272046082654011,17.9172509899756
0.0268747131471002,17.9189779555523
0.0259473339480343,17.9207049211289
0.0248384542852462,17.9221326017821
0.0235789002748558,17.923497648639
0.022167369158194,17.9248902650604
0.0206128610886061,17.9263539391534
0.0189225316237189,17.9279272002422
0.0182799325233625,17.9285298980378
0.0176490824135749,17.9291325958333
0.0152029982391071,17.9316490507846
0.0128350718235763,17.9344424845712
0.0109962834125096,17.9369601134013
0.00936540657621448,17.9395614101283
0.00803667510252243,17.9420475806082
0.00690098902853937,17.9445495624224
0.00592274703582392,17.9471108899109
0.00508364126530507,17.9497555464763
0.00437078438794416,17.9525065227698
0.0037754945658764,17.9553880032826
0.00329318474639036,17.958426783607
0.00292408434655267,17.9616537488049
0.00267520519635909,17.9651056759857
0.00256467274249298,17.9688276527923
0.00260787826226379,17.9722460124745
0.00277483747452852,17.975320200446
0.00304593087792232,17.9780999747163
0.00341086895056566,17.9806297245122
0.00386745425775227,17.9829591514167
0.00442032176797606,17.9851358227068
0.00508278338789209,17.9872108062741
0.00588199763643163,17.9892452130756
0.00686919963670712,17.9913186533013
0.00814825360066103,17.9935566468485
0.00992041236984071,17.9961466144978
0.012107996354142,17.9988312262651
0.0141962601091757,18.0010206455594
0.0161188850646021,18.002776078296
0.0180603275581852,18.004331642541
0.020135271559706,18.0057875638494
0.022375843665459,18.0071580078382
0.0248502480673741,18.0084716026916
0.0275914696971974,18.0097297801212
0.0306534504501872,18.0109415920202
0.034077206307717,18.0121077555972
0.0379189249706821,18.0132327837342
0.0422328067181012,18.0143184007194
0.0470861972868969,18.015367960937
0.0525524089735253,18.0163839683271
0.0587196001446051,18.017369613512
0.0656900973173298,18.0183279808209
0.0735853694525233,18.0192623205772
0.0825521600186087,18.0201761878122
0.0927679614189156,18.0210733230487
0.104451175005264,18.0219578361004
0.117874079528171,18.0228343133198
0.13338128870978,18.0237079839986
0.151418089497997,18.0245850358024
0.172576269574708,18.0254731682062
0.197679563050928,18.0263828090221
0.226836693857957,18.0272969914302
0.260622313226503,18.0282187717574
0.299971774420576,18.0291604600242
0.346348779530587,18.0301458693905
0.38477252187484,18.0308960415134
0.424968289640162,18.0316462136363
0.460580389571462,18.0323058607358
0.491690582588588,18.0329021562208
0.519066232102925,18.0334700570444
0.542792081972379,18.0340341657172
0.562444373911635,18.0346184006206
0.5769478121131,18.0352565399437
0.583581237157072,18.035997617952
0.578625276469574,18.0367572464885
0.560971419226673,18.0375576255279
0.528833111505757,18.0384175242453
0.484197143234236,18.039277031059
0.424261207997043,18.0401880453352
0.372146129659714,18.0408634033908
0.314452913600895,18.0415387614464
0.26453735402462,18.0420881807926
0.222962281647626,18.0425354074263
0.187070484357455,18.042922970497
0.155247006248329,18.043274821029
0.126585636234756,18.0436047621432
0.100499644162982,18.0439223010836
0.0765347311554503,18.0442355759771
0.0542413812545469,18.0445538410028
0.0329515883904588,18.0448928016884
0.0105868929279362,18.0453044646663
-0.000369415210533664,18.0455367526202
-0.00793576056717633,18.0457135193762
-0.0148640586052054,18.0458902861323
-0.0209120147846592,18.0460590883894
-0.0271316989759349,18.0462503939689
-0.0332342902664657,18.0464604457721
-0.0390175812949145,18.0466864759907
-0.0443666707399414,18.0469272940714
-0.0492196073414025,18.0471827536836
-0.0535463547166502,18.0474534344363
-0.0573364444630691,18.0477404810666
-0.0605915159794153,18.0480455384671
-0.063320161608151,18.0483707499677
-0.0656620936954674,18.0487448757177
-0.0673031211501795,18.0491177934637
-0.0684562454131915,18.0495205694414
-0.069136933370587,18.049958668852
-0.0693556102939959,18.0504385805216
-0.0691173831407244,18.0509686648574
-0.0684181372077746,18.0515607352866
-0.0672388264924264,18.0522311865663
-0.065537997758771,18.0530035471624
-0.0632296146767925,18.0539167033693
-0.0601101756945492,18.0550503861547
-0.0559815032202272,18.0564840065058
-0.0519359479689094,18.0578680439582
-0.0480383056874703,18.0592114865576
-0.0443240135345051,18.0605171693234
-0.0408123164614864,18.0617861276222
-0.037513728783819,18.0630184905605
-0.0344331171876775,18.0642139502834
-0.0315711940424957,18.0653720103488
-0.028925403831429,18.0664921158803
-0.0264905679560003,18.0675737184172
-0.0242594260316381,18.068616302712
-0.0222231226883697,18.0696193899028
-0.0203716540903861,18.0705825249698
-0.0186942738577408,18.0715052528886
-0.0171182252029987,18.0724240911506
-0.0155994278606397,18.0733664874651
-0.014142334628163,18.0743340280116
-0.0127508373709465,18.075328828393
-0.0114286249056484,18.0763533724001
-0.0101791270218028,18.0774106049286
-0.00900545852678045,18.0785040521639
-0.00791035984243166,18.0796379835603
-0.00689613351285267,18.080817635242
-0.00596457520556392,18.0820495266282
-0.00511689647294421,18.0833419239521
-0.00435363412830534,18.0847055458846
-0.00367453635739383,18.0861546908312
-0.00307840558447478,18.0877091515807
-0.00257850933051676,18.0893398689822
-0.00217511952017507,18.0910183719857
-0.00185176447224555,18.0927629634588
-0.00159352553140685,18.0945952179834
-0.00138615581599484,18.0965440571741
-0.00121554321331771,18.0986506712138
-0.00106682321393027,18.1009788695355
-0.000922501623148238,18.1036407712442
-0.000756680147807371,18.106882889829
-0.000557142766059569,18.1106233222393
-0.000323547130694232,18.1146432495304
-4.81713960134391e-05,18.1190371281352
0.000256207579612908,18.1236892481011
0.000582321395452111,18.1286254654498
0.000907826555006329,18.1336191505882
0.00119669300586475,18.138153066425
0.0014658294928239,18.1424799269455
0.00173227806557029,18.1468557982337
0.00201833032245881,18.1516368256467
0.00231150486496486,18.156591807676
0.00260157480901792,18.1615117380484
0.00288293411493687,18.1662660674843
0.00313011776636286,18.170400991311
0.00336579827325922,18.1742926335589
0.00359964780853888,18.1780903945609
0.00383727312175796,18.181871924195
0.00408292499109775,18.1856883651337
0.00434043199849557,18.1895790693799
0.00461360303820267,18.1935772119219
0.00490652292388265,18.1977132617343
0.00522380098522694,18.2020171209505
0.00557082639585482,18.2065194274256
0.0059541338813626,18.2112527808593
0.00638198638284183,18.2162529792736
0.00683887339792718,18.2212761129265
0.0073202678711549,18.2262323733389
0.00783095601689445,18.2311316792001
0.00837431426026605,18.2359605659753
0.00895598693253114,18.2407199972315
0.00958261362459102,18.2454115607323
0.0102619416024951,18.250037864058
0.0110157290090852,18.2546774507273
0.0118608474537124,18.2593454199599
0.0128171824493231,18.2640528419876
0.0139122912736467,18.268825533061
0.0151885168694894,18.273720911839
0.0167255134505539,18.2788822361358
0.0187444283335955,18.2847830901226
0.0205737652984702,18.2895543207899
0.0225296487542017,18.2943255514572
0.0241232490341227,18.2981648676882
0.0254372410467427,18.3014779969162
0.0265377312960995,18.304562688303
0.0274265041561186,18.3075670062298
0.0280448110392975,18.3104197250021
0.0283954739350513,18.3132411899634
0.0284557214536957,18.3161766430895
0.0281408484446426,18.3194973584412
0.0271520562522746,18.3238664798362
0.0262589283889151,18.3265815933538
0.0251996110320185,18.3292967068714
0.0241260778140595,18.3317677035307
0.0230519127755682,18.3340856764181
0.0219772089268313,18.3363189765869
0.0209046321970555,18.3385055571656
0.0198378043124791,18.3406691727361
0.0187804271265589,18.3428264423281
0.0177360105504034,18.3449899658042
0.0167078029117162,18.3471698881835
0.0156987727309025,18.3493748024362
0.0147116167145829,18.3516122975234
0.0137487698556355,18.3538893278782
0.0128124128006468,18.3562124849005
0.0119044865862185,18.3585881862099
0.0110266973358534,18.3610228492241
0.0101805263607423,18.3635230287509
0.00936723778897064,18.3660955493022
0.00858788706112117,18.3687476324066
0.00782365591432438,18.371562505978
0.00707499217080644,18.3745704231641
0.00634564319130218,18.3777945317828
0.00563952165168101,18.3812616846306
0.00496071273044097,18.3850029455181
0.00431341213820296,18.3890544297813
0.00370182213237845,18.3934584969417
0.00313009497293142,18.3982657157754
0.00260193479826002,18.4035381743918
0.0021202851195921,18.4093558706426
0.00168729593409521,18.4158253192092
0.00131196521713115,18.4229282171987
0.000998581758962754,18.4306080570872
0.000740492761862398,18.438987394801
0.000531440735088463,18.448229740583
0.000377770686661811,18.458229740583
0.00028880563957638,18.4667734355757
0.000214185487991857,18.4767734355757
0.000162149215372963,18.4867734355757
0.000126054648714395,18.4967734355757
0.000101409524477866,18.5067734355757
8.49166865378555e-05,18.5167734355757
7.4146548761475e-05,18.5267734355757
6.73650206324434e-05,18.5367734355757
6.33732123778772e-05,18.5467734355757
6.13562973466764e-05,18.5567734355757
6.07619280398754e-05,18.5667734355757
6.12143147005217e-05,18.5767734355757
6.24576574342679e-05,18.5867734355757
6.43194064307595e-05,18.5967734355757
6.66858057613964e-05,18.6067734355757
6.94850922551854e-05,18.6167734355757
7.26757790577096e-05,18.6267734355757
7.62385348794609e-05,18.6367734355757
8.01706768558083e-05,18.6467734355757
8.44825650919e-05,18.6567734355757
8.91953778489427e-05,18.6667734355757
9.43399018685977e-05,18.6767734355757
9.99560970991226e-05,18.6867734355757
0.000106093290440084,18.6967734355757
0.00011281092517134,18.7067734355757
0.000120179850022717,18.7167734355757
0.000128284182581995,18.7267734355757
0.000137223833045425,18.7367734355757
0.000147117832905303,18.7467734355757
0.00015810868665188,18.7567734355757
0.000170368063012313,18.7667734355757
0.000184104280257388,18.7767734355757
0.000199572239957641,18.7867734355757
0.000217086760452297,18.7967734355757
0.000237040712351155,18.8067734355757
0.000259930058833707,18.8167734355757
0.000286389016115724,18.8267734355757
0.000317240360132395,18.8367734355757
0.000353568931367158,18.8467734355757
0.000396831596769045,18.8567734355757
0.000449026185696095,18.8667734355757
0.000509586519476775,18.8762877538077
0.000578035874497597,18.8850822528164
0.00065527235739682,18.8932018627674
0.000742414449800799,18.9006985464616
0.000840748813277802,18.9076208919548
0.000951736322138513,18.9140140004035
0.00107703154660824,18.9199197751245
0.0012185075845467,18.9253771734427
0.00137828734453032,18.9304223649058
0.00155877369953472,18.9350889151766
0.00176269200262116,18.9394079977615
0.00199313388065257,18.9434086166677
0.00225361573297936,18.9471177547639
0.00254813921587178,18.9505605171533
0.00288127525752512,18.9537603213236
0.00325826959278773,18.9567390931014
0.00368516985696893,18.9595174196112
0.00416900253855333,18.9621147530849
0.00471801429548963,18.9645496652258
0.00534200517766513,18.9668401160668
0.00605242267056586,18.9690027146023
0.00683479011999703,18.9709884979572
0.00769759550182175,18.9728296832693
0.00865366187125218,18.9745583151737
0.00972206851230074,18.9762067202436
0.0109342637638041,18.9778128124465
0.0123734732666102,18.979457145876
0.0142781526200674,18.9813302951258
0.0167204796350266,18.9834104437027
0.0183583353502022,18.9846857540814
0.0200561328970627,18.98596106446
0.0215990078726891,18.9871205933859
0.0229870484550376,18.9882066928717
0.0242307321915063,18.989265990229
0.0253198911630873,18.9903359650198
0.0262268348486999,18.991458760702
0.0268977017853057,18.9927021081716
0.0272043909014749,18.9942376066622
0.0268817646747141,18.995968558662
0.0259573776992707,18.9976995106619
0.0248499312181501,18.999128594886
0.0235918754006882,19.0004936688365
0.022181773237095,19.0018857846873
0.0206286035342327,19.0033485929935
0.0189395711501885,19.0049205871529
0.0183033996043634,19.0055170959668
0.017678353749272,19.0061136047807
0.015246087628642,19.0086112150247
0.0128665850088509,19.0114117012983
0.0110215141123272,19.0139322700502
0.00938899096474333,19.0165299906972
0.00805599289053002,19.0190177563501
0.00691761533124028,19.0215190562641
0.005937049369593,19.0240792545613
0.00509586095418766,19.0267224191796
0.00438109071928636,19.0294715354729
0.0037839934067619,19.032350757869
0.00329991416445176,19.0353868298165
0.00292899542265439,19.0386105590596
0.002678116835719,19.0420586130665
0.00256517444254841,19.0457759249574
0.00260604944215234,19.0492008399582
0.00277112218294288,19.0522804195321
0.0030405668594152,19.0550647520974
0.00340395452288663,19.0575982480782
0.00385897585910649,19.0599306578977
0.00441013461635697,19.0621094848426
0.00507056824474706,19.0641857052639
0.00586714132180735,19.0662202109001
0.00685056867880327,19.0682922254473
0.00812338561518726,19.0705260607845
0.00988539322137489,19.0731090190918
0.0120665792006984,19.0757938315114
0.0141594809398872,19.0779941525059
0.0160831412242085,19.079754877082
0.0180227965374079,19.0813128243938
0.0200952046395564,19.0827706419202
0.0223320291247946,19.0841423588006
0.0248017923247305,19.0854570088825
0.0275375856204711,19.0867161409768
0.0305931995774565,19.0879288030153
0.0340097276773818,19.0890957785147
0.0378432003082783,19.0902215645353
0.0421477036592237,19.0913078870279
0.0469904233587989,19.0923581009157
0.0524444417837387,19.0933747021645
0.058597702933984,19.0943608874282
0.0655521732680481,19.0953197316337
0.0734289610431264,19.0962544875745
0.0823742796699448,19.097168703607
0.0925649449438696,19.0980661133126
0.104218521154784,19.0989508215314
0.117606124611646,19.0998274033544
0.133070790780502,19.1007010731673
0.151055600516065,19.1015779976722
0.17214901011998,19.1024658400268
0.19716917362965,19.1033749573091
0.226246195711406,19.1042890801219
0.259936816666554,19.1052106232
0.299170266148077,19.106151772139
0.345394461370228,19.1071359854732
0.383904149519434,19.1078889221937
0.424224472917346,19.1086418589142
0.459941668976541,19.1093032883964
0.491128900782442,19.1099004283957
0.518573766699276,19.1104686268008
0.542372162630241,19.1110325946105
0.562110145942753,19.1116161793165
0.576729460489474,19.1122528137765
0.583562130034706,19.1129937746894
0.578819044512163,19.1137528801627
0.56140387351095,19.1145523532754
0.529477872721779,19.1154124845981
0.485083913873407,19.1162713040966
0.425403367469508,19.1171816508404
0.373150790454435,19.1178604573033
0.315241076569979,19.1185392637661
0.265165063239862,19.1190907655718
0.223492122021447,19.1195390954757
0.187535011410304,19.1199272872048
0.155662647443172,19.1202795218472
0.126962137093143,19.1206096945851
0.100843887516887,19.1209273486193
0.0768526414382428,19.1212406255127
0.0545398356746562,19.1215587410133
0.0332436839899442,19.1218972318809
0.0109355631729315,19.1223068404922
-0.000240160033363044,19.1225432396861
-0.00782336430615641,19.122720157373
-0.0147669956856896,19.1228970750598
-0.0208266681314773,19.1230659769359
-0.0270464478442864,19.1232570095197
-0.0331522771820619,19.1234668273134
-0.038940886044717,19.1236926490569
-0.0442964509840207,19.1239332669663
-0.0491564619093347,19.1241885229881
-0.0534905423026295,19.1244589881234
-0.0572880136703074,19.1247457999579
-0.0605503856579803,19.125050596648
-0.0632862762333433,19.1253755144606
-0.0656355854308899,19.1257492246172
-0.06728353794251,19.1261217494344
-0.0684433767345082,19.1265240693164
-0.0691306057887456,19.1269616323154
-0.0693557091001386,19.1274409052014
-0.0691238849688318,19.1279702172442
-0.0684311950880931,19.1285613147604
-0.067258831952373,19.1292305280621
-0.0655657612478932,19.1300012422447
-0.0632668602949603,19.1309120273553
-0.0601614774828799,19.1320416210985
-0.0560321976658159,19.1334760209776
-0.0519851401013748,19.1348605854717
-0.0480854010328125,19.1362045046808
-0.0443686993978095,19.1375106434226
-0.0408544190817164,19.1387800522676
-0.0375531577009615,19.1400128678395
-0.0344698403503676,19.1412087857222
-0.0316052243818134,19.1423673107617
-0.0289567902993248,19.1434878882634
-0.0265193884086535,19.1445699694348
-0.0242857809416217,19.1456130385413
-0.0222471294025671,19.1466166163085
-0.0203934415685579,19.1475802475384
-0.0187139779146801,19.1485034773837
-0.0171372585170051,19.1494220321698
-0.0156177273901033,19.1503641312651
-0.0141598515501011,19.1513313505525
-0.0127675249789966,19.1523258016171
-0.0114444393411263,19.1533499631974
-0.0101940279412224,19.1544067738624
-0.00901940981008614,19.1554997517715
-0.00792333034598896,19.1566331560392
-0.00690809787954006,19.1578122092206
-0.00597551475538066,19.1590434125241
-0.00512680021964434,19.1603350070614
-0.00436250000721808,19.161697675647
-0.0036823728308115,19.1631456632411
-0.00308523397295219,19.1646986783359
-0.0025840352449822,19.1663289221172
-0.0021795633551212,19.1680067241693
-0.00185531565470623,19.1697503829007
-0.00159636273537971,19.1715814013478
-0.00138845223959608,19.1735285876582
-0.00121747473644803,19.175632934559
-0.00106858310597459,19.1779578676151
-0.000924336123390924,19.1806146131531
-0.000759021282655118,19.1838467718528
-0.000559711111947268,19.1875863430125
-0.000326706872270199,19.1916003714564
-5.17256687746041e-05,19.1959912510672
0.000252341769891742,19.2006400584367
0.00057823192522092,19.2055726468765
0.000904289841836214,19.2105736578003
0.00119349610922413,19.2151116063373
0.00146276360151204,19.2194394155745
0.00172913943867079,19.2238131011491
0.00201476147399548,19.2285860695651
0.00230807055382958,19.2335429241885
0.00259808086088696,19.2384618243902
0.00288012043218207,19.2432281132438
0.00312752071813145,19.2473671404055
0.00336326277791607,19.2512604131152
0.00359709848961498,19.255058705359
0.00383465881783139,19.2588401070325
0.00408020279437929,19.262655943336
0.0043375609450214,19.2665456553152
0.00461054087122706,19.2705424664006
0.00490322290549982,19.2746768597301
0.00522020943882994,19.2789787362525
0.0055668795078708,19.2834787193737
0.00594975280308558,19.2882093808836
0.00637706934460004,19.2932064789391
0.00683377953391475,19.2982311786109
0.00731484418701473,19.3031877122636
0.00782520727627067,19.308087836392
0.00836817662345847,19.3129174621465
0.00894939720326102,19.3176776531597
0.00957549213483355,19.3223699430676
0.0102541986592201,19.3269969487609
0.0110070616701935,19.3316361200222
0.0118510945116629,19.3363037674577
0.012806087663215,19.3410106509921
0.0138994966169825,19.34578240854
0.0151734279414408,19.3506759259096
0.0167068671802025,19.3558329076522
0.0187177094792333,19.3617193294455
0.0205536106770279,19.366513138405
0.0225180110100737,19.3713069473644
0.0241145033739157,19.3751528206757
0.0254299489099501,19.3784681320106
0.0265316789878835,19.3815536627426
0.0274220971071926,19.3845592917875
0.0280419643374866,19.3874125697071
0.028394225175502,19.3902338395254
0.0284563207315009,19.3931680654264
0.0281441886528013,19.396484991873
0.0271578906959602,19.4008558760139
0.0262653026793434,19.4035732921209
0.0252059739300966,19.4062907082279
0.0241324142188527,19.4087629736366
0.0230582536177901,19.411081612642
0.0219835467720052,19.4133152821567
0.0209109472130429,19.415502059754
0.0198440744760359,19.4176657572796
0.0187866310272283,19.4198230245716
0.0177421282136996,19.421986479689
0.0167138160163699,19.4241662789917
0.0157046645333107,19.426371022893
0.0147173721302043,19.4286083048805
0.0137543752174511,19.4308850824969
0.0128178559485107,19.4332079485721
0.0119097568365276,19.435583321012
0.0110317852156684,19.4380176171967
0.0101854238177487,19.4405173904113
0.00937193794442245,19.4430894634476
0.00859238429922544,19.4457410549398
0.00782807458211053,19.4485548577288
0.00707930924808134,19.4515615846314
0.0063498364430289,19.4547843571445
0.00564356771045481,19.4582500055211
0.00496458735583862,19.4619895668206
0.00431709066659194,19.4660391240698
0.00370528030010097,19.4704409955719
0.00313330902081038,19.4752456941841
0.00260488529618027,19.4805152254814
0.00212295715214118,19.4863294602436
0.00168967911478982,19.4927947292402
0.00131396695496223,19.4998945646231
0.0010002417344296,19.5075707275057
0.000741849104735408,19.5159455581885
0.000532528419797223,19.5251823052956
0.000378461246164071,19.5351823052956
0.000289430262286461,19.5437120707458
0.000214621518550885,19.5537120707458
0.000162454894569403,19.5637120707458
0.000126265917924769,19.5737120707458
0.000101552454060091,19.5837120707459
8.50111237575338e-05,19.5937120707459
7.42071411788854e-05,19.6037120707459
6.74020787135536e-05,19.6137120707459
6.33937613171434e-05,19.6237120707459
6.13650718039173e-05,19.6337120707459
6.07621310390965e-05,19.6437120707459
6.12081263912314e-05,19.6537120707459
6.24465590665333e-05,19.6637120707459
6.43043892953777e-05,19.6737120707459
6.66675119192909e-05,19.6837120707459
6.94639126012033e-05,19.6937120707459
7.2651922085203e-05,19.7037120707459
7.62120740948342e-05,19.7137120707459
8.014158246561e-05,19.7237120707459
8.44507242140374e-05,19.7337120707459
8.9160606364774e-05,19.7437120707459
9.43019500515717e-05,19.7537120707459
9.99146503704851e-05,19.7637120707459
0.000106047966009078,19.7737120707459
0.00011276126486548,19.7837120707459
0.000120125309239884,19.7937120707459
0.000128224114943764,19.8037120707459
0.000137157469951379,19.8137120707459
0.000147044256731872,19.8237120707459
0.000158026795746298,19.8337120707459
0.000170276525818492,19.8437120707459
0.000184001474750547,19.8537120707459
0.000199456172863432,19.8637120707459
0.000216954958172166,19.8737120707459
0.000236890071596116,19.8837120707459
0.000259756638819787,19.8937120707459
0.000286187744301544,19.9037120707459
0.000317004607223877,19.9137120707459
0.000353289883800378,19.9237120707459
0.000396497306862491,19.9337120707459
0.000448620092933379,19.9437120707459
0.000509126360457862,19.9532316046519
0.000577516452607264,19.9620311223004
0.000654686326816584,19.97015537042
0.000741753219816684,19.9776563316631
0.000840002584833934,19.9845826199694
0.000950893986655094,19.9909793604084
0.00104417651379312,19.9954896802042
0.0011532193738249,20
