ecg,time
0.000221946278653009,15.0027443920975
0.000238085334604371,15.0127443920975
0.000256754061697755,15.0227443920975
0.000278480582584786,15.0327443920975
0.000303959676415889,15.0427443920975
0.000334113908650554,15.0527443920975
0.000370185997480488,15.0627443920975
0.000413880903103126,15.0727443920975
0.000466575947427935,15.082571452915
0.00052681278018271,15.0916646979215
0.000595439899574824,15.1000579760604
0.000673578340785982,15.1078046574647
0.000762528324970189,15.1149551649535
0.000863770054099634,15.1215563754969
0.000978980352349959,15.1276518573004
0.00111005691210224,15.1332821087906
0.00125914747320935,15.138484771505
0.00142868318226445,15.1432948273829
0.00162141694648623,15.147744790548
0.00184046913333975,15.1518648938556
0.00208938194508862,15.1556832664843
0.0023721851269842,15.1592261063078
0.00269347829935828,15.1625178564314
0.00305853430692707,15.1655813890195
0.00347343382148977,15.1684381980378
0.00394524403398334,15.171108613764
0.00448226410110577,15.1736120562189
0.00509437525309519,15.1759673511533
0.0057932104177418,15.1781921389487
0.00656504571830067,15.1802368392095
0.00741886991157059,15.1821353424059
0.00836839868827965,15.1839217165183
0.00943454355704079,15.1856312436873
0.0106530833771571,15.1873073468052
0.0121200660922103,15.1890452607554
0.0141532056909622,15.1911125391345
0.0158687674425227,15.1926566506891
0.0177177092472744,15.1942007622437
0.0193631018468479,15.1955282452673
0.0208114100405662,15.1967065565986
0.0221103592030774,15.1978168466873
0.0232673113683841,15.1989057689138
0.0242686961531315,15.2000113329499
0.0250833320881554,15.2011786877463
0.0256505427098322,15.2024847285601
0.0258142335352819,15.2041448227931
0.0253572815343,15.2058671050656
0.0243671826684402,15.2075893873382
0.0232317379237672,15.2090288355964
0.0219555997512294,15.2104166162101
0.0205369584059152,15.2118350192868
0.0189843574939923,15.2133256884534
0.0173039523915246,15.2149270720421
0.0155297907630992,15.2166893978507
0.0135891097922657,15.2188008741825
0.011208846130594,15.221749122625
0.00929792249872609,15.2245179062073
0.00778175451319414,15.2270792643943
0.00651129747613332,15.2295732765025
0.00540014959642258,15.2321141139616
0.00442396238957817,15.2347292057931
0.00356514268675928,15.2374416718633
0.00282338731562326,15.2402178523715
0.0022312164347153,15.2428346585368
0.00174865609930537,15.2453258401321
0.00134519571728886,15.2477379211194
0.000998774753584271,15.2501212282644
0.000693178031523873,15.2525313420519
0.000414358750382659,15.2550498748264
0.000139937600266897,15.257905450166
-5.49700680521025e-05,15.2602148472424
-0.000229712872265939,15.2625242443188
-0.000364241959278371,15.2644798920189
-0.000475244484872862,15.2662240996537
-0.000575769420028645,15.2679149957654
-0.000672945221420665,15.2696577501545
-0.000773448495235273,15.2715793620685
-0.000889520899986941,15.2739583340501
-0.00109361026082977,15.2785801207205
-0.0012620534420996,15.2828456279925
-0.00139232880219401,15.2864465641985
-0.00152046612307935,15.2902744308013
-0.00166893529516429,15.2951589263975
-0.00180900657450105,15.300589855576
-0.00189634906480428,15.3053506620946
-0.00192690376156011,15.3096384038121
-0.00189145316142283,15.3134829503679
-0.00178206163636968,15.3169470085821
-0.0015908476964721,15.320106322393
-0.00130890535705489,15.3230307223543
-0.000925636261640555,15.3257794259784
-0.000427190303037611,15.3284070896099
0.000210571833764722,15.3309860052228
0.00103869703529962,15.3336336791691
0.00218546548212856,15.3365885865922
0.00367143127521541,15.3397428366525
0.00549760112269929,15.3430163696434
0.00678614734397162,15.345044212254
0.00822129097823281,15.3470720548646
0.00970957269381277,15.3489434520964
0.0112781959312518,15.3506879688853
0.0129198280183743,15.3522935968647
0.014723739926944,15.3538377436693
0.0166996687266312,15.3553100828584
0.0188922317729772,15.3567268938905
0.0213349198180077,15.3580916024502
0.0240554760741139,15.3594032485676
0.0270965900123436,15.360667182683
0.0304974997092969,15.3618849345674
0.0343035093484827,15.3630588544623
0.0385710433200014,15.3641927906527
0.0433625912720677,15.3652898202833
0.0487515329071288,15.3663532396619
0.0548233240279525,15.3673863058295
0.0616841947832058,15.3683931390803
0.0694607728976278,15.3693777810132
0.0783086513975335,15.3703446681076
0.0884224292305224,15.3712988157446
0.100050073163451,15.3722460404118
0.113518464146299,15.3731935619894
0.129271863239545,15.3741506369329
0.147945381296916,15.3751300607033
0.169880433482132,15.3761245111092
0.19532817050121,15.3771263580277
0.225006144283792,15.3781481282936
0.259915023008528,15.379208525697
0.301668134405901,15.3803414805182
0.336734213154147,15.3812198253273
0.373319338780544,15.3820981701364
0.40585907814581,15.3828741663799
0.434311646307835,15.3835756358945
0.459150050488968,15.3842370460179
0.48038523427683,15.3848829538045
0.497636964818669,15.3855349922744
0.510053168760262,15.3862178887295
0.51592116560452,15.3869687196714
0.512187169180669,15.3877836329844
0.497063667237063,15.3886183991695
0.469201109808967,15.3894881407608
0.426904120651923,15.3904037054212
0.368322623733644,15.3913741703944
0.325899493572874,15.3919718844872
0.279540936121807,15.3925695985799
0.238036397437342,15.3930771514631
0.202084032930412,15.3935084872107
0.170276376336482,15.3938922625946
0.141665001189889,15.3942461828997
0.115656221405581,15.3945815506112
0.0918278193838359,15.3949068412288
0.0698223070738073,15.3952298868152
0.0492475928419002,15.3955603151648
0.0294440462709534,15.3959159372226
0.00794241731890576,15.3963656150351
-0.000702179252244333,15.3965738360352
-0.00855456485542008,15.3967820570352
-0.0149381403187973,15.396968344587
-0.0208805548032841,15.3971591432474
-0.0268167166659282,15.3973710877693
-0.032515566008228,15.3976007720511
-0.0378322777041673,15.3978462172708
-0.0426872762820399,15.39810679431
-0.0470398803860906,15.3983827729684
-0.0508714472288949,15.3986750752769
-0.0544175247601705,15.3990118385608
-0.0571186067161322,15.3993407854326
-0.0593072045698528,15.3996915495854
-0.0610004026289076,15.400067593806
-0.0622124043362705,15.4004727243501
-0.0629564320704079,15.4009116431832
-0.0632432362937468,15.4013902260205
-0.0630793824391147,15.4019159345904
-0.0624645081504906,15.4024988452632
-0.0613859424302124,15.4031532959066
-0.0598147125974798,15.4038985000236
-0.0576924698429476,15.4047640562322
-0.0548957354296044,15.4058027757452
-0.0510867846997287,15.4071439161585
-0.0470772856261129,15.4085271621325
-0.0432163178640329,15.4098655781163
-0.0395454610616664,15.4111632014436
-0.0360848109596416,15.4124220668687
-0.0328442363957877,15.4136429083144
-0.0298273618321799,15.4148258013117
-0.0270334551424637,15.4159705058245
-0.0244585126812013,15.4170766462476
-0.0220960096950671,15.4181438029632
-0.0199374970188496,15.4191715535676
-0.017973113197292,15.4201594837774
-0.0161920368202685,15.4211071788523
-0.014582886161057,15.4220142014576
-0.0130330104089492,15.4229424443263
-0.0115445575318592,15.4238946782885
-0.0101215823571899,15.4248728216656
-0.00876795125068475,15.4258791269773
-0.00748731077912656,15.4269162488339
-0.00628303700680682,15.4279873453299
-0.00515818253732506,15.4290962128205
-0.004115421195372,15.4302474690692
-0.00315699008310288,15.4314468083649
-0.00228462820551737,15.4327013674027
-0.00149950994011241,15.4340202686074
-0.000802169956484181,15.4354154618566
-0.000192412937365653,15.4369030991331
0.000330805604270531,15.4385059370118
0.00074680791040021,15.4401534458597
0.00107069373042282,15.4418561937843
0.00131776425926745,15.4436328796963
0.00150219959842822,15.4455076066641
0.00163747761496376,15.4475133756796
0.00173688236873025,15.449698614318
0.00181434746791695,15.4521416433655
0.00188637279403938,15.454990241283
0.00197906216982763,15.4586227922317
0.00209468963330789,15.462420778551
0.00223571805865141,15.4662567896274
0.00239549120205099,15.4700436411805
0.00257035007105393,15.4738410164855
0.00275723444241643,15.477693809644
0.00295438500970804,15.4816383545366
0.00316144960563729,15.4857069204122
0.00337934111954652,15.4899303805842
0.00361002461520448,15.4943399198317
0.0038563335972468,15.4989684301086
0.00412190538581647,15.5038519444401
0.00441132197173375,15.5090309749842
0.00473056716870766,15.51455190271
0.00506094859734943,15.5200270113239
0.00540207291878707,15.5254075613963
0.00575637219074681,15.5306881105804
0.00612702858365672,15.5358712084662
0.00651799656891042,15.5409671883654
0.00693348861189079,15.5459855141634
0.00737796027211135,15.5509337225676
0.00785612587956919,15.5558167080862
0.00837305378709335,15.5606369758839
0.00893427795080274,15.5653950212749
0.00954591232962882,15.5700897357805
0.0102147622882675,15.5747188464996
0.0109570332179597,15.5793302330681
0.01179305004015,15.5839666095048
0.0127404675486868,15.5886290781927
0.0138250393632454,15.5933385633341
0.0150854227658826,15.5981419047258
0.0165915771716059,15.6031550886922
0.0185195616438605,15.6087309865236
0.0209978838662064,15.6149916495435
0.0225714915645467,15.6186678029434
0.0241735946176453,15.6223439563433
0.0255704740230568,15.6256484707575
0.0267512460505469,15.6286972876728
0.0277248216768533,15.6316491249294
0.0284328474204461,15.6344503805496
0.0288739434701797,15.6371923229672
0.029033933557951,15.6400046811659
0.0288526024267461,15.6430971712591
0.0280586435401829,15.6472061143328
0.0272082350689651,15.6499871028396
0.0261552778198807,15.6527680913464
0.0250861795631985,15.655243836791
0.0240172701656565,15.6575330146028
0.0229461875698118,15.6597215705542
0.0218748598226647,15.6618538378857
0.0208067939646351,15.6639561414822
0.0197457206867577,15.6660462957411
0.0186952068870857,15.6681374830264
0.0176585512610915,15.6702401263608
0.0166387654146109,15.6723629170514
0.0156385786290326,15.6745134407808
0.0146604506909221,15.6766985870535
0.0137065868467182,15.6789248348935
0.0127789470622778,15.6811984791954
0.0118792613038241,15.6835257995978
0.0110090376749058,15.6859132212759
0.0101695701885227,15.688367467544
0.00936195719034698,15.690895680464
0.00856863934456406,15.6935702746543
0.00778782390953209,15.6964261206741
0.00702324805163179,15.6994849859938
0.00627883505404188,15.7027722902823
0.00555875062003467,15.7063175053575
0.00486736028795552,15.7101549727218
0.00420917290796914,15.7143248634538
0.00358872239003467,15.71887461501
0.00301035519458174,15.7238614813712
0.00247794737603945,15.7293570615993
0.00199456864566466,15.7354557373766
0.00157003971276946,15.7421504758275
0.00128644201166251,15.7477013440302
0.00106205927584621,15.7532522122329
0.000839085134227165,15.7605324242514
0.000647892409504207,15.7689013703216
0.000494262508970923,15.7780884171527
0.000375861094453997,15.7880884171527
0.000294393026678768,15.7980884171527
0.000239126194570104,15.8080884171527
0.000202247493326372,15.8180884171527
0.000178169201380653,15.8280884171527
0.000163009010051524,15.8380884171527
0.00015412486239607,15.8480884171527
0.00014973385065031,15.8580884171527
0.000148634997660338,15.8680884171527
0.000150023351219939,15.8780884171527
0.000153369308330183,15.8880884171527
0.000158339825924866,15.8980884171527
0.000164746041806772,15.9080884171527
0.00017250842356705,15.9180884171527
0.000181634480078288,15.9280884171527
0.000192206105036702,15.9380884171527
0.000204374776860442,15.9480884171527
0.000218363712793442,15.9580884171527
0.000234476924490484,15.9680884171527
0.000253116072793061,15.9780884171527
0.000274807212751573,15.9880884171527
0.000300241200360463,15.9980884171527
0.000330334131358626,16.0080884171527
0.000366318477259827,16.0180884171527
0.000409883035526747,16.0280884171527
0.000462640529066954,16.0379595376403
0.000522966087379492,16.0470939691915
0.000591697549800346,16.0555242378899
0.000669953578549223,16.0633041329014
0.00075903386304557,16.0704845031548
0.000860418923712449,16.077112599606
0.000975786329553191,16.0832323194379
0.00110703488963035,16.0888844528943
0.00125631386638596,16.0941069020313
0.00142605653492767,16.0989348818034
0.00161901853406513,16.1034011157699
0.00183832389568016,16.1075360263879
0.00208751952694553,16.111367915814
0.00237064130151683,16.1149231403693
0.00269229678961483,16.1182262893908
0.0030577692024567,16.1213003718337
0.00347315304210256,16.1241670116674
0.00394553414408091,16.126846665378
0.00448323746905321,16.1293588796729
0.00509618117003742,16.1317226134522
0.00579574185868624,16.1339547487225
0.00656851374017476,16.1360067412753
0.00742362775668674,16.1379127469209
0.00837503164402095,16.1397071613768
0.00944409760879587,16.1414258238505
0.0106676836963039,16.1431133257922
0.0121460728913759,16.1448692751772
0.0142195804062572,16.1469817524522
0.0158463352757478,16.1484533757623
0.0175910863449064,16.1499249990724
0.0192233744915506,16.1512562332681
0.0206667858330751,16.152442266295
0.0219612968980864,16.1535587040669
0.0231144213338192,16.154652488123
0.0241130309792125,16.1557617373879
0.0249265704615441,16.1569312631048
0.0254957589588051,16.1582364900446
0.0256706003722394,16.1598841444288
0.0252274259524184,16.1616224916243
0.024243733203098,16.1633608388199
0.0231138282648823,16.1648078150884
0.021844923101557,16.1661990271525
0.0204347695024245,16.1676189462462
0.0188919110513288,16.1691095658557
0.0172227414427589,16.1707090961813
0.0154613851594327,16.1724669875138
0.0136201494191112,16.1744741402604
0.0112452189014817,16.1774119017276
0.00932841813328721,16.1801838873005
0.00780719960315997,16.1827486411551
0.00653385970187416,16.1852431214952
0.00542027066785529,16.1877839128107
0.00444195166877086,16.1903985993795
0.00358126597999664,16.1931103242678
0.00286516712792481,16.1957749498494
0.00228726676603979,16.1982980499846
0.00181111558669718,16.2007147930273
0.00140881602001229,16.2030712962897
0.00105879313419794,16.2054264378111
0.000742340836611711,16.2078697586246
0.000435157930377618,16.2106077568354
0.000199782886875051,16.2130150593369
-8.44401029627339e-06,16.2154223618383
-0.000162815100882678,16.2174080173488
-0.0002874608163979,16.2191556581429
-0.000398810380539402,16.2208392203838
-0.000505077892468546,16.2225647344543
-0.000613321272164952,16.2244528295734
-0.000735276931344754,16.226752350374
-0.000936005937668399,16.2309762483661
-0.00109977268277527,16.2348763842667
-0.00122451784797431,16.2381545575727
-0.00134511535303641,16.2416073431756
-0.00147908812221367,16.2458304681012
-0.00163879788153559,16.2516513386325
-0.00174244760605134,16.2566067214003
-0.00179532002193238,16.2611095859389
-0.00178854108462848,16.265148991
-0.00171435363467109,16.2687833134101
-0.00156547999646219,16.2720699978905
-0.00133415358222946,16.2750791595711
-0.00101068788659618,16.277879134615
-0.00058163177518734,16.2805357150545
-2.52925313654765e-05,16.2831223729798
0.000697655975463181,16.2857354678616
0.00167956164006436,16.2885609942436
0.00300408060932778,16.2916614426595
0.00467344429460943,16.2949255662097
0.00597581020491167,16.2971479430664
0.00743342979581652,16.2993703199231
0.00888825986379639,16.3013407803709
0.0103938949279789,16.3031464071477
0.0119559139162608,16.304796750679
0.013663467885978,16.3063781038175
0.0155237600937217,16.3078795965385
0.0175894998706908,16.3093267285517
0.0198821057549694,16.3107159791139
0.0224414051695457,16.3120546320871
0.025299600717736,16.3133432481736
0.0284935949231131,16.3145836460894
0.0320693349464629,16.3157795336664
0.0360759494534372,16.3169335334672
0.0405677032726369,16.3180479522829
0.0456146126440127,16.3191269171619
0.0512956404343168,16.3201738179341
0.0577046798054577,16.3211922368816
0.064954685552143,16.3221860035427
0.0731823475302772,16.3231591664424
0.0825579195953813,16.3241163750888
0.0932958011099814,16.3250629178579
0.105671526901764,16.3260049944104
0.120050399471647,16.3269502915146
0.136935782043159,16.3279088973268
0.157060656753942,16.3288951163172
0.180433618569127,16.3298861211603
0.207584792226183,16.3308880529826
0.239314500056382,16.3319148031654
0.276776211139318,16.3329882144194
0.320898082736471,16.3341252673922
0.363200195884801,16.3351396753542
0.398175267825539,16.3359578527837
0.428288967238097,16.3366753382634
0.454616625984645,16.3373415335897
0.477371854833598,16.3379846046404
0.496319939758764,16.3386267303984
0.510796767666976,16.3392911320534
0.519451953478816,16.3400098150599
0.519476202223415,16.3408177258243
0.508398746037576,16.3416406367651
0.484999339964923,16.3424952005106
0.447644198487261,16.343393971013
0.394469060963761,16.3443458130328
0.349522234856972,16.3450122527928
0.29912236455883,16.3456786925528
0.254253432928876,16.3462311172257
0.216020845058865,16.3466875669126
0.182560743152784,16.3470860533208
0.152650031432993,16.3474488796977
0.125568649883276,16.3477893361553
0.100835799515937,16.348116700885
0.0780737463193777,16.348438837268
0.0569127026998806,16.3487643347801
0.0368363966110599,16.3491065994835
0.0165165521383911,16.3495021797911
0.00800793103491512,16.3496886394865
0.0001658708997656,16.3498750991819
-0.00770636208743115,16.3500799425881
-0.0142267155333709,16.3502664808557
-0.0201606967823223,16.3504530416193
-0.0261322055138521,16.350661329969
-0.0318949485978268,16.3508877390473
-0.0372910396919425,16.3511300509736
-0.042233087246426,16.3513874788135
-0.0466757505110451,16.3516601818571
-0.0505989423610699,16.3519489952431
-0.0541315885761663,16.3522699196176
-0.0569402442367304,16.3525937690103
-0.0592341705953364,16.3529390298558
-0.0610289054753341,16.3533088904833
-0.0623387319454245,16.3537070061965
-0.0631772463522328,16.354137890167
-0.0635558565128103,16.3546071710328
-0.0634821134329223,16.3551219751939
-0.0629574814468544,16.3556916169431
-0.0619716834300728,16.3563298730793
-0.0604993186527258,16.357054681658
-0.05848878610427,16.3578931924957
-0.0558329469404392,16.3588922569134
-0.0522586129223788,16.3601577936835
-0.0482141432422348,16.3615527951883
-0.0443046323758459,16.3629016909135
-0.0405784965328993,16.3642092852436
-0.037059107982655,16.365477977769
-0.0337582240604144,16.3667086798824
-0.0306807499810296,16.367901547451
-0.0278269132792884,16.3690563705579
-0.0251934608663833,16.3701727784841
-0.0227744564826595,16.3712503451532
-0.0205618999031769,16.3722886385499
-0.0185462535756835,16.3732872367946
-0.0167169072849877,16.3742457230883
-0.0150625902827059,16.3751636662279
-0.0134973880494655,16.3760857301716
-0.011992274646034,16.3770314742769
-0.0105515993507094,16.3780025944076
-0.00917927552565156,16.3790012520831
-0.00787901181695407,16.3800299874009
-0.00665426003825137,16.3810918146515
-0.00550816281479726,16.3821903471138
-0.00444349888443187,16.3833299656617
-0.00346262589704603,16.3845160520209
-0.00256742007135011,16.3857553205904
-0.00175921128494732,16.3870563064039
-0.00103871075919296,16.3884301120884
-0.000405925797377443,16.389891609521
0.000139949653011153,16.3914614992134
0.000583626887282288,16.3930976159287
0.000930627279528788,16.3947838919527
0.00119684394761304,16.3965387211704
0.0013967038437048,16.3983844593907
0.0015438244648838,16.4003512705333
0.0016514707601175,16.4024825160559
0.00173327013939079,16.404846263685
0.00180468942444399,16.4075647005493
0.00188766749265695,16.4109184079319
0.00199494089430887,16.4146717328627
0.00213015027745567,16.4185567879589
0.00228448252911485,16.4223579619454
0.00245438845406452,16.4261451824932
0.00263655336735952,16.4299695820614
0.00282883829680396,16.4338705363647
0.00303050169378742,16.4378817085727
0.00324209087413809,16.4420343601458
0.00346523378498763,16.4463593761345
0.0037024346427919,16.4508887556718
0.00395695380089305,16.4556570054822
0.00423285854871286,16.4607025740352
0.00453533333940864,16.4660691669752
0.00486276383743285,16.4716617543679
0.00519494525679408,16.4770788407019
0.00554065614646817,16.4824274623541
0.00590014840633341,16.4876643642434
0.00627791903762149,16.4928111827001
0.00667776556325195,16.4978744665543
0.00710405763060199,16.5028641597223
0.00756128303935078,16.5077862456296
0.00805425600878655,16.5126445435662
0.00858818492632017,16.5174405731986
0.00916880102883516,16.5221740985013
0.00980246400578618,16.5268434579004
0.0104962790570901,16.5314460820647
0.0112743983210327,16.5360704460882
0.0121520081035532,16.5407152208361
0.0131502792676561,16.5453930225528
0.014298832088176,16.5501316621842
0.0156452850550805,16.5549976181925
0.0172851598058867,16.5601638767147
0.0195229720285292,16.5662706849385
0.0212785472806371,16.5705678367639
0.0231331961936542,16.5748649885893
0.0247080468666299,16.5784959338433
0.0260249922600452,16.5816897176956
0.0271306533061816,16.5846872617508
0.0280117259265514,16.5875862372151
0.0286229675831566,16.5903526385891
0.0289653502472187,16.5931034067149
0.0290125751059058,16.5959842419928
0.0286688001502666,16.5992867208734
0.027904510463258,16.6026747345652
0.0270349819310266,16.6053845475346
0.0259810797076624,16.608094360504
0.0249130461878411,16.6105298394342
0.0238438547777675,16.6127985196308
0.0227725219834989,16.6149757955968
0.0217014487994904,16.6171018921924
0.0206342333177577,16.6192013419296
0.0195745939410854,16.6212910309458
0.0185260573155468,16.6233836056102
0.0174918760021747,16.6254891586293
0.0164750142650477,16.6276161751235
0.0154781570649746,16.6297721103144
0.0145037213821111,16.6319637788753
0.0135538706743462,16.6341976281871
0.012630528431435,16.6364799463155
0.0117353850879654,16.6388170463323
0.010869914525264,16.6412154048823
0.0100353783886558,16.6436818225191
0.00923284227743118,16.6462235526518
0.00844127631480398,16.6489262116922
0.00766283599200757,16.6518133036163
0.00690124765839185,16.6549072814996
0.00616047507140351,16.6582341746113
0.00544471694669996,16.6618241963233
0.00475836906008975,16.6657125498622
0.00410595104713953,16.6699404888545
0.00349198069474297,16.6745568583976
0.00292075591261499,16.6796208175829
0.00239603988565052,16.6852070104329
0.00192075226792848,16.6914146007614
0.00150748177898858,16.6981842323413
0.00122576648461746,16.7039484443201
0.00100970378001454,16.7097126562989
0.000783546905999127,16.7176713243803
0.000599643679516441,16.7264599107036
0.000457360271763126,16.7358565333264
0.000350953012033604,16.7458565333264
0.000278073480309301,16.7558565333264
0.000228907273681794,16.7658565333264
0.000196321079753334,16.7758565333264
0.000175262161216319,16.7858565333264
0.000162250379300548,16.7958565333264
0.000154928087086358,16.8058565333264
0.000151706122589584,16.8158565333264
0.000151514847468739,16.8258565333264
0.000153640169268916,16.8358565333264
0.000157617386458376,16.8458565333264
0.000163161487672323,16.8558565333264
0.000170120656349483,16.8658565333264
0.000178445575651831,16.8758565333264
0.000188170354985383,16.8858565333264
0.00019940256835708,16.8958565333264
0.000212320925752413,16.9058565333264
0.000227179966380789,16.9158565333264
0.000244322061918845,16.9258565333264
0.000264198071234722,16.9358565333265
0.000287399372937212,16.9458565333265
0.000314706032526175,16.9558565333265
0.000347159096255089,16.9658565333265
0.000386170469772597,16.9758565333265
0.000433693503443238,16.9858565333265
0.000489482739651741,16.9953881067154
0.000553151887261695,17.0041964546037
0.000625666694396616,17.0123260300103
0.000708222762918255,17.019829199619
0.000802194065930541,17.0267550257416
0.000909140700692729,17.0331491050314
0.00103082921676508,17.0390538128766
0.00116925887574193,17.0445085340205
0.00132669283839021,17.0495498681467
0.00150569301791274,17.0542118264793
0.00170916192588593,17.0585260228106
0.00194039112674273,17.0625218582825
0.00220312083577184,17.0662266964157
0.00250161147141023,17.0696660373964
0.00284073446402742,17.0728636985559
0.00322608789652686,17.0758420023116
0.0036641474553332,17.0786219770567
0.00416247089539511,17.0812235871462
0.00472998268136607,17.083666010704
0.00537738671227267,17.0859679971713
0.00610587941266744,17.0881163253904
0.00691083048222647,17.0900989660994
0.00780302611322003,17.0919498169629
0.0087987482232597,17.0937030615014
0.00992393929491859,17.095396445638
0.0112262567758649,17.0970816997213
0.0128740573086506,17.0989179698576
0.0153931449604522,17.101315739491
0.0169836978025468,17.1026756851847
0.0186481397485041,17.1040356308784
0.0201634563595181,17.1052630556008
0.0215208261351056,17.1063976874005
0.0227367405653303,17.1074930196644
0.0238051868028332,17.108588474725
0.0247030690630647,17.1097242101874
0.0253854454573574,17.1109585125823
0.0257555024936341,17.112417951045
0.0254188702330601,17.1146474396802
0.0246666799208547,17.1161246007347
0.0235944488079235,17.1176017617893
0.02237385254185,17.1189922563659
0.0210073834001684,17.1203950266637
0.0195040933163202,17.1218565276165
0.0178720270387798,17.123414077156
0.0173070081098632,17.1239547267479
0.0167479305111058,17.1244953763397
0.0159303041448552,17.1253095147961
0.0135028938583481,17.1279316398051
0.0110863507376815,17.1309469144668
0.00919675528192265,17.1337108842996
0.00770006049364598,17.1362631729456
0.00644025933722719,17.1387595045002
0.0053379462980718,17.1413046185673
0.0043693849320247,17.1439254397788
0.0035172352258778,17.14664507283
0.00279592000582913,17.1493693651183
0.00221719147850077,17.1519422783985
0.00174303904084259,17.1543988615024
0.00134456204616987,17.1567853520246
0.00100036979983995,17.1591548096986
0.000693767947160559,17.1615741840005
0.000407986024367225,17.1641627509672
0.000104532375182944,17.1673623277693
-6.41118618214811e-05,17.1693905855664
-0.000217335114189124,17.1714188433635
-0.000344238186356524,17.1732509475697
-0.000453859925719075,17.1749574403392
-0.000555667794321871,17.1766548747241
-0.000656307703683027,17.1784480580719
-0.000763721225525131,17.1804976150309
-0.00089842342541387,17.1832800396244
-0.00108377968542538,17.1875232322924
-0.00122162788596393,17.1910163977078
-0.00133885900640589,17.194232811043
-0.00146124696198645,17.1978581635894
-0.00160290372176239,17.2024739582222
-0.00174884064092372,17.2080319031533
-0.00184128741178256,17.2128549565926
-0.00187910105418006,17.2172126138323
-0.00185311936306533,17.2211181929963
-0.0017554202228109,17.224635500126
-0.00157854529911457,17.22783012231
-0.00131392252554763,17.2307760476476
-0.000950711542710805,17.2335392820996
-0.00047440855120644,17.2361793009722
0.000138721651113151,17.238767306589
0.000931651305215927,17.2413993316765
0.00202752451478241,17.2443196731507
0.00346339686551161,17.2474592521615
0.00524318562300194,17.2507353655205
0.0065571502655539,17.2528535808329
0.00802474748576346,17.2549717961454
0.00947968548836133,17.256838601531
0.011013135786748,17.2585812521207
0.0126343453710282,17.2602031890846
0.014401716815743,17.2617511870537
0.0163461145672091,17.2632342018705
0.0185006512827709,17.264659301406
0.0208992467993673,17.2660310796019
0.0235724677266318,17.267350396413
0.0265602955783059,17.2686214655708
0.0298992643056843,17.2698451560079
0.033637391388428,17.2710251828959
0.0378279222899654,17.2721646675378
0.0425316646482081,17.2732666511769
0.0478181769168183,17.2743340590887
0.0537738390500108,17.2753708150723
0.0605001680055794,17.2763806742631
0.068119531540033,17.2773676030499
0.0767819001038058,17.2783359427356
0.0866738962461586,17.2792905455374
0.0980326677302759,17.2802370402072
0.111168774442506,17.2811823283276
0.126500506303779,17.2821351279425
0.144618704916817,17.2831072959474
0.166028418898963,17.2840997660369
0.19084610172649,17.2850975617534
0.219750741608533,17.2861123088082
0.253673224844793,17.2871609681684
0.294055480313661,17.2882728628297
0.330176986696816,17.289185139807
0.368181215294581,17.2900974167844
0.401705419497722,17.2908906875035
0.430918321718709,17.2916001393349
0.456455657541628,17.2922643982385
0.478413388376332,17.292909419738
0.496481657956446,17.2935569869703
0.509904939676973,17.2942309446833
0.517164324097856,17.2949655223598
0.51529667795608,17.295777341501
0.502199340687359,17.2966065050355
0.4765876173509,17.2974688730068
0.436797994583264,17.2983760778356
0.380980981938399,17.2993368958793
0.337378291109683,17.2999671623018
0.289138032090132,17.3005974287243
0.246054917533483,17.3011265272391
0.209019932371303,17.3015701534005
0.176419377636924,17.3019612566295
0.147180536528798,17.302319672867
0.120652070327314,17.3026576355752
0.0963853020823994,17.3029839878902
0.0740149619070801,17.3033065379161
0.0531640855826421,17.3036342997137
0.0332592129169081,17.3039824908815
0.0125661935900939,17.3043992363408
0.00136251896774013,17.3046591996109
-0.00597974400034715,17.304847842995
-0.0126884064349214,17.3050364863792
-0.0185390393004343,17.3052168924612
-0.024513352407491,17.3054204359432
-0.0303361331349664,17.3056430393711
-0.0358248890002843,17.3058819859476
-0.0408776407897229,17.3061361728005
-0.0454404047205592,17.3064055495054
-0.0494878541973257,17.3066907959792
-0.0530043260516295,17.3069931630586
-0.0559622677918028,17.307311617655
-0.0584027827430427,17.3076507552484
-0.0603406586761481,17.3080135626342
-0.0617900208692916,17.3084034734079
-0.0627647738457668,17.3088247194025
-0.0632771033061286,17.3092825590441
-0.0633358844902125,17.3097836137364
-0.0629447541942424,17.3103363840534
-0.0620975163842685,17.3109532447266
-0.0607740798024735,17.3116505162091
-0.0589328204299375,17.3124518577178
-0.0564893040446571,17.3133961149331
-0.0532472049298934,17.3145620226623
-0.0491824184178305,17.3159727873536
-0.0452347098732,17.31733363861
-0.0414604689647029,17.3186518871227
-0.0378879397732674,17.3199306344062
-0.0345314463857966,17.3211711493969
-0.0313974814662116,17.322373770937
-0.0284873811297028,17.3235383798478
-0.0257987213228445,17.3246646472232
-0.0233262005049161,17.3257521634948
-0.0210622993064537,17.3268005013656
-0.018997829734653,17.3278092400551
-0.0171224160661475,17.3287779654964
-0.0154249209446772,17.3297062544975
-0.0138455122112641,17.3306225298941
-0.012324886837683,17.3315622006543
-0.0108676861495212,17.3325267514572
-0.00947786640493647,17.3335182617183
-0.00815919326328956,17.3345391681098
-0.00691518823704287,17.3355923552499
-0.00574907696245457,17.3366812717718
-0.00466373509575163,17.3378100863009
-0.0036616317769551,17.3389839018738
-0.00274477016739229,17.3402090586891
-0.00191462387111314,17.3414935753537
-0.00117206683476465,17.3428478170145
-0.000517292043090918,17.344285555678
5.02903500576054e-05,17.3458257557947
0.000521164227602484,17.3474521550982
0.000890919272773675,17.3491240407024
0.00117609209410426,17.350859711998
0.00139137114960525,17.3526800517594
0.001550544938213,17.3546128848843
0.00166691939001884,17.3566974970248
0.00175394495253343,17.3589940164954
0.00182641009227645,17.3616060983127
0.00190374662923099,17.3647533176258
0.00200580763195678,17.3684882034267
0.00213591613752843,17.3723909695515
0.00228607442347382,17.3761982802654
0.00245309629327436,17.3799836889974
0.00263348553622701,17.3838005505337
0.00282475274017876,17.3876893134156
0.0030258055874952,17.391684146698
0.00323690125625778,17.3958164742528
0.00345945454754929,17.4001171265421
0.00369582751206579,17.4046178708379
0.00394918687681238,17.4093527944693
0.00422351994289949,17.4143597436309
0.00452389774313576,17.4196816285157
0.0048522181406613,17.4252852960822
0.00518426714105411,17.4306984919409
0.00553019694958099,17.4360522184741
0.00588959503662651,17.4412924087508
0.00626708458896982,17.4464426806221
0.00666639971492846,17.4515086066578
0.00709193761405685,17.4565004780882
0.00754819454743662,17.4614243905724
0.00803999663782791,17.4662843533397
0.00857255466266844,17.4710820059371
0.00915159460124772,17.4758171931694
0.00978346414218474,17.4804883050328
0.0104752502650813,17.4850927967631
0.0112504958551508,17.4897161509836
0.0121247667417792,17.4943602004324
0.0131189559927791,17.499036693134
0.0142623470566636,17.5037727966358
0.0156017568533136,17.5086332169441
0.0172302711112361,17.5137854994555
0.0194381119877326,17.5198378880144
0.021209292913205,17.5241878514819
0.0230846121061429,17.5285378149494
0.0246694280036413,17.5321894865978
0.0259926179841483,17.5353915670809
0.0271038918782222,17.5383922972362
0.0279923996018494,17.5412965632736
0.0286107514555327,17.5440650375185
0.0289604815981044,17.5468145318519
0.0290163153734254,17.5496892727194
0.0286857768992618,17.5529727987204
0.0279232990673042,17.5563953229662
0.0270558613368995,17.5591130291958
0.0260020372747357,17.5618307354253
0.024933891604887,17.5642706575338
0.0238647282633161,17.5665416069998
0.0227934170755225,17.568720115705
0.0217223089834026,17.570846858495
0.0206549926912077,17.5729465668658
0.0195951883565919,17.5750362303873
0.0185464275364566,17.5771285545443
0.0175119683809294,17.5792336675771
0.0164947808545319,17.5813600757045
0.0154975554385592,17.5835152457743
0.0145227143111881,17.5857059974127
0.0135724261330936,17.5879387769538
0.0126486189687779,17.5902198676214
0.0117529878467725,17.5925555726491
0.010887011256492,17.5949523536521
0.0100519545998043,17.5974169929709
0.0092488875014998,17.599956718924
0.00845709590293794,17.6026558835039
0.00767835566488922,17.6055390773577
0.00691639337739329,17.6086286712014
0.00617516809701397,17.6119506164858
0.00545887482772767,17.6155350314241
0.00477190634816141,17.6194170060152
0.00411878123165163,17.6236376537631
0.0035040195501808,17.6282456369081
0.0029319263924177,17.6332998578722
0.00240627908166652,17.6388745601063
0.00193001581044171,17.6450682795901
0.00151537569868889,17.6518284546629
0.00124064625547322,17.6573968279417
0.00102703836848996,17.6629652012205
0.000797279810563077,17.6708655515392
0.000613946232889203,17.6794104266449
0.000467936629024131,17.6887557572469
0.000357897819574457,17.6987557572469
0.000282403421142638,17.7087557572469
0.000231369554204899,17.7187557572469
0.000197459629021075,17.7287557572469
0.000175459336015285,17.7387557572469
0.000161766852785706,17.7487557572469
0.000153938592509651,17.7587557572469
0.000150326890920976,17.7687557572469
0.000149822351013549,17.7787557572469
0.000151683169341781,17.7887557572469
0.000155424581136747,17.7987557572469
0.000160746409893938,17.8087557572469
0.000167484773864803,17.8187557572469
0.000175580090306344,17.8287557572469
0.00018505695879957,17.8387557572469
0.000196013281717357,17.8487557572469
0.000208617042112928,17.8587557572469
0.000223110020519454,17.8687557572469
0.00023981860475419,17.8787557572469
0.000259172850755258,17.8887557572469
0.000281736248782083,17.8987557572469
0.000308250520845656,17.9087557572469
0.000339702723577296,17.9187557572469
0.000377426868663225,17.9287557572469
0.000423260936299246,17.9387557572469
0.000477783048719507,17.9484299469804
0.000540056904893233,17.9573751518233
0.00061099310459818,17.9656308387767
0.000691755084672526,17.9732499915122
0.000783685738244163,17.9802824387864
0.000888311810315554,17.9867744855548
0.00100736260808033,17.992769157936
0.00114279537567012,17.9983064410516
0.00129682568150842,18.003423489929
0.00147196168128635,18.0081548283038
0.0016710445365718,18.0125325418721
0.00189729577551459,18.0165864658159
0.00215437487362667,18.0203443622514
0.00244644829203524,18.0238320945943
0.00277827706658335,18.027073807556
0.00315532738585708,18.0300921148071
0.00358391499056737,18.0329082974477
0.00407139932025793,18.0355425288283
0.00462645228010512,18.038014144055
0.00525944568699482,18.0403419823378
0.00597585567485164,18.0425249134486
0.00676734754670773,18.0445362399253
0.00764400468009304,18.0464099666542
0.00862109838402825,18.0481803255876
0.00972256301040902,18.0498841882545
0.0109911973844664,18.0515700478162
0.0125643234573311,18.0533704952647
0.0149284627079656,18.0556823599335
0.0165418632408055,18.0570911653651
0.018246523818355,18.0584999707967
0.0198018847212189,18.0597624336663
0.0211897186730547,18.0609144245129
0.0224346308249129,18.0620165940005
0.0235351458072196,18.0631103674004
0.0244719949817661,18.064234540018
0.0252063913528002,18.0654410809417
0.0256592563902516,18.0668316154277
0.0255672115438273,18.0687915701408
0.0249419123000364,18.0703427035091
0.0239273415675062,18.0718938368775
0.0227593336089642,18.0732988843013
0.0214439946213015,18.074691951059
0.0199889196925555,18.0761297766374
0.0184032933700372,18.0776504065467
0.0173219292447278,18.0786852065439
0.0162636949894763,18.0797200065411
0.0151313173791506,18.0808826510478
0.012658396694913,18.083678939731
0.0104330614380136,18.0866029338385
0.00868680001156177,18.0892874090818
0.0072876684244186,18.0917895695542
0.00608057765193524,18.0942976199772
0.00502223870517791,18.0968642226001
0.00409178125722208,18.0995138292323
0.0032730304956121,18.1022695423068
0.00261060714735304,18.1049034303506
0.00207377933825791,18.1074021496528
0.00162870819705049,18.109805542263
0.00124985236392144,18.1121629008185
0.000917523384586841,18.1145359962404
0.000614203003013849,18.1170209536001
0.000313733822562781,18.1198670003006
0.000103519067269213,18.1221442244926
-8.42061730628595e-05,18.1244214486847
-0.000229062468039499,18.1263631577317
-0.000348360604720429,18.1281000442084
-0.000455974932250375,18.1297855576291
-0.000559525839619253,18.1315238724482
-0.000666069645068606,18.133441910832
-0.000788386833945165,18.1358193292215
-0.00100020022032105,18.1404214134103
-0.00117220797844466,18.1446630159781
-0.00130377076158003,18.1482494185016
-0.00143189755422344,18.1520665374555
-0.00157877609324964,18.1569397871514
-0.00171674396936037,18.1623853190744
-0.00180267076371335,18.1671621098004
-0.00183379100487058,18.1714736558247
-0.00180143763646224,18.1753452148161
-0.00169791808922689,18.1788310628734
-0.00151575563290988,18.1820001607924
-0.00124658728991734,18.1849210470717
-0.000879652057614619,18.1876596391203
-0.000399786623523848,18.1902794042233
0.000218805410145086,18.1928575252401
0.00102818887990234,18.1955124101531
0.00216186702989863,18.1984955957653
0.00362482647378125,18.2016574836752
0.00543031180395728,18.2049486564061
0.00669901982263158,18.2069777675955
0.00811252992460123,18.209006878785
0.00958198861126559,18.2108831288986
0.0111260762847305,18.212625917636
0.0127479093407231,18.2142349939457
0.0145315093234454,18.2157827087977
0.0164841952406617,18.2172568804955
0.0186541446964869,18.2186768850341
0.0210713627683314,18.220043935727
0.0237656273733921,18.2213583948936
0.0267778904495566,18.2226248790646
0.0301458773215148,18.2238445663905
0.0339159518644826,18.2250204250478
0.0381429028228335,18.2261559798003
0.0428882046929915,18.2272542841024
0.0482236008988153,18.2283185339517
0.0542337995031119,18.2293521138125
0.0610226859212402,18.2303590305007
0.0687142195856041,18.2313432631366
0.0774603545049135,18.232309160793
0.0874505408432011,18.2332616110313
0.0989250690467897,18.2342062309105
0.112199256367162,18.2351499562446
0.127698066646604,18.236101550313
0.146022315760653,18.2370729440798
0.16765093078584,18.2380636049705
0.192724210205909,18.2390598786745
0.221929468803979,18.2400734339347
0.256210405341205,18.2411213560008
0.297037536713072,18.2422334764373
0.333053404328095,18.2431344392567
0.37088327231362,18.2440354020761
0.404318051923948,18.2448215442799
0.433466406529071,18.2455259913256
0.458943178998824,18.2461866079727
0.48083188578529,18.2468291137458
0.498808309088631,18.2474753347625
0.512092183993882,18.2481495011713
0.519106511276804,18.2488870440528
0.516831289301946,18.2496976836484
0.503253415933027,18.2505268052507
0.477062508066989,18.2513902443186
0.436567254314753,18.2522995496729
0.379894695928891,18.2532634471851
0.336280100555444,18.253888072735
0.288149216320078,18.2545126982849
0.245175403479042,18.2550378869791
0.208208267646101,18.2554790825968
0.175652799617203,18.2558685599971
0.146447901385108,18.2562258214004
0.119946768068103,18.2565629539398
0.0957019581672083,18.2568887437255
0.0733471640969281,18.2572110069824
0.0525006895886099,18.2575388682078
0.0325716345259249,18.2578879946858
0.0117044774603932,18.2583097404901
0.001123208160805,18.2585558960557
-0.00619578448461762,18.2587438751663
-0.012883721375326,18.2589318542769
-0.0187500663030615,18.259112697073
-0.0247309515336836,18.2593164972397
-0.0305539663854599,18.2595392315902
-0.0360391741142621,18.2597782428647
-0.0410860926890428,18.2600324646003
-0.0456416178392608,18.2603018693659
-0.0496809578230048,18.2605871530667
-0.0531891563466718,18.2608895794153
-0.056150762787035,18.2612096015018
-0.0585805108211034,18.2615489956327
-0.0605074325536194,18.2619121147521
-0.0619458423946636,18.2623024297232
-0.0629096484706384,18.2627241985638
-0.063410990819539,18.2631827144133
-0.0634586413891257,18.2636846467457
-0.0630560552168031,18.2642385654623
-0.062196651953656,18.2648569898985
-0.0608598137184266,18.2655563933376
-0.0590029228376508,18.2663607697202
-0.0565393367529186,18.2673097123918
-0.0532658357936128,18.2684843204862
-0.049198781227988,18.2698939825636
-0.0452501106806379,18.2712542264296
-0.0414756571289515,18.2725720605608
-0.0379032779912046,18.2738505037758
-0.0345471205599187,18.2750907802347
-0.031413588354,18.2762932034305
-0.0285039685498454,18.2774576393652
-0.0258158081948682,18.2785837501985
-0.0233437877377448,18.2796711208161
-0.0210803761636061,18.2807193203733
-0.0190163778801285,18.2817279257389
-0.0171414123118398,18.2826965212134
-0.0154443392234089,18.2836246823959
-0.0138650354641239,18.284541007848
-0.0123445308576242,18.2854807325566
-0.0108874631216187,18.2864453433447
-0.00949778783712265,18.2874369203287
-0.00817926991936655,18.288457901125
-0.00693543007838847,18.2895111715825
-0.00576949307322778,18.2906001819373
-0.00468433359928408,18.2917291029146
-0.003682419746835,18.2929030403354
-0.00276575353515398,18.2941283381566
-0.00193580733413826,18.2954130201828
-0.00119345376658585,18.2967674589781
-0.000538884405108678,18.2982054375756
2.84920978678635e-05,18.2997459377266
0.000499091894578513,18.3013724214201
0.000868615137822314,18.3030444408756
0.00115358986245162,18.3047802947185
0.00136870006579986,18.3066008799848
0.00152773010811447,18.308534044144
0.00164398204654106,18.3106191119306
0.00173090265024266,18.3129162866871
0.00180327735996795,18.3155293937339
0.00188054024177547,18.3186785353926
0.00198245569026104,18.3224134737071
0.00211274991510087,18.3263267488897
0.00226286604878702,18.3301381090052
0.00242959026322503,18.3339233422219
0.0026094359982871,18.3377370444489
0.00279993291428494,18.3416202598631
0.00300000288169541,18.3456074424043
0.00320990485887476,18.3497301271216
0.00343104022791684,18.3540191386933
0.00366574141926472,18.3585061499977
0.00391712581689765,18.3632250622543
0.0041891040433038,18.3682134512485
0.00448662779102449,18.3735138731685
0.00481412790495143,18.3791384951932
0.00514439952981757,18.3845592666602
0.00548861584752941,18.3899263538413
0.00584585751985294,18.3951773649229
0.00622083311350692,18.4003379202167
0.006617194002912,18.4054129603697
0.00703931764341026,18.4104132296226
0.00749165400910404,18.4153450131066
0.00797897870776542,18.4202125698531
0.00850643877796941,18.4250177368226
0.00907968628166909,18.429760536931
0.00970498408083028,18.4344395005067
0.0103893203524006,18.4390521513185
0.0111537711379929,18.4436716451703
0.0120154862390794,18.4483130990548
0.012994266788358,18.4529847644949
0.0141181532865261,18.457711532019
0.0154310398335396,18.4625516846656
0.0170173897088627,18.4676535358027
0.0191205662871004,18.4735204663953
0.0209562135128888,18.4780875228934
0.0229163675438644,18.4826545793915
0.0245374216678343,18.4863832939976
0.0258817205823863,18.4896145701584
0.0270115894039205,18.4926266604964
0.0279248010440334,18.4955492809184
0.0285666577986924,18.4983253463064
0.0289405308136546,18.5010714575378
0.0290243886953176,18.503927467344
0.0287358596458544,18.5071531111125
0.0277603155231686,18.5114627846583
0.0268781865375869,18.514105387038
0.02582739897111,18.5167479894176
0.0247602774081446,18.5191505220242
0.0236908254781906,18.5214023297475
0.022619355692309,18.5235701828405
0.021548621150077,18.5256910837861
0.0204822799445179,18.5277881252112
0.0194240344116239,18.5298774302218
0.0183773752148059,18.5319711959729
0.0173455137756108,18.5340792360986
0.0163313742068299,18.5362098556203
0.0153376024501804,18.5383703954285
0.0143665782786071,18.5405676009337
0.0134204314439174,18.5428078795012
0.0125010502774667,18.5450975127377
0.0116100944682232,18.5474428228314
0.0107490073133272,18.5498503189084
0.00991902121044176,18.5523268542307
0.00911920261594461,18.5548862987355
0.00832926105232986,18.5576141247197
0.00755297970195378,18.5605293473874
0.00679410290381714,18.5636549508205
0.00605662944835708,18.5670175212542
0.005344790876924,18.5706479254083
0.00466300587430605,18.5745821610448
0.00401580371610396,18.578862453541
0.00340769143966712,18.5835388757184
0.00284290219293593,18.5886724770433
0.00232509872842443,18.5943407276697
0.0018570685045247,18.6006472460068
0.00145370420511642,18.6074854811095
0.00112089432208134,18.6148513078181
0.000902431337073202,18.6214719152886
0.000696135834935719,18.6297812756534
0.000532404067894784,18.6387741011818
0.000402735582882524,18.6487741011818
0.000313279696892169,18.6587741011818
0.00025239778912668,18.6687741011818
0.000211623231013473,18.6787741011818
0.000184862228041077,18.6887741011818
0.000167853439811753,18.6987741011818
0.000157686382355894,18.7087741011818
0.000152395187366922,18.7187741011818
0.000150655425740906,18.7287741011818
0.000151577838706324,18.7387741011818
0.000154574026261216,18.7487741011818
0.000159269107410846,18.7587741011818
0.000165443899419537,18.7687741011818
0.00017299637948022,18.7787741011818
0.000181916733881608,18.7887741011818
0.00019227269303504,18.7987741011818
0.000204203152929957,18.8087741011818
0.000217919003503528,18.8187741011818
0.000233710944296189,18.8287741011818
0.000251965011128302,18.8387741011818
0.000273187699868714,18.8487741011818
0.000298044180716842,18.8587741011818
0.00032741554938947,18.8687741011818
0.000362485080175734,18.8787741011818
0.000404870375161706,18.8887741011818
0.000456600072525443,18.8987333984141
0.000515778663260014,18.9079532814932
0.000583210027229117,18.916463021093
0.000659988736036343,18.9243166190931
0.000747390373434368,18.9315652587531
0.000846869298299585,18.9382565140215
0.000960073549699969,18.9444345888306
0.00108886841609127,18.9501405643432
0.00123536498045726,18.9554126189341
0.00140195316778687,18.9602862284831
0.00159133900010563,18.9647943611485
0.00180658968112634,18.9689676667973
0.00205118627549194,18.9728346577977
0.0023290880954495,18.9764218826032
0.00264481240624922,18.9797541026317
0.00300353460183739,18.9828544765163
0.00341121845106794,18.9857447525352
0.00387478784702589,18.9884454805798
0.00440236226064066,18.9909762611143
0.0050035909397413,18.9933560531968
0.00569014681364602,18.9956035865209
0.00645149186553943,18.9976758589153
0.00729349919554043,18.999597268661
0.00822919993451938,19.0014019539666
0.00927838600335129,19.0031249956754
0.0104743831134985,19.0048084993375
0.0118968590779142,19.0065327498159
0.0138240408301116,19.0085401280092
0.015514790792058,19.0100959554232
0.0173479037014775,19.0116517828372
0.0190310625998868,19.0130215378141
0.0205048259479373,19.014222136882
0.0218247233083959,19.0153434122299
0.0230034401461091,19.0164359720924
0.0240304988879109,19.0175381764686
0.0248782691190606,19.0186927206243
0.0254934724601396,19.0199675074555
0.0257506512692036,19.0215315229745
0.0253883373795911,19.0233312519777
0.0244255676403703,19.0251309809809
0.0233063572889806,19.0265943398435
0.0220505760515788,19.0279846716209
0.0206524962359191,19.0293981023128
0.0191201548902963,19.0308786101148
0.0174604075069671,19.0324640949638
0.0157013383928488,19.0342022290484
0.0143379627724347,19.0356500097766
0.0118464227888451,19.0386045682139
0.0097947994161913,19.0414481643609
0.00818009846153132,19.0440621243786
0.00685809220172831,19.0465494813133
0.0057044637448027,19.0490740175504
0.00469165361581194,19.0516660406683
0.0038008358544106,19.0543488865553
0.00302546364714863,19.0571126026598
0.00240602547677202,19.0597185762537
0.00190170619342483,19.0621970460952
0.00148092789412395,19.064591930332
0.0011202598770881,19.0669543927564
0.000801572941389521,19.0693484750739
0.000508091027540045,19.0718781075047
0.000210045545012415,19.0748548697944
2.04105368376247e-05,19.0770162980882
-0.000150336850954934,19.079177726382
-0.000286677252113,19.0810730886699
-0.000401271914113984,19.0827975409972
-0.000505835323041215,19.08448659286
-0.000607472363448061,19.0862433604879
-0.000713422686961418,19.0882049460128
-0.000838454565397352,19.0907039491854
-0.00104233997905869,19.0952419362592
-0.00120077352457927,19.0992039442629
-0.00132561191136688,19.1026218118659
-0.00145096473713061,19.1063486427924
-0.00159543769016445,19.1111012262987
-0.00173712422216057,19.1165967843485
-0.00182608751563566,19.1213931762764
-0.00186021517747417,19.1257241130994
-0.0018305550124757,19.1296109323588
-0.00172930238206382,19.1331095783057
-0.00154897491452466,19.136289398243
-0.00128099516605559,19.1392223585927
-0.000914564882156447,19.1419734220038
-0.000434858697745732,19.1446037092801
0.000184163310030597,19.1471919805004
0.000990148209339789,19.1498428481533
0.00210904090588238,19.1527964920741
0.00356288943221818,19.1559482651688
0.00535965175692965,19.1592313701861
0.0066433022500383,19.1612883640378
0.00807420327631022,19.1633453578895
0.00953768589216103,19.1652166548965
0.0110883750443948,19.1669706313833
0.012706166407701,19.1685800054235
0.0144832396459671,19.1701273130647
0.0164338204691815,19.1716056219327
0.0185979708438448,19.1730276985923
0.0210081949202776,19.1743967909475
0.0236943293108787,19.1757132919636
0.0266970573583998,19.1769817187019
0.0300536603786836,19.1782031307089
0.0338111797018747,19.1793807896428
0.0380238001781681,19.1805180573322
0.0427527486508177,19.181617982338
0.0480688452593293,19.1826836395814
0.0540576433943145,19.1837186577362
0.060822067819953,19.1847269326732
0.0684855077774827,19.1857124415338
0.077199226673228,19.1866795353705
0.08715178975636,19.1876331028975
0.098582323072192,19.1885787608739
0.111804760869587,19.1895234571327
0.127242174642409,19.1904759648213
0.145492887566308,19.1914482349616
0.167039367565696,19.1924399802972
0.192017781571028,19.1934373200375
0.221113469874576,19.1944519569698
0.255267661217264,19.1955010174393
0.295945991940336,19.1966143380567
0.331941093803871,19.1975188521032
0.36976168071163,19.1984233661496
0.403180456772897,19.1992121640042
0.432315639004744,19.1999187633678
0.45778149142193,19.2005811334783
0.479662675068214,19.2012250239246
0.497638337633971,19.2018722237873
0.510935733682858,19.2025468051494
0.517997835595128,19.2032837145022
0.515827259712877,19.2040951629314
0.502383679711378,19.2049246400421
0.476366433364717,19.2057879502765
0.436096982796846,19.2066966372215
0.379715023454555,19.2076594603707
0.336178007606897,19.2082850668493
0.288104512252618,19.2089106733279
0.245169216653567,19.2094366161481
0.208231542629788,19.2098783575838
0.17569963136747,19.2102682584549
0.146514081738605,19.2106258641861
0.1200292986405,19.2109632815014
0.0957988535896739,19.2112893033078
0.0734575481477048,19.211611740741
0.0526255083018,19.2119396904844
0.032716854078628,19.2122887106603
0.0119083273832259,19.2127093517418
0.00119157090088687,19.2129587486407
-0.00613171898063677,19.2131470317061
-0.012823299489492,19.2133353147714
-0.018683626399509,19.213516161517
-0.0246604069093952,19.213720016775
-0.0304807357769453,19.2139428432811
-0.0359641758322823,19.2141819684115
-0.0410099607227407,19.2144363167767
-0.0455648215750888,19.2147058556929
-0.0496038648616974,19.2149912777451
-0.0531117259492535,19.2152938441972
-0.0560619640600622,19.2156126378334
-0.0584937859094281,19.215952059497
-0.0604230539699495,19.2163152050695
-0.0618639281845466,19.2167055235897
-0.0628303060120755,19.2171272650227
-0.0633343337270743,19.2175857117544
-0.0633848093659497,19.2180875180329
-0.0629852420011126,19.2186412313293
-0.0621291700402785,19.219259326666
-0.0607961540850529,19.219958224478
-0.0589439232183855,19.2207618057353
-0.0564866170534213,19.2217094081419
-0.0532234709784935,19.2228813111657
-0.0491584326784919,19.2242911566398
-0.0452114981938015,19.225651414499
-0.0414386333865587,19.2269691827182
-0.0378677790485962,19.228247509634
-0.0345131110204149,19.2294876361788
-0.0313810384544486,19.2306898859804
-0.02847284437576,19.2318541314942
-0.0257860679395855,19.2329800391885
-0.0233153809335462,19.2340671969318
-0.0210532444527429,19.2351151759832
-0.0189904565353907,19.2361235546835
-0.0171166320789369,19.2370919183105
-0.0154206282206673,19.2380198430176
-0.0138416926692288,19.2389363148571
-0.0123215869510868,19.2398761920578
-0.0108649419092158,19.2408409666032
-0.0094757122689536,19.2418327206464
-0.0081576616932554,19.2428538943281
-0.00691430928490503,19.243907376627
-0.00574887783089419,19.2449966217186
-0.00466423967692347,19.2461258053721
-0.00366286016861967,19.2473000399931
-0.00274673816100516,19.2485256783336
-0.00191734240017628,19.2498107562716
-0.00117554135847108,19.2511656635134
-0.000521521814071225,19.2526042084854
4.53132378780115e-05,19.2541454126791
0.000515235286412056,19.2557721280351
0.000884193153307113,19.257444489997
0.00116869933578312,19.2591807978803
0.00138343237569971,19.2610019827358
0.00154217366983474,19.2629359453483
0.00165822599806154,19.2650221022233
0.00174504298597223,19.2673208323559
0.0018174302680893,19.2699363592258
0.00189488519837897,19.2730900177896
0.00199703689406,19.2768251753805
0.00212734970040106,19.2807305980657
0.00227761538766592,19.2845389498224
0.00244462438287127,19.2883243434968
0.00262488715565217,19.2921404431189
0.0028159298209128,19.2960278461044
0.0030166743722448,19.3000207929672
0.00322738661058449,19.3041507362628
0.00344948275441225,19.3084485057895
0.00368531879576345,19.3129458461105
0.00393804734877619,19.3176767991649
0.00421163203362889,19.3226791454607
0.00451110699999701,19.3279957096729
0.0048390948984645,19.333606284246
0.00517052074974224,19.3390224131811
0.00551582826366508,19.3443806255024
0.0058744607196951,19.3496244910103
0.0062510652030785,19.3547782335509
0.00664935017045645,19.3598472607147
0.00707370423810821,19.3648420057412
0.00752860667756061,19.3697686265116
0.00801886482074867,19.374631210679
0.00854966644106832,19.3794314615453
0.00912671127125458,19.3841692827368
0.00975631719241115,19.3888431108757
0.0104455366270158,19.3934504229486
0.0112170547896392,19.3980724493377
0.0120869862127696,19.4027155910969
0.013075843576447,19.4073903882766
0.0142124709675748,19.4121231951213
0.0155426456087746,19.4169764301826
0.0171563421962568,19.4221106988398
0.0193262255947743,19.428094947286
0.021118850892822,19.4325173248436
0.0230224755442098,19.4369397024012
0.024620205087327,19.4406185414621
0.0259512226558611,19.4438312436961
0.0270694661544856,19.4468360914511
0.0279672283087517,19.4497471137919
0.0285944066192245,19.4525183284964
0.0289532282294955,19.455266429743
0.0290196606410046,19.4581339163942
0.0287051956559744,19.4613949221438
0.0277057434218059,19.4656880205907
0.0268180412487418,19.4683106632504
0.0257667087254406,19.4709333059102
0.024699663569425,19.4733241754098
0.0236300741415976,19.475569750094
0.0225585574153841,19.4777340993721
0.0214879735270255,19.4798530878231
0.0204219980477386,19.4819492786588
0.0193643252764019,19.4840385098501
0.0183184309225868,19.4861328095371
0.0172875101628443,19.4882418851186
0.0162744709117337,19.4903739735496
0.015281943911961,19.4925363715114
0.0143122943648404,19.4947357974935
0.0133676379287925,19.4969786451358
0.0124498501872454,19.4992711907048
0.011560577620715,19.501619762195
0.0107012520945569,19.5040308791643
0.00987309414122431,19.5065114154708
0.00907374779175821,19.5090800017747
0.00828448991418256,19.5118179823687
0.00750910009202899,19.5147445869393
0.00675133782425347,19.5178829882974
0.00601521598159007,19.5212599976428
0.00530497834925927,19.5249067497568
0.00462505252668598,19.528859564556
0.00397997128091307,19.5331610608611
0.00337423382052046,19.5378618332232
0.00281204927902548,19.5430236865307
0.00229703661354116,19.5487252826074
0.00183192999852536,19.5550720912971
0.00143250598735763,19.561938444383
0.00110411349304757,19.5693378576352
0.000876669748318736,19.5764056756457
0.000679987018510322,19.5845795466205
0.000518609447384012,19.5937034316516
0.000393071198358068,19.6037034316516
0.000306536814762114,19.6137034316516
0.000247708184496304,19.6237034316516
0.000208360475350382,19.6337034316516
0.000182584612983878,19.6437034316516
0.000166256874712504,19.6537034316516
0.000156564295981838,19.6637034316516
0.000151607679326825,19.6737034316516
0.000150107712667842,19.6837034316516
0.000151205998130516,19.6937034316516
0.000154335674190328,19.7037034316516
0.000159137201810785,19.7137034316516
0.000165402546832093,19.7237034316516
0.000173038001357067,19.7337034316516
0.000182040214751472,19.7437034316516
0.000192482271734866,19.7537034316517
0.000204507903265057,19.7637034316517
0.000218332818149703,19.7737034316517
0.000234252999561837,19.7837034316517
0.000252660757947805,19.7937034316517
0.000274070508137252,19.8037034316517
0.00029915787701098,19.8137034316517
0.000328818262094686,19.8237034316517
0.000364255094718216,19.8337034316517
0.00040711520703558,19.8437034316517
0.000459246234568899,19.8536240715853
0.000518871473079689,19.8628066059538
0.000586809026108682,19.8712817100553
0.000664163206405584,19.8791032687208
0.000752219184218279,19.8863222989144
0.000852441642338252,19.8929862167998
0.000966490247862113,19.8991390784556
0.00109624347198783,19.9048218263428
0.00124382739447094,19.9100725083661
0.00141164894065256,19.9149264781503
0.00160243355857893,19.9194165898907
0.00181927066113001,19.9235733878564
0.00206566700065802,19.9274252869421
0.0023456116926575,19.9309987464174
0.00266365708762534,19.9343184474027
0.00302502036454055,19.9374074778405
0.00343571582749895,19.9402875258708
0.00390272978753858,19.9429790937194
0.00443426064481075,19.9455017497398
0.00504006053417034,19.9478744413908
0.00573194174080765,19.9501159161477
0.00649776432371461,19.9521794283877
0.00734487553153295,19.9540939939773
0.00828665267157417,19.9558938392556
0.00934346338914987,19.9576142855965
0.0105499032233695,19.9592982899693
0.011993220861457,19.9610332693888
0.0139719614907721,19.9630759804429
0.0156537649485158,19.9646121634596
0.0174705345501854,19.9661483464764
0.0191327186435199,19.96750066999
0.0205931529941256,19.9686936732279
0.0219020197997394,19.9698119921265
0.023069614629304,19.9709044904295
0.0240842059606125,19.9720093630057
0.0249168060715547,19.9731702329848
0.0255114109123057,19.9744583438292
0.0257318757569387,19.9760589399327
0.0253324485182981,19.9778271381039
0.0243618010703446,19.9795953362751
0.0232385476515032,19.9810501888146
0.0219770360239631,19.9824403789634
0.0205734503692195,19.9838562181996
0.0190361222691952,19.9853407222315
0.0173717188723281,19.9869319066422
0.015610751817833,19.9886781890482
0.0141174350180517,19.9902771639579
0.0116641158715065,19.9932232325177
0.00965435179180539,19.9960440206158
0.00842555190432873,19.9980220103079
0.00733140846188633,20
