ecg,time
0.00947556092663841,15.002711755203
0.010133929180362,15.0073499951351
0.0108622208475187,15.011957191266
0.0116824172922,15.0165913811249
0.0126110299295059,15.0212497476995
0.013672662068362,15.0259513968335
0.0149034143049759,15.0307376837457
0.0163666151994612,15.0357099446065
0.0182117840036569,15.0411620132496
0.0206866176990313,15.047523085361
0.0222850773302003,15.0512908641549
0.0239255596661967,15.0550586429487
0.0253608996940938,15.058428054121
0.0265745711309927,15.0615073468426
0.0275815827997199,15.0644667105276
0.0283332434801943,15.0672891656739
0.0288181360374491,15.0700335890379
0.0290264483738239,15.0728244865095
0.0289090893357913,15.0758482347707
0.0282690428079179,15.0796495966937
0.0274448074966595,15.0825703836425
0.0263842187705013,15.0854911705913
0.0253111568795101,15.0880337910015
0.0242421158715579,15.0903550445071
0.0231712902595496,15.0925612967142
0.0220996528970621,15.09470373723
0.0210305238816457,15.0968114700416
0.0199676335274923,15.0989037026903
0.0189145968984767,15.1009944109051
0.017874773405048,15.1030945016543
0.0168512369688214,15.1052129710457
0.0158467770709004,15.1073575968443
0.0148639114404156,15.1095353821201
0.013904899830359,15.1117528637266
0.0129717545189381,15.114016347905
0.0120662561228497,15.1163320844319
0.0111899593365238,15.1187064365365
0.0103442040522758,15.1211460251611
0.00953013064610332,15.1236578563346
0.00873494496222605,15.1262968360449
0.0079514721030942,15.1291129899631
0.00718346268582228,15.1321272048868
0.0064347859106134,15.1353641124684
0.00570955841882417,15.1388522433936
0.00501210637909084,15.1426248065749
0.00434691510324175,15.1467205974946
0.00371852291760789,15.1511853201329
0.00313133674207705,15.1560737858025
0.00258935642053971,15.1614539437346
0.00209584209907665,15.167414340062
0.00165662392330274,15.1740165996384
0.00128587708701113,15.181100844228
0.000988370432083157,15.1887621648074
0.000775752241304387,15.1963721051359
0.000597936251468026,15.204959463875
0.000457695025433323,15.2142715031053
0.000351617396474622,15.2242715031053
0.000278973858704728,15.2342715031053
0.00023006093746919,15.2442715031053
0.000197808119571736,15.2542715031053
0.000177180607596381,15.2642715031053
0.000164699204506793,15.2742715031053
0.000158008152622424,15.2842715031053
0.000155526641686607,15.2942715031053
0.000156199494036398,15.3042715031053
0.000159331979606438,15.3142715031053
0.000164483429794017,15.3242715031053
0.000171398366961777,15.3342715031053
0.000179961589852541,15.3442715031053
0.000190169674917605,15.3542715031053
0.000202114841438728,15.3642715031053
0.000215979004238624,15.3742715031053
0.00023203705935537,15.3842715031053
0.000250669575702538,15.3942715031053
0.000272386390071713,15.4042715031053
0.000297864374959071,15.4142715031053
0.000328005266500723,15.4242715031053
0.000364023634264482,15.4342715031053
0.000407582225032487,15.4442715031053
0.00046100471422175,15.4542715031053
0.000522354873386999,15.4635507088539
0.000592333663596265,15.4721096479695
0.000672076930440047,15.4800030494004
0.000762917860395293,15.4872836981753
0.000866378184378484,15.4940005656468
0.000984182979606441,15.5001990525305
0.00111828538978252,15.5059212732557
0.00127089683961961,15.5112063063537
0.00144452242545636,15.5160904183886
0.00164200088071582,15.520607279004
0.0018665535080225,15.5247881684735
0.00212184159558475,15.5286621753524
0.00241203756034407,15.5322563859225
0.00274191366931978,15.5355960780661
0.00311695524283494,15.538704925487
0.00354350995162787,15.5416052149369
0.00402898814632656,15.5443180915241
0.00458214338966888,15.5468638565115
0.00521348060812334,15.5492623515774
0.00592876569691641,15.5515130955843
0.00672028335008813,15.5535896890076
0.00759896514124055,15.5555282549053
0.0085816541215229,15.5573658649602
0.00969565407490271,15.5591441524787
0.0109925867635077,15.5609221489835
0.0126463119414733,15.5628725079409
0.0144882579158007,15.5647673970715
0.0160570317060897,15.5662358740468
0.0177102121629321,15.567704351022
0.0191863819446589,15.5689972736981
0.0205016904194336,15.5701806791023
0.0216783948674943,15.5713158749119
0.0227129752458617,15.5724444736528
0.0235850145806002,15.5736063620958
0.0242544631468188,15.5748560809734
0.0246388262403428,15.5763029073622
0.0244450799685639,15.5783896910211
0.0237776018508501,15.5799493621291
0.0227568066874883,15.581509033237
0.0215935126430304,15.5829367809237
0.0202928719560565,15.5843550927023
0.0188631854592073,15.5858176315125
0.0173137119699705,15.5873616875533
0.0163552935054186,15.5883164364261
0.015422123442147,15.589271185299
0.0130893455134022,15.591865835982
0.0107765217886191,15.5948286969307
0.00895080495010516,15.5975611586018
0.00749394525091606,15.60009657817
0.00625206609449084,15.6026043408068
0.00516301923392484,15.6051652130571
0.00420447766717019,15.6078050808454
0.00335964163619842,15.6105471396814
0.0026814581364741,15.6131370734885
0.00212841909608727,15.6155976292074
0.00166751268950906,15.6179658693757
0.00127355563243647,15.6202877774933
0.000926076238093325,15.6226271535873
0.000604797059084953,15.6250979093117
0.000272319507454601,15.6280497703576
6.62928528294312e-05,15.6301288063265
-0.000120161789278373,15.6322078422953
-0.000271377679836839,15.6340518998864
-0.000399853546496914,15.6357430917417
-0.000517891384699462,15.6374073024519
-0.000633342601416373,15.6391455465669
-0.000754634466174856,15.6410977286266
-0.000900084194450526,15.6436199438118
-0.00113108982785115,15.6480562155234
-0.00131055084004751,15.6518893934481
-0.00145549334815625,15.6552432448271
-0.00160412491050165,15.658935025683
-0.00177957043648497,15.6636726182843
-0.00196064767839593,15.6692512720952
-0.00208240743037928,15.674103795022
-0.00214382884372675,15.6784960631106
-0.00213447272091619,15.6824390659285
-0.00204616747120765,15.6859908353764
-0.00187242144007617,15.6892094940744
-0.00160676463350793,15.6921644022859
-0.00124046874117617,15.6949250514084
-0.000759200022450784,15.6975641836077
-0.000134952275154669,15.7001749080483
0.000688067098683002,15.7028872020324
0.0018295637219133,15.7059220464038
0.00329455265649846,15.7091589671812
0.00511745479785918,15.7126097996113
0.00633856967193695,15.7146673491014
0.00768331447944988,15.7167248985914
0.00907340649984572,15.7186339307097
0.010520049097916,15.7204014329084
0.012040578696253,15.722041597865
0.0137096663457374,15.7236202033767
0.0155365730731883,15.7251254956914
0.0175692019760618,15.7265780846372
0.0198276979025017,15.7279732204623
0.0223506868771983,15.7293176864775
0.0251691652686636,15.7306116764682
0.0283179548713224,15.7318565080012
0.0318421986966454,15.7330561105404
0.0357897403422395,15.7342131449125
0.0402148224470953,15.7353302875115
0.0451829265189305,15.7364109850499
0.0507719007041239,15.7374589263362
0.057072901945374,15.7384776784889
0.0641952241791508,15.7394710099299
0.0722713548502275,15.7404429496773
0.081463773822274,15.7413978683288
0.0919772483883913,15.7423408448118
0.104072605705697,15.7432777142573
0.118092062002521,15.7442155879875
0.134500495843199,15.7451636038533
0.153960170028764,15.7461343224126
0.176766014781198,15.7471179270867
0.203219384677697,15.74810908986
0.234059483620181,15.7491200066538
0.270316517399484,15.7501690605352
0.313672466400083,15.7512905797997
0.34896679881224,15.7521355246511
0.38565052547639,15.7529804695026
0.418241976695451,15.7537291782878
0.446736336541926,15.7544089262377
0.471600515112381,15.7550531117113
0.492819693293531,15.7556859623222
0.509964887556961,15.7563296684315
0.522080025611757,15.7570111351893
0.527164418902732,15.7577743430639
0.522009649376271,15.7585824862354
0.505119450553092,15.7594155993232
0.47502569835163,15.7602889579848
0.429892575707149,15.7612132886269
0.381640492235398,15.7619951282683
0.337101733884325,15.7626191452801
0.288102389026342,15.7632431622919
0.244916924328042,15.7637625917344
0.207831173370214,15.7641992518916
0.17518002016653,15.7645853230608
0.145894684021741,15.7649399267571
0.11932442101365,15.7652749518333
0.0950170503782457,15.7655991115442
0.0725992906786918,15.7659202614396
0.0516755198070236,15.7662477709202
0.0316120921390236,15.7665982907466
0.0102516849327113,15.7670308412621
0.000665377697554786,15.7672542097897
-0.00798117123271288,15.7674775783172
-0.0144813767722011,15.767663112711
-0.0204547370283763,15.7678506072121
-0.0264426555305711,15.7680593664542
-0.0322063981093852,15.7682859407442
-0.0375942029208347,15.7685282587083
-0.0425222599383981,15.7687856231173
-0.0469473551055115,15.7690582509275
-0.0508507166264503,15.769347018606
-0.0542577856940567,15.7696571897615
-0.0570628833245005,15.7699803014071
-0.0593536445823652,15.7703249989205
-0.0611444117053718,15.7706943501375
-0.0624495769144073,15.7710920323065
-0.0632828064232227,15.7715225907053
-0.0636555154080447,15.7719916992806
-0.063575177743021,15.7725065506054
-0.0630430199465542,15.7730765863197
-0.0620483323062267,15.7737157233801
-0.0605648994514432,15.7744421898411
-0.0585394178176459,15.7752837114438
-0.0558604979841292,15.7762885639447
-0.0522388337293917,15.7775681477818
-0.0481886874611666,15.7789630807883
-0.044274199871836,15.7803124614555
-0.0405431758178126,15.7816208869459
-0.0370187982355521,15.7828906405853
-0.0337128009278366,15.7841225646732
-0.0306301346279577,15.7853167715589
-0.0277710989866831,15.7864730223474
-0.0251325188887639,15.7875909261133
-0.022708530993194,15.7886700422688
-0.0204911972170497,15.7897099283184
-0.0184710286436831,15.7907101550398
-0.0166374493223599,15.791670300964
-0.0149792086710248,15.7925899326821
-0.0134148672533807,15.7935109799173
-0.0119104480124974,15.794455661514
-0.0104703498661825,15.7954256373831
-0.00909849677990405,15.7964230544378
-0.00779861148952591,15.7974504345732
-0.00657416333504414,15.7985107693967
-0.005428316254673,15.7996076434905
-0.0043638745374315,15.800745400799
-0.00338322624068506,15.8019293745729
-0.00248828373174762,15.8031662140654
-0.00168042009879049,15.8044643642235
-0.000960398905892668,15.8058347986222
-0.000328292346381915,15.8072921958066
0.000216622176903048,15.8088569492023
0.000660104096516069,15.8104913106535
0.00100613132532396,15.8121750352671
0.00127065406645331,15.8139264854268
0.00146809051840605,15.8157677549286
0.00161201856508049,15.817728588536
0.00171561456185928,15.8198516112024
0.00179232834844499,15.8222034363141
0.00185724605172392,15.8249027748036
0.00193124430762073,15.8282181781762
0.00202894232577242,15.8319667449885
0.00215426523824777,15.8358435088662
0.00229920790862861,15.8396339520341
0.00246012149813925,15.8434086255683
0.00263354991541909,15.8472189160838
0.00281720054954183,15.8511042582899
0.00301017514652135,15.8550982767082
0.00321286411059532,15.8592321278567
0.00342673775228946,15.8635365484321
0.00365413611250253,15.8680433481042
0.00389813448555068,15.8727867808171
0.00416257198539991,15.877805003215
0.00445232639967294,15.8831414001908
0.00477158702334033,15.8888046595598
0.00509352237688034,15.8942567300306
0.00542912601649432,15.8996507529939
0.00577753547696175,15.9049248034704
0.00614340367683651,15.9101062564936
0.00653027729526489,15.9152007296928
0.0069423890528958,15.9202195203617
0.00738401592861657,15.925169217181
0.00785974211431579,15.9300543435547
0.00837451044508878,15.934877010275
0.00893376008392479,15.9396375550137
0.00954352849917749,15.9443347960433
0.0102105572678416,15.9489664244354
0.0109505497879347,15.953577804599
0.011784160882637,15.9582146160464
0.0127288581670846,15.9628773230402
0.0138102518873434,15.9675867178896
0.0150666904093047,15.9723890670369
0.016567346421564,15.977398747324
0.0184850685213849,15.9829617810522
0.0209618427668537,15.9892346685339
0.0225375016679209,15.9929217568582
0.024143071992497,15.9966088451826
0.0255433732131049,15.9999210626822
0.0267271025508972,16.0029739183025
0.0277037929165611,16.0059273080901
0.0284161771028248,16.0087318562292
0.0288616991025555,16.0114750077273
0.0290266683850109,16.0142858926279
0.0288521850693087,16.0173714475592
0.0280769971436819,16.0214422649184
0.0272295153973275,16.0242395239403
0.0261759175207664,16.0270367829621
0.0251064159246519,16.0295211923495
0.0240374441901569,16.0318152124642
0.0229663067153535,16.0340069728413
0.0218948353458605,16.0361415924386
0.0208265184537916,16.0382457358568
0.0197650873094716,16.0403373993501
0.0187141143033734,16.0424298780372
0.0176769046933914,16.044533672894
0.0166564765321881,16.0466575344855
0.0156555651843694,16.0488090974866
0.0146766360144205,16.0509952954887
0.0137218995258154,16.0532226498797
0.0127933205434841,16.0554974991861
0.0118926338094981,16.057826169675
0.011021351984902,16.060215138864
0.0101807736902795,16.0626711899653
0.00937200197641309,16.0652015351942
0.00857882470207749,16.0678739326855
0.00779808272236203,16.0707273254112
0.00703352430460846,16.0737833747112
0.00628906533515009,16.0770674447779
0.00556886401327012,16.0806089426811
0.0048772786598815,16.0844421343901
0.00421881177326314,16.0886071028126
0.00359799304989331,16.093151177899
0.00301916975403177,16.0981314598635
0.00248622428409164,16.1036193171118
0.00200223950516768,16.1097087503698
0.00157673071459947,16.1163982830521
0.00129893583035488,16.1218049007945
0.00108127849001231,16.1272115185368
0.00084518299789263,16.1349211673372
0.00065595572097198,16.1432512147312
0.000502896926666829,16.1524448785933
0.000385347052908323,16.1624448785933
0.000304832442596554,16.1724448785933
0.000250572172641583,16.1824448785933
0.00021471964473495,16.1924448785933
0.00019169011275892,16.2024448785933
0.000177623648413055,16.2124448785933
0.00016990460678965,16.2224448785933
0.000166775142502465,16.2324448785933
0.000167058856077235,16.2424448785933
0.000169977587141869,16.2524448785933
0.000175033287941313,16.2624448785933
0.00018193143109748,16.2724448785933
0.000190530923078322,16.2824448785933
0.0002008121389671,16.2924448785933
0.000212858550118368,16.3024448785933
0.000226849494239579,16.3124448785933
0.000243062988497649,16.3224448785933
0.00026188872864183,16.3324448785933
0.00028385287446952,16.3424448785933
0.000309658177070994,16.3524448785933
0.000340245906972257,16.3624448785934
0.000376890728009203,16.3724448785934
0.000421347715673485,16.3824448785934
0.000474974393987228,16.3922591933839
0.000536333784209505,16.4013367535672
0.000606307182355992,16.4097125040394
0.000686054104386063,16.4174404698248
0.000776917676989375,16.424571597477
0.000880425968854302,16.4311531936328
0.000998309477204175,16.4372291816507
0.0011325263503793,16.4428403555142
0.00128529268270114,16.448024605552
0.00145911723370838,16.4528171266165
0.00165684161584818,16.4572506179465
0.00188168820052445,16.4613554764602
0.00213731755767712,16.4651599812754
0.00242789829823378,16.4686904740921
0.0027581950351199,16.4719715438614
0.00313367981746673,16.4750262199802
0.0035606783410275,16.477876178
0.00404656629121155,16.4805419721628
0.00460004228064969,16.4830433151441
0.00523152280391316,16.4853994360736
0.00594668113657921,16.4876096893551
0.00673736103326826,16.4896471811231
0.00761395065629921,16.4915467283542
0.00859228839181275,16.4933436341409
0.00969751339158443,16.4950765098935
0.0109755123955858,16.4967975577245
0.0125754952966145,16.4986524620257
0.0150061610801046,16.5010599968597
0.0165752069193797,16.5024539402004
0.0182212713827402,16.503847883541
0.0197194805087794,16.5051026922064
0.021059329448618,16.5062581616334
0.0222589836867716,16.5073703447813
0.0233135717842,16.5084795580045
0.0242012648082399,16.5096257488179
0.0248794555947864,16.5108652945055
0.0252583669338579,16.5123159839807
0.0249869048292293,16.5144971169503
0.0242709291901349,16.5160070581089
0.0232213105504481,16.5175169992675
0.0220257706681997,16.5189221865366
0.0206878466430048,16.5203306934917
0.0192164051682692,16.5217916580218
0.0176200926014772,16.5233422054075
0.016576614543904,16.5243588923228
0.015569143907907,16.5253755792382
0.0131712232307733,16.5280143951838
0.0108274060333879,16.5309924890315
0.00898587286070832,16.5337301366143
0.00751954092973735,16.5362672333866
0.0062735481685301,16.5387699834671
0.00518151581856355,16.5413248718088
0.00422071874969391,16.5439579734382
0.00337417101662469,16.5466924200592
0.00262788504306188,16.5495521465354
0.00202152944151186,16.5523064635234
0.00153137260459649,16.5549191473625
0.00112416948460449,16.5574394953767
0.000777415344716014,16.5599108389771
0.000477117655122785,16.5623580183186
0.000214118954456916,16.5647921212319
-2.09938555102888e-05,16.5672477851205
-0.000242248244814269,16.5698458384325
-0.000488329252222545,16.5731191357516
-0.000621438880823341,16.5750799939416
-0.00074569923961496,16.5770408521316
-0.000851973059495028,16.5788217375008
-0.000947277542362854,16.5805017699871
-0.0010388794402337,16.5821905209428
-0.00113278476961129,16.5839958627744
-0.00123780934301731,16.5861009199819
-0.00138330848825907,16.5891578411246
-0.00155065914002663,16.5928563536855
-0.00168512237009285,16.5959554045437
-0.00181339975736295,16.5990105540927
-0.00195543966074293,16.6025097339244
-0.00212682030763385,16.6069383476673
-0.00232284821663317,16.612542217808
-0.00245632318345742,16.6174450804943
-0.00251953793937182,16.6218381257711
-0.0025010938266054,16.6257663027193
-0.00239308074070952,16.6293180136687
-0.00218833908676206,16.6325809465725
-0.00188090980981914,16.6356095908878
-0.00146640524671044,16.6384414576828
-0.000937812731533748,16.6411239140402
-0.000278046910999192,16.6437270147698
0.000558140105202332,16.6463734342263
0.00169797329237136,16.6493229096247
0.0031652863515472,16.6524963880606
0.00498410119389306,16.6558742845497
0.00631643068364256,16.6580786355886
0.00778532888218452,16.6602829866275
0.00922372435323475,16.6622225305996
0.0106966851648987,16.6639962238348
0.0122448341421063,16.66564861589
0.013927653983218,16.6672286483167
0.0157692538374919,16.6687394212918
0.0178121663784435,16.6701961396122
0.0200790732279819,16.6715957495743
0.0226082996807143,16.6729445324999
0.0254314825372901,16.674242840309
0.0285847485273545,16.6754923452641
0.032113419660354,16.676696803736
0.0360658635119132,16.6778588676283
0.040495792093692,16.6789809495694
0.0454715834078291,16.6800670806347
0.0510711345325946,16.6811207452999
0.0573868589219943,16.6821455707126
0.0645298990353853,16.6831454255458
0.0726347749541897,16.6841244003738
0.0818691890021308,16.6850872025766
0.0924440684172896,16.6860391529123
0.104630956611968,16.6869865245795
0.118790504094921,16.6879371203131
0.135421018128415,16.6889012230719
0.15525183004082,16.6898935263066
0.178281103164522,16.6908905275838
0.205041128137788,16.6918988877047
0.236330479203355,16.6929329245822
0.273305099514256,16.6940151452388
0.316616668563211,16.6951558767755
0.358399610479034,16.6961800125517
0.393127922196899,16.6970098566992
0.423076430565874,16.6977380139166
0.449264203411652,16.6984134099929
0.47189520766353,16.6990641833331
0.490741218020172,16.6997123602368
0.505160989270084,16.7003805962981
0.513867826493389,16.7010992101015
0.514175700339658,16.7019121343729
0.503510765038585,16.7027380737898
0.480689898316174,16.7035934193138
0.444137241784007,16.7044905659172
0.392055453727903,16.7054384863949
0.347720613405613,16.706105479858
0.29792787825572,16.7067724733212
0.253498417123613,16.7073259692823
0.215576788433737,16.7077836743422
0.182350789328868,16.7081834443029
0.152626760661407,16.7085475109932
0.125700299444593,16.7088891399553
0.10110010898882,16.7092175961869
0.078455514689505,16.7095407209978
0.0574040362420205,16.7098670439984
0.0374425673820209,16.7102097676334
0.0172986538888512,16.7106042505356
0.00882145751421476,16.7107909153633
0.00100413865717073,16.7109775801911
-0.00701832969376429,16.7111873306983
-0.0135652716332702,16.7113757172264
-0.01947180200272,16.7115624862402
-0.0254237951335492,16.7117712006873
-0.0311733059899274,16.7119982025508
-0.0365603862620969,16.7122412070346
-0.0414964714521158,16.712499388335
-0.045935536984641,16.7127728828811
-0.0498566074152761,16.7130625112349
-0.0534965321622078,16.7133956119632
-0.0562869138753324,16.7137211871777
-0.0585629047619342,16.7140681170906
-0.0603414127709303,16.7144397508385
-0.0616366498631216,16.7148397586274
-0.062462114467992,16.7152726683272
-0.0628291139326657,16.7157441250048
-0.0627451080328709,16.7162612733553
-0.0622114429065363,16.7168334880898
-0.0612177828354721,16.7174745506025
-0.0597387739963539,16.718202432974
-0.0577229989412686,16.7190443285826
-0.0550637898492046,16.7200471503091
-0.0514892703115801,16.7213169153264
-0.04746811288208,16.7227093597386
-0.0435837758275233,16.7240555956394
-0.0398838073782469,16.7253603624508
-0.0363910155468279,16.726626072173
-0.0331167682513379,16.7278536529547
-0.0300656595452139,16.7290432782925
-0.0272376545126852,16.7301947552394
-0.0246292786175369,16.7313077285063
-0.0222344138826541,16.7323817853294
-0.0200449178142189,16.7334165044352
-0.0180511490385741,16.7344114717093
-0.0162424298366037,16.735366274752
-0.0146074550891839,16.7362804829887
-0.013051176905087,16.7372047136622
-0.0115554949381983,16.7381527284651
-0.0101246589824923,16.7391263007758
-0.00876257108235963,16.7401276235861
-0.00747292399687598,16.7411592764394
-0.00625914984149259,16.7422243229963
-0.00512436781972661,16.7433264392094
-0.0040713297016909,16.7444700868365
-0.00310236289908494,16.745660754047
-0.00221931051752943,16.746905298654
-0.0014234669916732,16.7482124545404
-0.000715506517078231,16.7495936100639
-9.53988202129551e-05,16.751064066748
0.00043769881717885,16.7526452108317
0.00086673320912884,16.7542851827798
0.00120067788220524,16.7559770558668
0.0014551725106206,16.7577393076973
0.00164451091474813,16.759594877599
0.00178220108652092,16.7615748691945
0.00188142956265513,16.7637243065572
0.00195579640933794,16.7661145745333
0.00202087272604488,16.76887593093
0.00209931705527735,16.7723180000934
0.00220167130226686,16.776083780228
0.00233045652058285,16.7799175477569
0.00247927950505352,16.7836938425037
0.00264447489460901,16.7874742718075
0.00282271710898322,16.7913049714359
0.00301190869938112,16.7952228128014
0.00321137604683399,16.7992602177896
0.00342175933427981,16.8034479551551
0.00364480737513704,16.8078169279499
0.00388318261478407,16.8123995639788
0.00414036766328071,16.8172312201641
0.00442076439045364,16.8223515780471
0.00473008825475533,16.8278059891896
0.00505635792680014,16.8333163058552
0.00539174291526744,16.8387024623444
0.00574097678246995,16.8439998860938
0.00610617587514763,16.8491951819294
0.0064914771592871,16.8543027377654
0.00690094368724798,16.8593310464813
0.00733900074194079,16.8642883864083
0.00781029546287717,16.8691799693099
0.00831982684333602,16.8740086703751
0.0088730423730838,16.8787752508122
0.00947595620675388,16.8834788104252
0.0101352595706487,16.8881172108299
0.010864611090287,16.8927247221401
0.0116859876540181,16.8973591884256
0.0126159368809076,16.9020178945162
0.0136791255661511,16.9067200786637
0.0149117967331752,16.911507421923
0.0163776482445163,16.916482093356
0.018227622308596,16.9219411098124
0.0207028172037422,16.9282963942709
0.0222999091763871,16.9320588781221
0.0239382053914164,16.9358213619733
0.0253712575580278,16.9391868700056
0.0265830072581646,16.9422643570051
0.0275880960789947,16.9452232776439
0.0283372631477913,16.9480445785243
0.0288196657351928,16.9507889224217
0.0290252526962704,16.9535810785442
0.0289043534804956,16.9566086118374
0.0282565733749981,16.9604249802784
0.0274309241915166,16.9633377840469
0.0263709868325343,16.9662505878154
0.0252982564201257,16.9687896701321
0.0242292658859617,16.9711093976506
0.0231584371208348,16.9733149207254
0.0220868045098467,16.9754570474359
0.021017700996639,16.9775647364149
0.0199548579161737,16.9796571270227
0.0189018880945906,16.9817481598281
0.0178621476333667,16.9838487241584
0.0168387067943465,16.9859678092922
0.0158343513790335,16.9881131936676
0.014851595376065,16.9902918873381
0.0138926950194723,16.992510439346
0.0129596590724931,16.994775173842
0.0120542648051185,16.9970923643159
0.0111780639165919,16.9994684038312
0.0103323933817393,17.0019099511598
0.00951839121222327,17.0044240583834
0.00872334854621139,17.0070654412174
0.00794006161986902,17.0098842891163
0.00717228427631031,17.0129015335011
0.00642388816732649,17.0161418625672
0.00569899201384985,17.0196338754466
0.00500192340389119,17.0234108647539
0.00433716812680308,17.0275117289413
0.00370926347848871,17.0319823016195
0.00312261226452997,17.0368775716042
0.00258120649380188,17.0422657457353
0.00208829424114385,17.0482357715517
0.00165000951822922,17.0548443167959
0.00128008118222842,17.061935995003
0.000980381325842448,17.0697696616072
0.000785588680804865,17.07678701954
0.000601472081410144,17.0856155821574
0.00046242585600649,17.0948165327843
0.000355763811369272,17.1048165327843
0.000282783916463372,17.1148165327843
0.000233691570516216,17.1248165327843
0.000201350369025844,17.1348165327843
0.000180688358563806,17.1448165327843
0.000168207126868607,17.1548165327843
0.000161540136512268,17.1648165327843
0.000159099445861173,17.1748165327843
0.000159824787000554,17.1848165327843
0.000163018014649012,17.1948165327843
0.000168236586800804,17.2048165327843
0.000175224537740712,17.2148165327843
0.000183867423418878,17.2248165327843
0.000194163777019305,17.2348165327843
0.000206209065851678,17.2448165327843
0.000220189997038385,17.2548165327843
0.00023638825178227,17.2648165327843
0.00025519389032637,17.2748165327843
0.000277130051232837,17.2848165327843
0.000302892432235996,17.2948165327843
0.00033340981328797,17.3048165327843
0.000369936355747275,17.3148165327843
0.000414194082963249,17.3248165327843
0.000468071680023924,17.3347280271868
0.000529755205785593,17.3438962856972
0.000600103348593727,17.3523533489005
0.000680272509563616,17.360154195614
0.000771607361909855,17.3673507392055
0.000875639905580741,17.3739911358034
0.00099410602959824,17.3801200569624
0.00112897069453542,17.3857789610738
0.00128245841066575,17.3910063323959
0.00145708850387558,17.3958378983502
0.00165571549772033,17.4003068382509
0.00188157790701698,17.4044439849227
0.0021383562273489,17.4082780165517
0.00243024401505161,17.4118356425137
0.00276203729844749,17.4151417939561
0.00313924818616044,17.418219824051
0.00356825462740319,17.4210917212189
0.00405650178560526,17.4237783508776
0.00461278345095715,17.4262997485308
0.0052476514118745,17.4286754976886
0.00596581167313422,17.4309020056402
0.00676027049873194,17.4329563803268
0.00764192540914795,17.4348742146622
0.00862748823334788,17.4366918883791
0.00974394233482138,17.4384500978264
0.0110419618183955,17.4402060894868
0.0126939083545982,17.4421290705647
0.0145810384728658,17.4440421635569
0.0161664380999097,17.4455018304461
0.0178386162837144,17.4469614973354
0.0193333478142738,17.448246856912
0.0206652883351842,17.4494223147402
0.0218576188900486,17.4505493276947
0.0229072360637621,17.4516694397851
0.0237939258652751,17.4528222860894
0.0244778381697911,17.4540618627789
0.0248770425717551,17.4554958875668
0.0247040290482117,17.4575555945976
0.0240441516267039,17.4591115149364
0.0230237954732567,17.4606674352751
0.0218583162540892,17.4620893327696
0.0205530724272519,17.463501599441
0.0191162577413395,17.4649584083014
0.0175571081293105,17.4664972020331
0.0165855171604126,17.4674553958137
0.0156374947907214,17.4684135895943
0.0136619385773742,17.4705598143944
0.0112544590506224,17.4735341043429
0.00932475542589739,17.4763194236992
0.00779465381171664,17.4788916075273
0.0065139523891313,17.481390422479
0.00539283570683947,17.4839350119397
0.00440670101514296,17.4865532055771
0.00353783415246677,17.4892682368503
0.00279165998834951,17.4920237646539
0.00219366406372096,17.4946215877392
0.00170497357573209,17.4970922232704
0.00129584664393225,17.4994773392555
0.000944454747564187,17.5018228497521
0.000634217222396873,17.5041824335401
0.000350414920638433,17.5066370766912
7.09364709359163e-05,17.5093968656974
-0.000137543969570485,17.5117240039159
-0.000325300380478547,17.5140511421345
-0.000468626565492413,17.515994743516
-0.000586816683772491,17.5177170902523
-0.000694181080308009,17.5193819425546
-0.000798370197408386,17.5210935565814
-0.000906519840322653,17.5229741411862
-0.00103158550690105,17.5252843924149
-0.00125842871502562,17.5298476404689
-0.00145498144623808,17.5341887164324
-0.00161025703996114,17.5378695900816
-0.00176434095500215,17.5417481677089
-0.00194843221231719,17.5467371301869
-0.00212527174565673,17.5522048655656
-0.00224236109740986,17.5570013687242
-0.00229409824477799,17.5613213254789
-0.00226975640169478,17.5651947748543
-0.00216155866835666,17.568682346413
-0.00196315305839283,17.571858000984
-0.0016679320134047,17.5747912424822
-0.00126724728305069,17.5775462242607
-0.000747867320429175,17.580185747987
-8.42325564330715e-05,17.5827916433192
0.000786075191281853,17.5855138589971
0.0019835901041856,17.5885628752225
0.00350921235483539,17.5918145923989
0.00538457758382961,17.5952552449536
0.00663348972399522,17.5972970342864
0.00800949126338003,17.5993388236193
0.00944442887501317,17.6012485898605
0.0108865494957012,17.6029562070203
0.0124474654434964,17.6045896186462
0.0141582104792445,17.6061586573774
0.0160293298522316,17.6076535497126
0.0181112796213376,17.6090962700867
0.0204234920044533,17.6104814620434
0.0230060613944573,17.6118163702325
0.0258923965167837,17.6131019687046
0.0291157039677533,17.614338444439
0.0327238916552181,17.6155303919096
0.0367665051833573,17.6166805245827
0.041301121249532,17.6177918724867
0.0463930885622921,17.6188672712176
0.052124368715897,17.6199107312985
0.0585900216738454,17.6209258883626
0.0659043191249921,17.6219165917858
0.0742064428041748,17.62288700109
0.0836678192127881,17.6238416544368
0.0945054782088338,17.6247858509744
0.106998503353181,17.6257258069611
0.121516819216463,17.6266692145282
0.138570307948028,17.6276261739511
0.158901131285587,17.6286109881173
0.182494252158574,17.6295998684998
0.209901170717168,17.6305998059866
0.241929546871412,17.6316246772327
0.27974549378038,17.6326964096869
0.324285631933926,17.6338322046518
0.366524091283173,17.6348356348004
0.40143189329726,17.6356458151229
0.431499705725,17.6363575673235
0.457786517562273,17.6370194736855
0.480494452687458,17.6376594141041
0.499375943093722,17.638299574829
0.513745085880368,17.6389635099003
0.52220146940905,17.6396842915208
0.521858804081905,17.6404904904573
0.5103423400561,17.6413128715918
0.486406420918674,17.6421681079281
0.448386508083001,17.6430687113953
0.394389691066576,17.6440234655653
0.349338643854884,17.6446850556582
0.29894329805073,17.6453466457512
0.25410439307066,17.6458956668518
0.215883247615416,17.6463499718957
0.182425247616217,17.6467469886295
0.152513775765321,17.6471087342133
0.125430711877866,17.6474483744649
0.100695190348803,17.6477751372224
0.0779280229017748,17.6480968856705
0.0567555408925235,17.6484222805225
0.0366494771922622,17.6487650125722
0.016215327596924,17.6491633264174
0.00820449545807778,17.6493389208739
0.000787558487026904,17.6495145153304
-0.00708506646412436,17.6497179141645
-0.013652998637974,17.6499044046377
-0.0195851381546143,17.6500894295623
-0.0255705193198707,17.6502963822568
-0.0313573453765134,17.650521585643
-0.0367830539849795,17.6507627398573
-0.0417574515522047,17.6510190036757
-0.0462335306471842,17.6512904983779
-0.0501902035160323,17.6515780292898
-0.0536570846659705,17.6518872839215
-0.0565149782321304,17.6522088180473
-0.0588579546374703,17.6525516535166
-0.0607001615006999,17.652918793567
-0.062055909498891,17.6533138271161
-0.0629389665808202,17.6537411857002
-0.0633610432034393,17.6542063915913
-0.0633301427753051,17.6547164275445
-0.0628484978696902,17.6552803101396
-0.0619069798625141,17.6559115306377
-0.0604817468015925,17.6566275215157
-0.0585240647218131,17.6574544393044
-0.0559333802287449,17.6584368112839
-0.0524599840514356,17.659672228302
-0.0484075790618992,17.6610725030402
-0.0444839933347061,17.6624258843437
-0.0407403769348472,17.6637377280532
-0.0372016345454872,17.6650106023152
-0.0338803875229947,17.6662454994088
-0.0307821172745068,17.667442611887
-0.0279074803110298,17.6686017436883
-0.0252535597467815,17.6697225264338
-0.0228146849751289,17.6708045311193
-0.0205830613068585,17.6718473211888
-0.0185493027379268,17.6728504708987
-0.0167029017418623,17.6738135618083
-0.0150326464478134,17.6747361644433
-0.0134644792000898,17.6756555824483
-0.011955863845591,17.6765985518022
-0.0105112821955258,17.6775666726216
-0.00913467096476054,17.6785620685302
-0.00782976954474743,17.6795872319918
-0.00660006744976581,17.6806451176222
-0.0054487525034319,17.681739262942
-0.00437865677550127,17.6828739511252
-0.0033922001928482,17.6840544355033
-0.0024913313340766,17.6852872578507
-0.00167746421608325,17.6865807145315
-0.000951408666147464,17.687945566518
-0.000313289571131121,17.6893961745183
0.000237554450112816,17.6909524287274
0.000688475809715874,17.6925839973592
0.0010407002068729,17.6942635943475
0.00131035630713066,17.6960095465121
0.0015119368615479,17.697843521424
0.00165906916646981,17.6997945840815
0.00176494325772421,17.7019041699235
0.00184296274992955,17.7042365609246
0.00190802825445299,17.7069049706576
0.00198030961488557,17.7101594860075
0.00207639494888957,17.7139017202323
0.00220009618701342,17.71777794168
0.00234389619277283,17.7215678180058
0.00250425017069058,17.7253418096939
0.00267764748899597,17.7291513138576
0.00286169648779466,17.7330357670509
0.00305540786895262,17.7370287896389
0.00325910920601901,17.7411615231575
0.00347424259182329,17.7454646861534
0.0037031545708413,17.7499700635922
0.00394895932630232,17.7547118752247
0.00421556475691192,17.7597282291127
0.00450794724650329,17.7650624412103
0.00482900249284706,17.7706987138578
0.00515352715700674,17.7761338381067
0.00549196630009733,17.7815091775801
0.00584372002382387,17.7867674555415
0.00621339850270794,17.7919343189263
0.00660462171141158,17.7970155098389
0.00702167543038614,17.8020218516818
0.00746891833076427,17.8069597056536
0.00795102761746182,17.8118333427895
0.00847305347042602,17.8166446461631
0.00904055322690694,17.8213937192184
0.00965969530321738,17.8260791783149
0.0103373693944454,17.8306985970292
0.01109278088602,17.83531575043
0.0119442696676011,17.8399560360188
0.0129108305635017,17.8446250974331
0.0140196416569811,17.8493463646022
0.0153126134706751,17.8541738595409
0.0168686022794891,17.8592435403798
0.0189034501101225,17.8649976317712
0.0207900209244872,17.8697396516359
0.0223996584869305,17.8735216484485
0.0240466305210632,17.8773036452612
0.0254638251854791,17.8806441290209
0.0266606327062509,17.8837082480998
0.0276505708488706,17.8866639376208
0.028380072254396,17.8894760181075
0.0288428044575734,17.8922194517643
0.0290268102042231,17.8950212048702
0.0288776833593787,17.8980786492194
0.0281655609847139,17.9020210763089
0.0273285368276008,17.9048717074227
0.0262724107806456,17.9077223385366
0.0252015555244737,17.9102326061768
0.0241326118945424,17.9125390137588
0.0230616152705745,17.9147374636677
0.0219900378489631,17.916875749078
0.020921298441261,17.9189816329856
0.0198591300090024,17.9210736651117
0.0188071253654039,17.9231654553811
0.0177686152126144,17.9252676951187
0.0167466428462276,17.9273892544657
0.015743969011047,17.9295378396855
0.0147630825336456,17.9317204257166
0.0138062161525754,17.9339435517266
0.012875357331227,17.9362135511391
0.0119722593221101,17.9385367357538
0.011098455754097,17.9409195440583
0.0102552641758283,17.9433687061323
0.0094438039155384,17.9458913685678
0.00864969155975968,17.9485484748173
0.00786767706140155,17.9513848406197
0.0071015128289001,17.9544217624456
0.0063550927707849,17.9576842722605
0.00563255467376382,17.9612013846915
0.00493824356620845,17.9650068788977
0.00427665282275491,17.9691402615435
0.00365231644481954,17.9736481266991
0.00306961020181809,17.9785865299288
0.00253247186539793,17.9840252678913
0.0020440661836775,17.9900558296294
0.0016122910543244,17.9967052176134
0.00133144327247871,18.0020497792246
0.001107393595628,18.0073943408357
0.000880819868768423,18.0144876886153
0.00068343210808563,18.0227394707557
0.000524069736158376,18.0318101077478
0.000399462309937686,18.0418101077478
0.000313867811529981,18.0518101077478
0.000255978068905033,18.0618101077478
0.000217561180140026,18.0718101077478
0.000192723424952264,18.0818101077478
0.000177367966670751,18.0918101077478
0.000168709796617912,18.1018101077478
0.000164875450711683,18.1118101077478
0.00016461037171568,18.1218101077478
0.000167082465204556,18.1318101077478
0.000171755069495601,18.1418101077478
0.000178304799140796,18.1518101077478
0.000186567871320667,18.1618101077479
0.000196505577284154,18.1718101077479
0.000208183849167297,18.1818101077479
0.000221764184210775,18.1918101077479
0.00023750460685169,18.2018101077479
0.000255770566605998,18.2118101077479
0.000277057044285467,18.2218101077479
0.000302024940913457,18.2318101077479
0.000331557448291517,18.2418101077479
0.000366846269071548,18.2518101077479
0.000409524630953142,18.2618101077479
0.000461868023905693,18.2718085915485
0.000521821937620939,18.281062273755
0.000590205048943477,18.2895997535414
0.000668140653202883,18.2974759888866
0.000756938631788815,18.3047430291087
0.000858092374074247,18.311449187171
0.000973293805540395,18.3176393013058
0.00110445767313036,18.32335500164
0.00125375101582061,18.328634946415
0.0014236274122217,18.3335150356668
0.00161686575566753,18.3380286159405
0.00183661721797313,18.3422066779768
0.00208646044854095,18.3460780457303
0.00237046949656856,18.349669558861
0.00269329817746402,18.3530062582833
0.0030602870584941,18.3561115800983
0.00347760344817976,18.3590075608575
0.00395242792035884,18.3617150667594
0.00449321279927298,18.3642540670352
0.00511005379685375,18.3666439801819
0.00581290132580301,18.3688972912512
0.00658997707067731,18.3709712539409
0.00745103055569701,18.3729009878334
0.00841101753356496,18.3747221231275
0.00949334613614769,18.3764727889165
0.0107397772528781,18.3782027202404
0.0122719325086313,18.3800333689638
0.014559558942804,18.382369761697
0.0161414985874615,18.3838117566596
0.0178150269157648,18.3852537516221
0.0193422979594646,18.3865447226186
0.0207030040291003,18.3877197847128
0.0219223787251366,18.3888418394594
0.0229995095645482,18.3899532728137
0.0239158517831129,18.3910930817553
0.0246339683671004,18.3923125604639
0.0250783902785333,18.3937097142468
0.0250102672455221,18.3956348674748
0.0244053026331041,18.3972284324759
0.0233997457190298,18.398821997477
0.0222477181180828,18.4002470991907
0.0209542290972514,18.4016516297487
0.0195257926440335,18.4030960141646
0.0179717515096029,18.4046185919422
0.0169310045901484,18.4056346763745
0.0159110554546385,18.4066507608068
0.0148401099189891,18.4077692066098
0.012424457138361,18.4105424932351
0.0102482795116228,18.4134403741818
0.00853174540215492,18.416109721394
0.00715124622373198,18.4186034602759
0.00595185005252923,18.4211181808537
0.00489869876361328,18.4236937605085
0.00397153198370626,18.4263541744898
0.00315437420600028,18.4291226070674
0.00245377521929143,18.4319363059744
0.00189384306677995,18.4345882407252
0.00143609770963905,18.4371157632255
0.00105186396389708,18.4395658423056
0.000721632836206066,18.4419794368041
0.000432381675152727,18.4443879336776
0.000173877114243302,18.4468278719333
-6.68795010837912e-05,18.4493965703634
-0.000321810727264576,18.452490331758
-0.000472453497856177,18.4545281183994
-0.000611697022847941,18.4565659050409
-0.000728313957428135,18.4583943833552
-0.000830274372679183,18.4600881516779
-0.000926332375589756,18.4617670617552
-0.0010227808792337,18.4635347388585
-0.00112742181357659,18.4655448385378
-0.00126034732881355,18.4682330367779
-0.00146618597263686,18.4726735932435
-0.001628455952154,18.4763953489764
-0.00176757348101999,18.4797326849495
-0.001917086513242,18.4834764723047
-0.00209950175214144,18.4883308061721
-0.00228126246102206,18.4938203069166
-0.00239873542897015,18.4986005414293
-0.00244572389015971,18.5028941464853
-0.002411358120881,18.5067377961759
-0.00228815281109964,18.5102122998028
-0.00206955506638732,18.5133977199213
-0.00174881833778937,18.5163595774043
-0.00131945492055962,18.5191431074951
-0.00077100816835899,18.5218014780479
-7.78230406327479e-05,18.524421938088
0.000814518786774046,18.5271308362735
0.0020417891848551,18.5301818052393
0.00359172869693272,18.5334179752825
0.00548555719670941,18.5368279950523
0.0067551265525699,18.538867510217
0.00815232113418921,18.5409070253817
0.00957880198601199,18.5427771696673
0.0110875157962951,18.5445382675821
0.0126613761775792,18.5461608655681
0.0143881745768857,18.5477231831962
0.0162797250487107,18.5492153718166
0.0183820616307288,18.5506548612447
0.0207184819960926,18.5520386269989
0.0233257559857821,18.5533714885247
0.0262390587551722,18.5546552786356
0.0294924331729507,18.555890333439
0.0331342849122748,18.5570811579171
0.0372150291644804,18.5582305039978
0.0417932349341227,18.5593414238249
0.0469355374521824,18.5604167971069
0.0527253917177596,18.5614606513947
0.059259877901875,18.5624766753652
0.066655941557906,18.5634687895798
0.0750564334716607,18.5644412552749
0.0846379991962058,18.5653987598198
0.0956252259523941,18.5663468101856
0.108308981577766,18.5672919567765
0.123078216157674,18.5682424156826
0.14047592987819,18.569209179351
0.161170846925597,18.5702021070569
0.18514078086412,18.5711982016209
0.213022947121845,18.5722082834696
0.245678290107274,18.5732478102285
0.2843907583344,18.5743421774146
0.329024222965201,18.5754836771011
0.369072288181366,18.5764467294958
0.402624653260883,18.5772418821506
0.431727367403064,18.5779504908551
0.457156720553821,18.5786144622163
0.479003727207711,18.5792597215448
0.496948502330219,18.579908021319
0.510222186421755,18.5805833118696
0.51728024146825,18.581320175284
0.515143204405641,18.5821325035279
0.501756428765326,18.5829625123409
0.475826201763619,18.5838259512032
0.435684957742188,18.584734331138
0.379484508192989,18.5856964478347
0.336059303120549,18.586321876417
0.288102785504953,18.5869473049994
0.245256220470844,18.5874732360928
0.208381700977931,18.5879150856389
0.175897457253084,18.5883051469722
0.146749991497348,18.5886629327951
0.120296831155887,18.5890005363488
0.0960934118825475,18.5893267440491
0.0737758712412968,18.5896493619156
0.0529656272066114,18.5899774779157
0.0330790355151375,18.5903266213508
0.0123038367527068,18.5907471258553
0.00155406363256781,18.5909976171877
-0.00576778521039445,18.5911861456797
-0.0124578724129603,18.5913746741717
-0.0183152668557351,18.5915557095745
-0.0242887353744943,18.5917597673042
-0.0301056530464323,18.5919828080694
-0.0355857657461476,18.5922221574233
-0.040628431574108,18.5924767396349
-0.0451804632492712,18.5927465225144
-0.0492170174593558,18.5930321995433
-0.0527590315751653,18.593338599816
-0.0556989503241204,18.5936576664438
-0.0581232965423151,18.5939976247929
-0.0600456716653075,18.5943613613031
-0.0614802163973308,18.5947523321017
-0.0624408151897376,18.5951747991826
-0.0629395884142773,18.5956340601753
-0.0629852963424299,18.5961367892257
-0.0625813974473519,18.59669156082
-0.0617213145406002,18.5973109154698
-0.0603845045853975,18.5980113212415
-0.0585285025201998,18.5988167740342
-0.0560669888369786,18.5997668592856
-0.0527975700714141,18.6009426187409
-0.0487427984826623,18.602351406088
-0.044806865781605,18.6037107534756
-0.0410453734524662,18.6050276200085
-0.0374859790764449,18.6063050328101
-0.0341426946821197,18.6075442242434
-0.0310218156232256,18.608745515449
-0.0281245366581093,18.6099087793829
-0.0254483259783987,18.6110336843607
-0.0229877986907259,18.6121198205359
-0.0207353722659794,18.6131667613506
-0.0186818132985459,18.614174086875
-0.0168167164610009,18.6151413834135
-0.0151289287979895,18.6160682272452
-0.0135550285849166,18.6169853219725
-0.0120401415810436,18.6179258509841
-0.0105888696245817,18.6188913288125
-0.00920516707709643,18.6198838463052
-0.00789279648344426,18.6209058545015
-0.00665527543915586,18.6219602559892
-0.00549582503945267,18.6230505221637
-0.00441731604220153,18.6241808509244
-0.00342221271827872,18.6253563836453
-0.0025125139408619,18.6265835118495
-0.00168969040513173,18.6278703247269
-0.000954615717570432,18.6292272877865
-0.000307486931148925,18.630668321897
0.000252274313213702,18.6322126247847
0.000714379615009197,18.6338403407367
0.00107599365188162,18.63551419395
0.00135351496203145,18.6372524863993
0.00156154955588179,18.6390762990848
0.0017138041413004,18.6410137685349
0.00182350061939144,18.6431047180055
0.00190399703903293,18.6454103071307
0.00196997360711163,18.6480365359896
0.00204075244910287,18.6512102820943
0.00213545575125366,18.6549464877317
0.00225726971131257,18.6588126789024
0.00239992591862997,18.662598883254
0.00256009520431322,18.6663733761303
0.00273420048920324,18.6701863855664
0.0029196978195586,18.6740767816791
0.00311545274394029,18.6780779155968
0.00332169343853692,18.6822208211343
0.00353982106184978,18.6865362274931
0.00377220093568554,18.6910560182352
0.00402202595308214,18.6958146043901
0.00429334623912005,18.7008503629643
0.00459135825129869,18.7062069524004
0.00491508181440856,18.7117982224448
0.00524393839622032,18.717211273767
0.00558682728860714,18.7225570360374
0.00594390991359172,18.7277908985389
0.00631967211310252,18.7329349044188
0.00671788574945973,18.7379955399422
0.00714290535174699,18.7429827509299
0.00759920989535947,18.7479025002353
0.00809161098836432,18.752758583454
0.00862531903509643,18.7575524858005
0.00920607133867436,18.7622839318458
0.00984023839291886,18.7669512301293
0.0105349424487778,18.7715518063059
0.0113150546095157,18.7761778542576
0.0121952714404962,18.7808240890545
0.0131970935727699,18.7855042137285
0.0143505345152902,18.7902468307385
0.0157041684040152,18.7951206076827
0.0173564830696948,18.8003053207109
0.0196302350823777,18.8064826637709
0.0213666468564057,18.8107197189806
0.0231961610457623,18.8149567741903
0.0247578858857851,18.8185637050557
0.0260661424145759,18.8217481975954
0.0271639068928191,18.8247427616787
0.0280348373647283,18.8276361280415
0.0286363702354216,18.8304009787358
0.0289687292705306,18.8331545142844
0.0290042429153025,18.8360445115654
0.0286424432151283,18.8393737031119
0.0278751173340774,18.8427196916855
0.0267655774827309,18.8460656802591
0.0256744156614851,18.848765897221
0.0246037125284186,18.8511496718332
0.0235335505069835,18.8533879132022
0.0224618620995668,18.8555483054338
0.0213914342364477,18.8576656044795
0.0203259505109057,18.8597616625349
0.0192690906329233,18.8618519227362
0.0182243072488534,18.8639481806568
0.0171947710988936,18.8660600002365
0.0161833659686018,18.8681955298671
0.0151926999135909,18.8703620128675
0.0142251165921595,18.8725661399308
0.0132827106094718,18.87481429787
0.0123673386713701,18.8771127695145
0.0114806279400507,18.8794679071716
0.0106239926358589,18.881886266539
0.00979863623339577,18.8843747724902
0.00900034543009768,18.8869583886137
0.00821248879923745,18.8897130256303
0.00743884417288241,18.8926582350976
0.00668319346759428,18.8958174852303
0.00594957001366342,18.8992179373414
0.00524223412772802,18.9028911446496
0.00456562442858272,18.9068739271478
0.00392427476154364,18.9112095191471
0.00332266319930199,18.9159493682293
0.00276495996412928,18.921156454405
0.00225471082299964,18.9269113462665
0.0017945637359355,18.9333224953282
0.00140153829695203,18.9402356928472
0.00108111290327746,18.9476909771313
0.000819425695261126,18.9562800594018
0.000647243884220562,18.9640456779341
0.000493248090722847,18.973421912197
0.000377569396415913,18.983421912197
0.000298169071185873,18.993421912197
0.000244560216216909,19.003421912197
0.000209086062517719,19.013421912197
0.000186263634313797,19.023421912197
0.000172286351112691,19.033421912197
0.000164570720801832,19.043421912197
0.000161381657631754,19.053421912197
0.000161559585504651,19.063421912197
0.000164338069022089,19.073421912197
0.000169226295813913,19.083421912197
0.000175933230365209,19.093421912197
0.000184318182524999,19.103421912197
0.000194359208668611,19.113421912197
0.000206134756441159,19.123421912197
0.000219816098983279,19.133421912197
0.000235669430563265,19.143421912197
0.000254067665782786,19.153421912197
0.000275513335239713,19.163421912197
0.000300675765322484,19.173421912197
0.000330448366936837,19.183421912197
0.000366036068552538,19.193421912197
0.000409090096713943,19.203421912197
0.00046187638190485,19.2134143268333
0.000522338779363253,19.222661177178
0.000591302670967114,19.2311914760992
0.000669899503543516,19.2390603628613
0.000759448552318563,19.2463200272554
0.000861454045041839,19.2530188951428
0.000977620429899403,19.2592018960167
0.00110987689168302,19.2649107342165
0.00126040710907568,19.2701841284932
0.00143168387029002,19.2750580283201
0.00162650828846979,19.2795658213208
0.00184805740845119,19.2837385335494
0.00209994020810414,19.2876050206751
0.0023862665762154,19.2911921523447
0.00271173321142376,19.294525000084
0.00308173269872646,19.2976270341191
0.00350249662051239,19.3005203320309
0.00398128672595579,19.3032258127168
0.00452666070369726,19.3057635170409
0.00514885580813969,19.3081529654226
0.00585626485679444,19.3104017634362
0.00663856415393177,19.3124732364718
0.00750588066727946,19.314402749207
0.00847375058143681,19.3162262747575
0.00956675377506927,19.3179828856185
0.0108295186617715,19.3197248678682
0.0123989267602982,19.3215884038425
0.0147728678263039,19.3239971399852
0.016331389491425,19.3254138401335
0.0179696781343887,19.3268305402817
0.0194609464236832,19.3281035142398
0.0207930151007635,19.329272205714
0.0219854955482852,19.3303946440128
0.0230344386692523,19.3315118216317
0.0239189519708583,19.3326635269931
0.0245980685419043,19.3339047733473
0.024986733569525,19.3353474145627
0.0247709130131189,19.337464681801
0.0240867229245859,19.3390012761373
0.0230549013490405,19.3405378704737
0.0218779641619206,19.3419536009662
0.0205605602854354,19.3433652016919
0.0191112615676351,19.344824504814
0.0175391020405977,19.3463687325511
0.0165574698736787,19.3473336625457
0.0156030410787133,19.3482985925404
0.0132385256536002,19.3508983055042
0.0108845178812514,19.353881372976
0.00903212162912274,19.3566267516406
0.00755789217555909,19.3591693748126
0.00630723907596042,19.3616729705717
0.00521113660880944,19.364227925024
0.00424667379984588,19.3668605442689
0.00339680084770432,19.3695939924632
0.00266444036244685,19.3723818033248
0.00207894644192725,19.3750077149079
0.0016010891482911,19.3775046468932
0.00120117553625906,19.3799162703361
0.00085803183982764,19.3822867650665
0.00055638250024876,19.3846609544394
0.000283701707939282,19.3870977939061
2.37328501264288e-05,19.3897365392018
-0.000209686322763708,19.3924229717798
-0.000367138626501324,19.3944331824516
-0.000512154147824721,19.3964433931234
-0.000632046947456975,19.3982302421817
-0.00073792771628508,19.3999081825751
-0.00083835771623351,19.4015900886169
-0.000939865537334324,19.4033819487663
-0.00105140435907231,19.4054589737043
-0.00120041684242333,19.4084098867857
-0.00137883495725362,19.412200810336
-0.00151846956784796,19.4153564391914
-0.00164764058629025,19.4184182056937
-0.00178820758153672,19.4219080352354
-0.00195585574618786,19.4263183266322
-0.00215269578190178,19.4320666503835
-0.00228564972991859,19.4369820028149
-0.00235473330774743,19.4414213042046
-0.00234792364724432,19.4453944902742
-0.00225701918223368,19.4489662995092
-0.00207546357260661,19.4522154758184
-0.00179673294457519,19.4552135396537
-0.00141334863286538,19.4580202823544
-0.000914870743166591,19.4606916774998
-0.000281825379302439,19.4632978004668
0.000533509586900685,19.4659634291823
0.00166540939046259,19.4689628350876
0.00311146977418773,19.4721490203443
0.00491418328019437,19.4755526531212
0.00621220483990172,19.4777341905581
0.00764310042968385,19.4799157279949
0.00904666268319995,19.4818383207683
0.0105018947585701,19.4836175488178
0.012026096343924,19.4852678344268
0.013689355388524,19.4868508937193
0.0155101527828587,19.4883639048406
0.0175319941811001,19.4898233048201
0.0197763255695753,19.4912252432429
0.0222814549853346,19.4925762917455
0.0250767388901254,19.493875913716
0.0282004825305755,19.4951270578959
0.0316959665732356,19.4963328092094
0.0356107286751577,19.4974957948338
0.0399973280084429,19.4986183599579
0.0449233744737911,19.4997046310761
0.050465102174149,19.5007580123272
0.05671299248782,19.5017820818056
0.0637756358688996,19.5027806401064
0.0717838673901169,19.5037576559333
0.0809007918777434,19.5047177367441
0.091330086147404,19.505665984834
0.103332435193781,19.506608364876
0.117251106072079,19.5075521936467
0.13355459999198,19.5085069368082
0.15291648690471,19.5094857998225
0.175563465558269,19.5104758466089
0.201846359487369,19.5114744498753
0.232514639575993,19.5124944509939
0.268623076975959,19.5135553602343
0.311858361298112,19.5146924348295
0.346624641079337,19.5155402896215
0.382679242568924,19.5163881444135
0.414758071221952,19.5171420331506
0.442832186548806,19.5178284471665
0.467305146864807,19.5184796940873
0.488132483494275,19.5191195909165
0.504869298610954,19.5197700906604
0.516550678293172,19.5204576796621
0.521188304483689,19.5212249266808
0.51565112209404,19.522038302004
0.498445058550682,19.5228755627415
0.468124237921301,19.5237514628541
0.422907182585455,19.5246763597563
0.375651285487731,19.5254438491939
0.320478762585519,19.5262113386315
0.281830146470069,19.5267018970016
0.241383617682668,19.5271924553716
0.205063681696428,19.5276245491909
0.172869542739108,19.5280094387092
0.143939879875997,19.5283638009889
0.117664953919823,19.5286990997439
0.0936093521563674,19.5290239173926
0.0714086009188276,19.5293460912836
0.0506698986337168,19.5296751047734
0.0307492789737285,19.5300281287195
0.00935791217551092,19.5304684419596
0.000235409920187325,19.5306845526898
-0.00802147864261859,19.53090066342
-0.014469837757187,19.5310867790438
-0.020425224257626,19.5312758418625
-0.0263867331379653,19.5314861485337
-0.0321188906344849,19.5317142600555
-0.0374728584662651,19.5319581377774
-0.0423666286599222,19.532217110168
-0.0467580694732713,19.5324914151962
-0.0506289240200232,19.5327819481842
-0.0542062582309873,19.5331154548002
-0.05694651646377,19.5334422676476
-0.0591726111468398,19.533790725223
-0.060901566038606,19.5341642394758
-0.062147692407078,19.5345665740059
-0.0629243981019194,19.5350023780961
-0.063242692116379,19.535477460162
-0.063109477716936,19.5359991929563
-0.0625249676567165,19.5365774376819
-0.0614771695720515,19.5372263982872
-0.0599380439691064,19.537964967445
-0.0578509148006532,19.5388221344601
-0.0550962891232979,19.5398492253848
-0.0513527320436037,19.541169503992
-0.0473303626904415,19.5425570119213
-0.0434517905558688,19.5438995546815
-0.0397608511925173,19.5452012961805
-0.0362787261219358,19.5464643439398
-0.0330159587677771,19.5476894611857
-0.029976664241692,19.5488767304926
-0.0271604975566962,19.5500259080484
-0.0245637683159561,19.5511366098143
-0.022180202825123,19.5522084065783
-0.0200015461349005,19.5532408673281
-0.0180180782680458,19.5542335715923
-0.0162190707365901,19.5551861019187
-0.0145931909531837,19.5560980226092
-0.013039919948252,19.5570234668716
-0.0115475252097802,19.5579727617951
-0.0101201952047323,19.5589477255552
-0.00876182173803519,19.559950569042
-0.00747608459290469,19.5609838945416
-0.00626640043435259,19.5620507944498
-0.00513587040191827,19.563154981452
-0.00408722546747511,19.5643009649649
-0.00312276938535344,19.5654942961497
-0.00224431859197356,19.5667419180119
-0.00145313761487414,19.568052682991
-0.000749867120281001,19.5694381504606
-0.000134438975705597,19.5709138802456
0.00039403313355024,19.5725016731382
0.000817402118468028,19.5741438968
0.00114658528711032,19.575839053276
0.00139709577081183,19.5776056770684
0.00158316942161049,19.5794670580059
0.00171827473613453,19.5814548687104
0.00181558495309055,19.5836151482156
0.00188873293421554,19.5860213302228
0.00195344012778945,19.5888087582537
0.00203303589323521,19.5923061914281
0.00213617021550404,19.5960805753264
0.00226555396181347,19.5999178764668
0.00241444224101851,19.6036955367043
0.00257909669239928,19.6074759444455
0.00275623451633736,19.6113056041724
0.00294382856009925,19.6152215720348
0.00314125979518013,19.6192563622846
0.00334919004219789,19.6234407872007
0.003569350519826,19.6278057561777
0.00380434485171154,19.6323836773598
0.00405755292686717,19.6372098629894
0.00433322396934788,19.6423239390767
0.00463685645492824,19.6477711989774
0.00495968389104521,19.653326864944
0.00529005491589568,19.6587393448739
0.00563391445216996,19.6640668131309
0.0059928256552734,19.6692875662821
0.0063709955139312,19.6744188109065
0.00677234203882566,19.6794688094822
0.00720118938271068,19.6844466033994
0.00766203603213119,19.689357808772
0.00815971414088472,19.6942057481514
0.00869947978589975,19.6989915830785
0.00928713568743966,19.703714791472
0.00992913650321786,19.7083735107028
0.0106337114792255,19.7129713172351
0.0114265464437484,19.7176007805282
0.0123218386465812,19.7222505244167
0.0133421720719191,19.7269368827546
0.014519247405874,19.7316918597157
0.0159056464034271,19.7365929843126
0.0176126668375007,19.741848659109
0.020050718857493,19.7483371140208
0.0217218428491053,19.7523533204512
0.0234639496215081,19.7563695268816
0.0249759262954802,19.7598776484795
0.026249701426258,19.7630199401363
0.0273153738280442,19.7659990481916
0.0281439096026024,19.7688645611249
0.0287044669129356,19.7716196586501
0.0289939263145286,19.7743831104578
0.0289780777739421,19.7773132609522
0.0285320575352683,19.7807725303919
0.0277481581067747,19.7839509453853
0.0266640791359409,19.7871293603787
0.025580965209207,19.7897777926126
0.0245111465079824,19.7921437836813
0.023440844369317,19.7943734345623
0.0223691304264614,19.7965291086552
0.0212989731040479,19.7986439436556
0.0202340756361558,19.8007390704015
0.0191781030256774,19.8028295410023
0.0181344842970984,19.8049269192076
0.017106365281075,19.8070406244051
0.016096605015811,19.8091787149447
0.0151077879568415,19.8113483797747
0.0141422356384317,19.8135562802223
0.013202020483249,19.8158087963682
0.0122889799903818,19.8181122163906
0.011404721838206,19.8204729158847
0.0105506403937176,19.8228974923215
0.0097279232195198,19.825392919321
0.00893042194706875,19.8279908347022
0.00814367773728999,19.8307613721749
0.0073714651310901,19.8337244137956
0.00661758788063466,19.8369037305814
0.00588610033618304,19.8403268407383
0.00518127899568326,19.8440257326862
0.00450757493584544,19.8480377421026
0.00386952383061871,19.8524067485606
0.00327158790279753,19.8571850623619
0.00271789635605284,19.8624369228327
0.00221192312766878,19.8682449078102
0.00175623444802693,19.8747205599264
0.00136916479248104,19.8816788248853
0.00105651892397205,19.8891879264773
0.000816442998290509,19.8972483371599
0.000638270803700043,19.9053717916666
0.000488703784151005,19.9146373768552
0.000374829456123071,19.9246373768552
0.000296788298924522,19.9346373768552
0.000244188229418649,19.9446373768552
0.000209449926242491,19.9546373768552
0.000187165410754508,19.9646373768552
0.000173591601608384,19.9746373768552
0.000166191835661424,19.9846373768552
0.000163770323061322,19.9923186884276
0.000163340780843436,20
