ecg,time
0,0
0.000363279047659241,0.000466726865624193
0.00124128050946135,0.00172567813305484
0.00202792231277835,0.00306407622077079
0.00270701026019199,0.00445439348293106
0.00327921047393917,0.00587663931663663
0.00376136765799641,0.00733685477587911
0.00417055948024196,0.00884217888430694
0.00452446944311268,0.0104015715079936
0.00484165175814476,0.0120257176634767
0.00514207758245166,0.0137267659748618
0.00544788967722161,0.0155174574160775
0.00578415406232561,0.0174087507350612
0.00603419218856034,0.0187043753675306
0.00630809636669197,0.02
0.00681559048731057,0.0220881973979779
0.00744199810000466,0.0242255136314744
0.00818863262285451,0.0263237244943444
0.00904664186374258,0.0283192308502624
0.0100036039643862,0.0301797330258582
0.0110503737831366,0.031899960789927
0.0122198193026481,0.0335371354771655
0.0135259848910993,0.0351010437312777
0.0149817228835758,0.0365958592935025
0.016602304895969,0.0380258590097891
0.0178747160775803,0.0390129295048946
0.0192933161534413,0.04
0.0213800831309157,0.0412764350763906
0.0237212604156572,0.042512011504418
0.0263284833825389,0.0436989306818868
0.0292326428373678,0.0448396735118613
0.032469421990824,0.0459369010095645
0.0360793512537727,0.0469931584571764
0.0401085333600797,0.0480108922975354
0.0446095367890149,0.0489924711450653
0.0499856139436535,0.05
0.0556728505907214,0.0509160248679304
0.0620354080572615,0.0518009894364297
0.0691758603964504,0.0526588724690807
0.0772016272075496,0.0534918996548873
0.0862371476676203,0.0543022283542819
0.0964274669310489,0.0550920007992102
0.107942130713836,0.0558633461035152
0.12097982615055,0.05661838054431
0.135774031012181,0.0573592133893888
0.152600295605744,0.0580879738010572
0.17178683127792,0.0588068952798146
0.189965548381038,0.0594034476399073
0.21048639423628,0.06
0.238251854275508,0.0607068254729221
0.2707318338033,0.0614229897320788
0.309653938205233,0.0621659925642699
0.354657925570895,0.0629131747468246
0.407228542621052,0.0636824879234773
0.449869301485564,0.0642537790558967
0.494521238805371,0.0648250701883162
0.534485465177466,0.0653322732788246
0.569924051954401,0.0657973137201725
0.601705094020777,0.0662479972214702
0.629948531826439,0.0667056801111989
0.654245310055277,0.0671952300089761
0.673440406521341,0.0677629755307557
0.682828125507231,0.068398374142828
0.679508306995271,0.0690683936563335
0.670045896306588,0.0695341968281668
0.655439503604925,0.07
0.627608549779134,0.0706490068466929
0.589594181605919,0.0713412837952794
0.537647294331852,0.0721218122478292
0.465724098611345,0.0730344223518373
0.403442364500057,0.073729722240414
0.350223864545106,0.0742794071669895
0.294425195303286,0.074829092093565
0.247047838264394,0.0752866390299742
0.207080513375381,0.0756749923259288
0.172213983754631,0.0760226434880939
0.141120536966452,0.0763460772966258
0.113002267245421,0.0766559228844056
0.0872815333920202,0.0769608403972802
0.0634169650873323,0.0772704169123428
0.040630342589244,0.0776008942023318
0.0164445462660047,0.0780083888639124
0.00553602266827408,0.0782204435131516
-0.00220588183447453,0.0783857625577963
-0.00930804604631882,0.0785510816024409
-0.0155344026242541,0.0787093278657555
-0.0219310670357892,0.0788880898849949
-0.0282542986415907,0.0790853228216482
-0.0342817067033699,0.0792982430813733
-0.0398832045780381,0.0795255582337294
-0.0449868760989653,0.0797670085240299
-0.0495563648479899,0.0800230558071875
-0.0535773452066307,0.0802947211805295
-0.0570492671874366,0.0805835160662357
-0.0599801179889315,0.0808914356064399
-0.062382922319864,0.0812210004389918
-0.0642732427920009,0.0815753443456415
-0.0656672290986353,0.081958354582957
-0.0665799096785256,0.0823748822160786
-0.06702347448798,0.0828310556242151
-0.0670052744421119,0.0833347593158358
-0.0665250734015716,0.083896446624258
-0.0655683809787602,0.0845317972578137
-0.0641002525805624,0.0852622881073055
-0.061899599649764,0.0861747244336246
-0.0590661983433221,0.0872242745077281
-0.0550834100925703,0.088612137253864
-0.0509967661891482,0.09
-0.0469541294876481,0.091374525086166
-0.043079462638808,0.0927128247371954
-0.0393998155029303,0.0940156769814481
-0.0359299585196169,0.0952831978807262
-0.0326779829084701,0.0965149982431738
-0.0296472675857785,0.0977104652775994
-0.0268698766495265,0.0988552326387997
-0.0242221160895869,0.1
-0.0218414193245229,0.101083169764579
-0.0196670923518472,0.102126385693676
-0.0176875088312363,0.103130151801017
-0.0158921547602681,0.104094039115655
-0.0142699230916271,0.105017579164613
-0.0127527130408855,0.105935636296857
-0.0112952083600963,0.106877235703541
-0.00990193910314494,0.107843939720802
-0.00857688080023377,0.1088378530179
-0.00785174094938756,0.10941892650895
-0.00716258971890005,0.11
-0.00599274484765909,0.11106337011122
-0.00490503317829249,0.112160888138869
-0.00389945361600334,0.113299425490734
-0.0029785199845849,0.114484325454285
-0.00214428629166506,0.115722270658598
-0.00139830815090219,0.117021753210974
-0.00074158839207687,0.118393815353685
-0.00041382063418322,0.119196907676843
-0.000124279726778351,0.12
0.000343927552147685,0.121576046813247
0.000709515549151238,0.123215000408507
0.000980516579321211,0.124905488474946
0.00117221614249494,0.126666043395157
0.001298524708397,0.128519486152144
0.00137252539782369,0.130496739196889
0.00140532566243817,0.132470711860396
0.00141415463828102,0.134328682158552
0.00141298944715799,0.136076303584665
0.00140972162672988,0.137722905109158
0.00140847472574044,0.138861452554579
0.00140927040568324,0.14
0.00141431689454168,0.141426379718287
0.00142428974126919,0.142793619044516
0.00143914898725499,0.14410234664474
0.00145872442824426,0.145363384368689
0.00148289987160693,0.146589896959744
0.00151179403888281,0.14779926454871
0.00154248942289551,0.148899632274355
0.00157740665160772,0.15
0.00162925647060718,0.151433292100202
0.00168135123090254,0.152705041309399
0.00173926939527391,0.153976790518595
0.00179037512513722,0.155003439530252
0.00183930649537568,0.155918636443672
0.00188997644112386,0.156807509732194
0.00194550373522522,0.157722576816743
0.00201047737902016,0.158725653595475
0.00209960139329722,0.16
0.00226694317702703,0.16213306678697
0.00246616388848905,0.164323763380908
0.00267630948739458,0.166316297689492
0.00290035212423414,0.168158148844746
0.00315927775825572,0.17
0.00351558719137046,0.172146171088509
0.00392081058793806,0.174176320164986
0.0043822178048067,0.176099733523616
0.00491022257924733,0.177933736356641
0.00551287478023457,0.179680816732235
0.00619517412142297,0.181334547630812
0.00696364789152788,0.182894614855191
0.00780198007848611,0.184326209502048
0.00871103141269509,0.185641180625968
0.00969864139080375,0.186859689375368
0.0107764310387666,0.188001008950225
0.0118638792286333,0.189000504475112
0.0131073214633153,0.19
0.014661481135103,0.1910859691815
0.0165227928000203,0.192209950205861
0.0188821084698286,0.193438354247775
0.022525944097323,0.195056190307515
0.0249407997612319,0.196013497044064
0.0274876993589695,0.196970803780613
0.029828391995073,0.19783535460203
0.031953886549814,0.198636909702587
0.0338997101509334,0.199416313248961
0.0356665420678265,0.200204447400813
0.0372317745945247,0.201034912138886
0.0385460870182723,0.201961218233917
0.0394952556962419,0.203118267658084
0.0396514455670536,0.204550900048163
0.0388723292822342,0.205983532438242
0.0377213958424762,0.207158269135229
0.0362987415236833,0.208306155063364
0.0351234477255004,0.209153077531682
0.0338810690057065,0.21
0.0318585562642314,0.21132989174903
0.0294658914327492,0.212884924016595
0.0266929905373411,0.214725517094498
0.0241204977472011,0.216515900444435
0.0217205202175519,0.218306283794372
0.0183220861318516,0.221119318244093
0.0153555588180281,0.223932352693814
0.0144537918597287,0.224873562534088
0.0136077349236554,0.225814772374362
0.0124174041817478,0.227247093767637
0.0113665225005101,0.228606603636198
0.0103919521447937,0.22994380968807
0.00963690052351001,0.2310654891793
0.00823857077756775,0.233411369759367
0.00703070673991158,0.235827127985907
0.00600364903674256,0.238296569975691
0.00512815204782355,0.240840818627734
0.00438101211519899,0.243481563500489
0.00374448062984879,0.246241324617768
0.003204723146882,0.249144726691228
0.00275063349598534,0.252219820152069
0.00237301798438571,0.25549963532062
0.00206405476994146,0.259024209723452
0.00181695873567494,0.262843427654896
0.00162578627477495,0.267021226685676
0.00148534279926892,0.271642168678726
0.00139118107424719,0.276822324785559
0.00133974814722907,0.282728661749257
0.00132882895706495,0.289617103867221
0.00135697294808829,0.297582182602669
0.00140919142066492,0.305177711635623
0.00147920170965127,0.313119376836671
0.00155319976438149,0.320407959937769
0.00163935092384497,0.328213410623199
0.0017182740069844,0.334713117110942
0.00180557258198694,0.341479909650431
0.00189322387230916,0.34790363187373
0.00198562007828353,0.354366727088877
0.002078979387211,0.360592719653266
0.00217537494762905,0.366741573610716
0.00227369347519256,0.372742279140765
0.00237456500370266,0.378643505198358
0.00247771730533442,0.38443504598773
0.00258324743039062,0.390131024641739
0.00269107846339374,0.395736610229214
0.00280112262984865,0.401257917549505
0.00291323989035303,0.406700202341624
0.00302727545937356,0.412070057289796
0.00314295907081256,0.417368926222964
0.0032601810176479,0.422605722654624
0.00337876196737754,0.427781320670256
0.00349887839152548,0.432901189724437
0.00362121077627236,0.437968250909752
0.00374753441281066,0.442985246535444
0.00388162671362367,0.447956234949587
0.0040304884370804,0.45288353906093
0.00420601575139344,0.457769922523251
0.00442641602982918,0.462617325104168
0.00468452926137182,0.466959649965937
0.00497838007332686,0.47078994203464
0.00532678066517865,0.474395808885142
0.00575701335591284,0.477999332819768
0.00632106248303368,0.481868142502398
0.00704770409890586,0.485996948078755
0.0078752705584524,0.489986094268179
0.00884378678367754,0.494047922530705
0.00976681491830987,0.497508476329748
0.0107053108216189,0.500734025635733
0.0116855423272669,0.503866450752758
0.0127212663375788,0.506976085552895
0.0138207672962283,0.510107805078468
0.0149875606420842,0.513295308231308
0.0162185411355876,0.516566910644729
0.0175001252398581,0.519948437449313
0.0188024210077585,0.523465131287638
0.0200403657155348,0.527047093307273
0.0210757690658396,0.53046713811839
0.0218980889651224,0.533862501411345
0.0224515995915956,0.537203092914806
0.0227118951874026,0.540576946694657
0.0226341193692223,0.544209854220952
0.0220353006906756,0.548717374312004
0.0210672610971704,0.552821770603883
0.0199604265421124,0.556414320161315
0.0188174731877302,0.559640469385143
0.0176587997549875,0.562671395942503
0.016481338747362,0.56563359471143
0.0152892194855356,0.568595570382575
0.0140884955206701,0.571604595717271
0.0128832506621917,0.574699719393249
0.0116778367426794,0.577917539940024
0.0104769557425596,0.581295619642059
0.00928569299483721,0.584875141294894
0.00810957558623476,0.588703600349608
0.00751721768646,0.590770842528312
0.00721056011889687,0.591884112641676
0.00692617514599481,0.592997382755039
0.00649595017466746,0.595028922259098
0.00616902060772745,0.59695480943871
0.00586798717898237,0.599102941143253
0.00557381784262387,0.601591331294872
0.00525444380631368,0.604704788122811
0.0049311469708626,0.608215920159492
0.004610604927525,0.612006647507834
0.00430335826982525,0.61598535786682
0.00402784905390599,0.619996642486424
0.00377502911045429,0.624310818305443
0.00355254563184825,0.629047775963753
0.00337353745406172,0.634247976611669
0.00325276822985843,0.639738857870129
0.00319394534294146,0.645262146086084
0.00318985377588679,0.650725973974517
0.00323279676986248,0.656129474435914
0.00331789825987511,0.661494018126161
0.0034429494210522,0.666834596875749
0.00360753678610447,0.672150005882933
0.00381304980972189,0.67744254291736
0.0040616693189181,0.682695464364944
0.00435706303240054,0.687897779534492
0.00470304091431931,0.693020289861028
0.00510452568020953,0.69803956837219
0.00556730732401028,0.702933685854919
0.00609700460636234,0.707674677889873
0.00669925605245511,0.712237334779205
0.00738075041393072,0.716608346745768
0.00814859824414104,0.720779720546713
0.00900694381925308,0.724734209111925
0.00995821569068368,0.728459946854016
0.0110102936863363,0.73197399480113
0.0121740112539681,0.735299634878223
0.0134533428375035,0.738439223619726
0.0148981991244722,0.741490977935434
0.0165560865611234,0.744503614761333
0.0184723094449625,0.747496058948069
0.020725865366217,0.750516002569526
0.0234373509319952,0.753626929174201
0.0265796372975174,0.75672042484937
0.0300731526118297,0.759706935822788
0.0340315797134531,0.762699273601326
0.0374020090444485,0.765032573707785
0.0409443900075444,0.767365873814244
0.0441037053726128,0.769421299924948
0.0468570793700024,0.771269622501802
0.0492164745795665,0.772987352815763
0.0511550793785509,0.77462327195883
0.05261846132336,0.776214181804463
0.0535128711803937,0.777761338384263
0.0537638020610752,0.77931011850558
0.053234973772699,0.780911990152504
0.0516728705659914,0.782644789998373
0.0484857020427325,0.784685011461852
0.0452584693520506,0.786189144672798
0.0413958817596916,0.787693277883744
0.0375651452754953,0.789022578527043
0.0338225745793715,0.790237523393303
0.030161755877573,0.79138490632407
0.0265879556394051,0.792491246308506
0.0231108399775027,0.79357370779167
0.0197387254201943,0.794645444328017
0.0164754463137025,0.79571848340396
0.014006153990355,0.7965653550599
0.0116621451001951,0.797412226715841
0.00791377232832438,0.798882127131982
0.00445117759236001,0.800411792800636
0.00286641714444347,0.801185947468358
0.00211522417518359,0.80157302480222
0.0014138387719088,0.801960102136081
0.000675059244166198,0.802424188690592
-0.000201248871616635,0.803087295281507
-0.00090569789111859,0.803768710041112
-0.00145050537028228,0.804471579422145
-0.00184671719689889,0.805199987595784
-0.00210361607074189,0.805958295451678
-0.00222915623737045,0.806751323105718
-0.00223025928155284,0.80758457119266
-0.00211300208928912,0.808464515313638
-0.00188270420312208,0.809399032224981
-0.00154389264763158,0.810398062923905
-0.00110007439609222,0.811474721771341
-0.000553141747770236,0.812647314022668
9.80506925987953e-05,0.813943428638245
0.00086137497347793,0.815409651889823
0.00164186964537386,0.816905537288223
0.0024179861039524,0.818428948496496
0.00318354839063849,0.819997375844964
0.00393549837606255,0.821628094678142
0.00467406542571584,0.823340831821793
0.00540317199079499,0.82516026235796
0.00613154609174943,0.827119869868804
0.00687517679933832,0.829269142446062
0.00760968386552692,0.831521823034624
0.00834715193223772,0.833873545676208
0.00912344210953033,0.836386732233839
0.0099837837630475,0.839143936875132
0.0109983633568704,0.842282111682228
0.0123063894691801,0.846090443102235
0.0141280334121474,0.850974843216253
0.0159977585206987,0.855631037049627
0.0176149063404294,0.859533545289666
0.0189674002004308,0.862856265486556
0.0201326607266363,0.865919318176079
0.0211261682311154,0.868890369918942
0.0219029671964657,0.871770864865825
0.0224370888707555,0.874586975288029
0.0227178290826864,0.877467644033382
0.0226981271338931,0.880620743383355
0.0222611462530316,0.884260181628739
0.0215243567850897,0.887557267401705
0.0206181311150355,0.890576105724924
0.019708419689849,0.893157421774543
0.018791616023309,0.895531978458817
0.0178658311849988,0.897802520614521
0.0169345772502158,0.900017158686857
0.0160023544367787,0.902204106076535
0.015073502291208,0.904382605245108
0.0141519610059608,0.906567176377177
0.0132412276448462,0.908769700900358
0.0123443597715753,0.911000620862283
0.0114640072918266,0.913269685581878
0.010605536160259,0.915577986520925
0.00987188498755127,0.917642284020076
0.00919895819844666,0.919624540277145
0.00854319717144345,0.921652458071248
0.00786393848863963,0.923870751415491
0.00710256573825581,0.92652678515472
0.00636471556917645,0.929307696273762
0.00565102098806063,0.932235686309446
0.00496037069046536,0.935345515431368
0.00431189013434419,0.938574687680672
0.00366739106467095,0.942158719270831
0.00348123096276595,0.943277449852
0.00330565783410923,0.944396180433169
0.00311028066926874,0.945814345864955
0.00282328469796962,0.94836728296946
0.00256918081355791,0.95133016320088
0.00233284321389152,0.9551327352204
0.00215038414507296,0.959486153122673
0.00204978503597968,0.963589372529178
0.00201790504591421,0.967296844333613
0.00204453357074732,0.970792517128957
0.00212654105306722,0.974065877297972
0.0022640609023794,0.977211110312803
0.00246187694309495,0.980329163480458
0.00273256384280957,0.983579992812751
0.00311326796019296,0.987368047339029
0.00342982926971979,0.990308010204672
0.00372849360767254,0.993247973070315
0.00396623617089481,0.996039093663249
0.00415964160917656,0.999199029716672
0.00428086435673261,1.00282123785937
0.00432360585626066,1.00688533297729
0.00432486125735245,1.01034205671136
0.00433176929504683,1.01375281251732
0.00437652407110323,1.01756139877113
0.00449973569271101,1.02190568663778
0.00475627757427695,1.02695477201813
0.00511574512700753,1.03166741926573
0.0055416983737949,1.03585345476244
0.0060316328556805,1.03968501522552
0.00658423504948439,1.0432205134458
0.00720175938316024,1.04650028871991
0.00788678119341417,1.04954739121478
0.00864180578954527,1.05237847480809
0.00946912028616937,1.05500814381709
0.0103709845451038,1.05745104412064
0.0113580510448923,1.05973992487711
0.0124615666690161,1.06193522834463
0.0136959683326925,1.06404278481229
0.015077469792501,1.06606790010559
0.0166245657556377,1.06801583865824
0.0183586881978856,1.06989211432341
0.0203051620436167,1.07170274651456
0.022493700227198,1.07345383363255
0.0249599195578348,1.07515193658061
0.0277469677783603,1.07680411738246
0.0309085644986743,1.07841844934869
0.0345128676639114,1.08000427944444
0.0386507501338052,1.08157358706437
0.0434495599212788,1.08314266295319
0.0491047573127013,1.08473670796094
0.0559257042292107,1.08639347962261
0.0638888353771901,1.08806738203843
0.0733367961268387,1.08980515413388
0.0822131057726952,1.09127631705465
0.0917024161996384,1.09274747997543
0.0999848175578919,1.09399867221076
0.107127866021916,1.09509832397909
0.113281723820574,1.09610935913564
0.118428820260707,1.09706501071677
0.122465873377778,1.09798663135552
0.12523069269411,1.09889142563555
0.126495893333199,1.09979679950609
0.125926799329072,1.10072555602245
0.122930189099958,1.10172013742048
0.116641191487408,1.10280368434008
0.106832174224788,1.10392447082608
0.0980943881146479,1.10471373170257
0.0881121250929634,1.10550299257906
0.0783347114822956,1.10621332409689
0.0689462483427807,1.10686539325539
0.0599309171317577,1.10748123772427
0.0512906725978242,1.10807470999616
0.0430324454116194,1.10865582692125
0.035157290602529,1.10923322182893
0.0276527216362109,1.10981590165225
0.0204795629451138,1.11041568987444
0.0135320713743949,1.11105351433253
0.00643830888816955,1.11178883086372
0.00145579194351129,1.11237922041616
-0.00290995085677973,1.11296960996859
-0.00640864628606353,1.11351278464409
-0.00923770230733852,1.11401653845345
-0.0116147459534967,1.11450253882557
-0.013753004866768,1.11500910332093
-0.0156658302431687,1.11554336921528
-0.0173362518290209,1.11610537414435
-0.0187561666729426,1.11669609599627
-0.019923351260629,1.11731725796952
-0.0206894661297286,1.11790291158391
-0.0211370408261658,1.1184885651983
-0.0213207461346453,1.11909666257746
-0.0212582608249875,1.1197402853072
-0.020958137937462,1.12042301216845
-0.0204279352301066,1.12115112082625
-0.0196762304398402,1.1219295540563
-0.0187127331135215,1.12276410999071
-0.0175482004194299,1.12366171593542
-0.0161942474609724,1.12463090359912
-0.014662814269775,1.12568271102043
-0.0129647327004287,1.12683255848075
-0.0113885374722745,1.12790889748036
-0.00991089622393138,1.12894280008623
-0.00846891359129954,1.12998907154395
-0.00707161013949703,1.13105179383632
-0.00572570602105715,1.13213545547798
-0.00443701306722179,1.13324443877283
-0.00321051006181282,1.13438329996793
-0.00205038993241594,1.13555701603946
-0.000960071592525673,1.13677124983284
5.7818277501993e-05,1.1380326717823
0.00100149320160319,1.13934938788444
0.00187008953390511,1.14073155122723
0.0026637976482433,1.1421922923611
0.00338407169921302,1.14374922817937
0.00403398413296294,1.14542709742615
0.00459722726796204,1.14718774810506
0.00507433772950212,1.14900312505548
0.00548456967750585,1.15089853749162
0.00584564285270799,1.15290380632484
0.0061755376008324,1.15505979199917
0.0064942310616523,1.15742767519635
0.00682724995922747,1.16011082589218
0.00721591722352195,1.16332200844937
0.00771336061252795,1.16730206104101
0.00827312079300081,1.17147735425129
0.00895669588058682,1.17616309712117
0.00967800514362088,1.18070474445576
0.0104581337277574,1.18523519195287
0.011296945785042,1.18972289803519
0.0122199213353705,1.19424830702222
0.0132485825871018,1.19883151809803
0.0144087328787688,1.20348461482785
0.015740286971801,1.2082480893662
0.0173117368972548,1.21321975979607
0.0192805241939881,1.21868240130038
0.0218231443446546,1.22485526342386
0.0235805076991189,1.22875415425174
0.0254055060025604,1.23265304507961
0.0270251882615846,1.23612505506949
0.0284265141869795,1.23928312045925
0.0296380923521961,1.24230842046636
0.0306201950431297,1.24520983269748
0.0313574677724377,1.2480240233998
0.0318564944586146,1.25087750466412
0.0321007694825291,1.25395601583491
0.0320023209250451,1.25777720042934
0.0316567845311425,1.26081425698333
0.0311375430483454,1.26385131353732
0.0305980173752223,1.26647842154366
0.0300694726576279,1.26887091815861
0.0295588701214035,1.27114375908111
0.0290708383789379,1.27335127826635
0.0286060822689756,1.27552418995518
0.0281596878467629,1.27768277757882
0.0277196360086056,1.27984186647261
0.0272838134976859,1.28192790547786
0.0268490884296844,1.28386434979419
0.0263779843757769,1.28574004272658
0.0258341184084197,1.28761801041084
0.0251743153941386,1.28955618308928
0.0243303831558173,1.29164352267299
0.0231873168717718,1.29401493210677
0.0218072996766946,1.29645382274061
0.0201942410679867,1.29896345007609
0.0186468911426116,1.30117163982867
0.0171792992062032,1.30316469177879
0.0161133222279882,1.30457860033008
0.0157590821578411,1.3050450709234
0.0154078137840484,1.30551154151671
0.0137435952805559,1.30784389448327
0.0120219635589752,1.31050251379921
0.0104187941206272,1.31325319783279
0.00892352446420385,1.31611276389531
0.00752290126385974,1.31910686937648
0.00629370912332574,1.32203979691727
0.00525160964901518,1.32479277436244
0.00435699424108532,1.3273830966416
0.00357830873031441,1.32983179159892
0.00289112509123134,1.33216007863598
0.002275985141498,1.33439057805779
0.00171658797226384,1.33654960367221
0.00119797373055572,1.33867172580816
0.000710129183188496,1.34081092799966
0.000234160339856944,1.34307769824668
-0.000303775074723992,1.3458725689015
-0.000624119400444143,1.34766681833155
-0.00092660796718663,1.34946106776159
-0.00118545378633681,1.35108423823973
-0.00141472420868714,1.35260053345111
-0.00163123652051924,1.35411258888177
-0.00184708817466788,1.35571383283152
-0.00207712024583851,1.3575500453468
-0.00236018928946825,1.3600606716952
-0.00268138351454296,1.36344396383729
-0.00290017211480671,1.36635426708174
-0.00305911386850289,1.36913769563915
-0.00318069604690079,1.3722798395069
-0.00325095446424393,1.37611377999695
-0.00324406331305647,1.37993958331155
-0.0031848183731338,1.38320465266888
-0.00308917082428941,1.38628980740254
-0.00296131360531668,1.38932151673605
-0.00280206778363116,1.39235359295655
-0.00260974335626842,1.39541970186619
-0.00237974928425366,1.39854741517852
-0.00210873580390687,1.40170650113856
-0.00181326855877646,1.40466250361953
-0.00149104346126446,1.40743445418423
-0.00113629940574767,1.4100576037243
-0.000740586120993706,1.41257251676631
-0.00029138734949888,1.41503197012887
0.00023187875177146,1.41751819987927
0.000867990745991293,1.42018318230921
0.00146127765115978,1.4224714802356
0.00206908596712698,1.424759778162
0.00259527524973656,1.42680654693767
0.00308005411013661,1.4288588666062
0.00355922014732967,1.43119872096773
0.00405826219180094,1.43424186146873
0.00437476434869999,1.43669425440811
0.00464508742443969,1.43914664734749
0.00489023713193314,1.44149114258145
0.00515267258041138,1.44386098066138
0.00546808515928992,1.4463347162593
0.00588232369726647,1.44901160343481
0.0064142078974732,1.4517768463178
0.00708035671176214,1.45456120814201
0.00786748744956133,1.45723553302059
0.00875306644456135,1.45972121120499
0.00972243542151636,1.46200441678585
0.0108030275209609,1.46416061515653
0.0120045057647589,1.46620303990922
0.0133391343851459,1.46814343719787
0.0148216527915749,1.46999146609162
0.0164694613496658,1.4717554105383
0.0183032196026682,1.47344287408107
0.020346036460786,1.4750599589595
0.0226250698765111,1.47661263092239
0.0251713038055323,1.47810617877404
0.0280209550273298,1.47954579804869
0.0312163489707085,1.48093653998596
0.034807510121786,1.48228348450962
0.0388543978683879,1.48359192042424
0.0434297962406048,1.48486746984997
0.048624128224276,1.48611643118536
0.0545524509575537,1.48734613701554
0.0613668842327896,1.48856574173938
0.0692787228829649,1.48978753477981
0.0786049631064858,1.49102989128856
0.0898223685598251,1.49231820604465
0.102877546272121,1.49361579030756
0.118240283291759,1.49494965869699
0.136748013440085,1.49637260611162
0.152072842488409,1.49745473331501
0.168106700734457,1.49853686051839
0.182695944121561,1.49951133575405
0.195727708417611,1.50040681350965
0.207194664515853,1.50125302053011
0.216924499017913,1.50206779170304
0.224639343349272,1.50286346270828
0.229977615233577,1.50365019094986
0.23248657904428,1.50443815685942
0.231576606109092,1.50524026147078
0.226361911457041,1.50607914042605
0.215129270604431,1.50700179309437
0.197661174604272,1.50793862194557
0.180531863396514,1.50864943016205
0.160511525765321,1.50936023837852
0.141434177257015,1.50997346291702
0.123764171141948,1.51051235959045
0.107232860570289,1.51100609329189
0.0917031499016383,1.51147105520162
0.0771015878465157,1.51191779013114
0.0633712296172687,1.51235439931989
0.0504505219985583,1.51278830800161
0.0382538613563885,1.51322790376781
0.0266296442104689,1.51368562825044
0.0152016277441831,1.51418873675302
0.00532986952643669,1.51468531148985
-0.000739647404827636,1.5150314205342
-0.00617031372693478,1.51537752957854
-0.0106564378158027,1.51569793588362
-0.0145090209547974,1.51600611594207
-0.0182002601736206,1.51633951871351
-0.0216375614083666,1.51669562609496
-0.0247608216926669,1.51707295138959
-0.0275381856564701,1.51747141821719
-0.0299544289138131,1.51789189554524
-0.0320043003275156,1.51833595015184
-0.0336886454949465,1.51880573423129
-0.0349806076199568,1.51930395083678
-0.0358294191595394,1.51981187490584
-0.0363025580041638,1.52034435561108
-0.0364265120822238,1.52091423176637
-0.0362093485577383,1.52152660657558
-0.0356571546285946,1.52218859137777
-0.034772902274786,1.52290879437537
-0.0335577654165819,1.52369692849144
-0.0320101296524959,1.52456539211632
-0.0301239590257899,1.52553067201038
-0.027885243714959,1.52661616649137
-0.0252624425207716,1.52785898040652
-0.0227327853668877,1.52906146057656
-0.0203840345185879,1.53020258822034
-0.0182219828015001,1.53128878908193
-0.0162437297678826,1.53232444897086
-0.0144426042125434,1.53331226908241
-0.0128098048697769,1.53425390984489
-0.011257944829092,1.5351988262753
-0.00976208050050714,1.53616596438798
-0.00832722252376373,1.53715738640765
-0.00695777563866078,1.53817558590128
-0.00565780451263205,1.53922340728564
-0.00443100197808978,1.54030415648942
-0.00328065135426793,1.54142174049133
-0.00220958131417779,1.54258085233539
-0.00122011326394015,1.54378722479598
-0.000314000114051902,1.5450479902717
0.000507646439405005,1.54637221089479
0.00124444617482482,1.54777169401225
0.00189687029933274,1.54926231448652
0.00246641661210998,1.55086630652066
0.00293506089193362,1.55253215324546
0.00331105852241644,1.55425093560467
0.00361089242013238,1.5560424681079
0.00384973253463928,1.55793117630356
0.00404222507787486,1.55995027149869
0.00420323338498229,1.56214822045757
0.00434914532004608,1.56460300539628
0.00450098929685327,1.56746076688949
0.00469608142521042,1.57109043703855
0.00492393105696797,1.5749166284655
0.00518260927387907,1.57876388233201
0.00547410805476403,1.58267390502923
0.00579808304151614,1.58668319932249
0.00615467874213274,1.59082470176805
0.00654605257942107,1.59513016257648
0.00697721427655463,1.59963183313494
0.00745659031234598,1.60436398528587
0.00797947303914394,1.60920937642018
0.00853290789341702,1.61399020392723
0.00912640550647467,1.61874018019567
0.00976337214471369,1.62343223442601
0.0104502931743063,1.62806004717257
0.0112048880708146,1.63267852184666
0.0120466928022749,1.63732411857467
0.0129942751545866,1.64200321469967
0.0140743801156951,1.64674113724029
0.0153270539631099,1.65159022722744
0.0168246547210014,1.65667590956875
0.0187523185070639,1.66238474814557
0.0211758020083077,1.66868880958568
0.022709297844608,1.67240121405445
0.0242617247243442,1.67611361852322
0.0256099660336041,1.67945982590039
0.0267452191340554,1.68256100973475
0.0276732435860611,1.68557542192628
0.0283335684246683,1.68843555145194
0.0287268544257353,1.69124690665577
0.0288352040241963,1.69414777349575
0.0285882193111774,1.69737571257052
0.0276656027006284,1.70177352671046
0.0267878346846292,1.70454019523248
0.0257296303880488,1.70730686375449
0.0246566147223613,1.70980340876558
0.0235835720692311,1.71213216274051
0.0225096443628932,1.7143692020299
0.0214372180218639,1.71655553597406
0.0203698870026967,1.71871630849005
0.0193113931239961,1.72086888804145
0.0182653020622519,1.723026336334
0.0172349237367029,1.72519910727502
0.0162232859373803,1.72739602762986
0.0152331476157449,1.72962487040295
0.0142670036190512,1.73189276044737
0.0133270977446407,1.73420645173461
0.0124154383633948,1.7365725293147
0.0115337974913011,1.73899761269623
0.0106837309291525,1.74148848396036
0.00986658600110668,1.74405223557104
0.00908350545317695,1.74669643389044
0.00832115745973582,1.74948368410621
0.00757463975676291,1.75246183299168
0.00684793642764984,1.75565359191766
0.00614517209275103,1.75908569512035
0.00547071278114549,1.76278919432974
0.00482913698946453,1.76680033690827
0.00422516645854233,1.77116187983467
0.00366355945338964,1.77592517236395
0.00314897479719408,1.78115371304151
0.00268579923740357,1.78693015765059
0.00227823948354544,1.79336694959261
0.00194042630179312,1.80038882871636
0.00175036542728014,1.80556563580889
0.00161029305958042,1.81074244290143
0.00147677480594458,1.81872149069162
0.00141582443016581,1.8264393123185
0.0014098327070965,1.83548943558633
0.00147132674644568,1.84490683921614
0.00159094857373853,1.8538231027919
0.00175502336812781,1.86202415989545
0.00195362610940391,1.86952911829784
0.00217964932770676,1.87640529287756
0.00242678190430072,1.88271398257926
0.00268847583910357,1.88850940866131
0.00295741605036317,1.89383984777153
0.0032253809969579,1.89874838310373
0.0034835360121537,1.90327510702668
0.003722795936385,1.90745564933447
0.0039345441791177,1.91132351864399
0.00411119912643068,1.91490904750632
0.00424679829930841,1.91824085225208
0.00433727577173844,1.92134542586044
0.00438053888705314,1.92424808738875
0.00437623961834415,1.92697312620324
0.00432535767888577,1.92954460161827
0.00422961252582835,1.93198727211836
0.00409072949903328,1.93432807886178
0.00390946860961329,1.93659919488584
0.00368403846154512,1.93884446427687
0.003406391346651,1.94113722652001
0.00304839364264884,1.94365115826963
0.00291262108343559,1.94451733175803
0.00277169724031134,1.94538350524643
0.00263199774455314,1.94626550216407
0.00231355527885702,1.94840835344279
0.00205985754553935,1.95025417775857
0.0018478577657928,1.95189436978475
0.00165306428501103,1.95348097278788
0.00146166262687326,1.95511412646986
0.00126016400646524,1.95691215943202
0.00102302980217933,1.95913017362177
0.00059573068052782,1.96340077121536
0.000216635491401775,1.9675135410022
-8.68837253098634e-05,1.97108318026894
-0.000380918355505434,1.97488041885558
-0.000650125891385008,1.97884137298732
-0.000866640091116292,1.98267792854313
-0.00102742575490004,1.98642303727841
-0.00112912619321169,1.99016746065563
-0.00116208650704389,1.99406166673824
-0.00110831800168581,1.99799914802959
-0.000968535949390825,2.00163678395902
-0.000749776288154469,2.00499537499512
-0.000455353999467564,2.00811572389199
-8.37099119523244e-05,2.01104668420294
0.000372226954802831,2.01384427354805
0.000927414057653676,2.01658214096376
0.00161053382944047,2.01937178395299
0.00248504058312092,2.02243409234989
0.00337413528175985,2.02526761857955
0.00411865549331863,2.02757425854127
0.00487753779697801,2.02995107265081
0.00591099842193223,2.03328133403992
0.00657383721260642,2.03544208864696
0.00725536950194929,2.03760284325399
0.00796217958819887,2.03969962893812
0.00867206099185607,2.04160781404621
0.00946958816391936,2.04350700544265
0.0103701402148598,2.04537220859381
0.0114044843027427,2.04721399006743
0.0125822766640481,2.0490050283239
0.0139247704489478,2.05074397200127
0.0154399408381674,2.05241513993442
0.0171468632501595,2.05402003090887
0.0190608281638887,2.05555644384374
0.0212042205203275,2.05702793410795
0.0236013140122195,2.0584375352468
0.0262811317746677,2.05978920419232
0.0292779862444282,2.06108725400174
0.0326311575471647,2.06233568804126
0.0363871206554532,2.06353870219671
0.0405999454761638,2.06470031083365
0.0453329996756442,2.06582444783457
0.0506615954435845,2.06691514040261
0.0566757485900395,2.06797651414912
0.0634842842998359,2.06901289913096
0.0712206859023019,2.07002897990333
0.0800522731433929,2.07103007409449
0.0901932508515042,2.07202240774221
0.10192665134654,2.07301368289357
0.11564251007035,2.07401406095881
0.131911231347402,2.07503809373453
0.151101169591971,2.07608158265292
0.173395703482837,2.07713381503683
0.199471674614911,2.07821019541258
0.230315955154552,2.07933452907483
0.266722900997991,2.08052329857524
0.30514781642181,2.08167812315541
0.338099240454312,2.08262847467768
0.367010956555378,2.08346252045438
0.392555893555132,2.084228638988
0.414834166731124,2.08495428996602
0.433667014081144,2.0856598339877
0.448625306488209,2.08636354125464
0.458945206702169,2.08708469322946
0.463313530581029,2.08784725377765
0.459350624962696,2.08868670059414
0.445000380432845,2.08954749586721
0.419160452668869,2.09042761880716
0.380551230254885,2.09133747581003
0.339883309684484,2.09208912002209
0.302285151449828,2.09268873887955
0.260915735420529,2.09328835773702
0.223754471324872,2.09379690379311
0.19109699574049,2.09423384889631
0.161875652888056,2.09462586239398
0.135384075742326,2.09498926299764
0.111168250691998,2.09533470411338
0.088893982064641,2.09567033933519
0.0682687501957258,2.09600378133773
0.0489638070801079,2.09634433986618
0.0304280553462224,2.09670873560586
0.0107705802446735,2.09715543105542
0.00163109276202525,2.09739403873469
-0.00660182949825329,2.09763264641396
-0.012852800630779,2.09783320383444
-0.0185737487753031,2.09803557177619
-0.0242611075457475,2.09825960004516
-0.029702536375991,2.09850189930524
-0.0347645634908119,2.09876048122822
-0.0393746738322712,2.09903475087694
-0.0434897694874876,2.09932503516784
-0.047138941521275,2.09963740002744
-0.0501781606445237,2.09996031246737
-0.052713415121573,2.1003034965055
-0.0547563067251788,2.10066961371613
-0.0563195073405681,2.10106181094606
-0.0574162036547298,2.10148394865513
-0.0580586482789245,2.10194078152986
-0.0582567494108664,2.10243822277977
-0.0580165034493405,2.1029837398222
-0.0573369868211131,2.10358768322704
-0.0562061230983407,2.10426407655476
-0.0545972020642862,2.10503176653055
-0.0524573288599271,2.1059194062561
-0.0496769506573073,2.10697699443295
-0.0459698298079472,2.10832088269145
-0.0421540685921463,2.10968202361224
-0.0384996694529177,2.11099614360231
-0.0350419083283353,2.11226752666881
-0.0317968717790255,2.1134985063793
-0.0287713997062011,2.11469007393239
-0.0259665940402654,2.11584252658318
-0.0233795774461214,2.11695581394245
-0.0210045549415261,2.11802971933512
-0.0188335649859585,2.11906395125998
-0.0168570736466288,2.1200581834592
-0.0150644737555329,2.12101206390592
-0.0134445134401817,2.12192520366933
-0.0118985486868408,2.12285092387147
-0.0104133439757144,2.12380044169225
-0.0089931231301988,2.12477557233574
-0.00764179741592264,2.12577852999953
-0.00636306441598427,2.12681191849075
-0.00516035765905544,2.12787882995637
-0.00403679497732942,2.12898297487321
-0.00299512461039782,2.13012885811309
-0.00203766894943893,2.13132202330403
-0.00116626536440404,2.13256940183316
-0.000382202806288927,2.13387982857488
0.000313848453805781,2.13526483612171
0.000921919122995977,2.13673994222835
0.001442845737869,2.13832687812619
0.00185909977053709,2.13996929856671
0.00218122072999766,2.14166445179543
0.00242472721990521,2.1434308944116
0.00260384986084496,2.14529187777273
0.00273205290911352,2.14727900362065
0.0028225083954202,2.14943817537624
0.00288885314013994,2.15184254127418
0.0029468165203674,2.1546267129518
0.00301969486903242,2.15811659476017
0.00311818951150095,2.16189098516045
0.00324745901516134,2.16577795349748
0.00340037777104163,2.16962213673458
0.00357304410523836,2.17348235143926
0.00376216689910152,2.17740403312552
0.00396595268105672,2.18142438404553
0.00418429839199278,2.18557680313161
0.00441867683491213,2.18989356516173
0.0046719445153892,2.19440758346456
0.00494821021099036,2.19915395619476
0.00525287355775033,2.20417144770476
0.00559295997667137,2.20950385458345
0.00594496009039726,2.21472188225602
0.00631630693125895,2.21990412258616
0.00670670166969338,2.22500300690687
0.00712005851597603,2.23002648417842
0.00756028895913018,2.23497555356561
0.00803231846580385,2.23985707623923
0.008541510481933,2.24467578428935
0.00909375620866324,2.24943471896721
0.00969549713400733,2.25413484930716
0.0103538341791866,2.25877556740044
0.0110867433959122,2.26341607891025
0.0119131653737951,2.26808800022846
0.0128519009881299,2.27279669870446
0.0139292471732584,2.27756609528817
0.0151853818608314,2.2824493679672
0.0166949848262802,2.28757877817057
0.0186571398839445,2.29337598786644
0.0205363848164657,2.29830995178842
0.0221191750920653,2.3021898906216
0.0237391487356994,2.30606982945479
0.0251313186824097,2.30949271246492
0.0263041058199821,2.31262659255026
0.0272716608607965,2.31564567737212
0.0279851965740191,2.31853060022662
0.0284326948507945,2.32134260931582
0.0286020614193698,2.3242117573269
0.0284389787288107,2.32733974421946
0.0277149982077553,2.33136370095863
0.0268672484462667,2.33429257303955
0.0258011911521213,2.33722144512046
0.0247233780293085,2.33979964194756
0.0236492079065038,2.3421695198297
0.0225742357086344,2.34442996422623
0.0214997778745505,2.34663018115972
0.0204291815498795,2.34879883088646
0.0193661498242766,2.35095513257578
0.018314269572781,2.35311325416613
0.0172768814999184,2.35528438801453
0.0162570493739647,2.35747788082161
0.0152575594687051,2.35970191615355
0.0142809315361777,2.36196395683018
0.013329429565191,2.36427106081478
0.01240507241982,2.36663012159316
0.011509647271509,2.36904805608984
0.0106447145178249,2.3715319901414
0.00981162306925655,2.3740894068232
0.00901151560575851,2.37672832435418
0.00824152792357649,2.37947160961727
0.00748553302592972,2.38240104387123
0.006747449494824,2.38553802463471
0.00603114799602174,2.38890834100221
0.00534070577700952,2.39254187225954
0.00468036014991229,2.3964734234172
0.00405443118101387,2.40074385566019
0.00346719278886987,2.4054018342519
0.00292268375617731,2.41050678729579
0.00242443034334308,2.41613466514967
0.00197526560144353,2.42238716503752
0.00158309318508534,2.42929098745944
0.00127182707460284,2.43688691083951
0.0010867055708957,2.44328236383984
0.000914606535474518,2.45132129649543
0.000789964264642295,2.45964795703222
0.000696400158868215,2.4695914853044
0.000650932374133643,2.4795914853044
0.000644570467550279,2.4895914853044
0.000671572936315383,2.4995914853044
0.000726076235961538,2.50903469099774
0.000802336119786097,2.51772249900999
0.00089783261717888,2.52571198156938
0.00101201678419769,2.53306422606169
0.001145516738235,2.53983502160744
0.00129974637274049,2.54607530216799
0.00147673004676805,2.55183185003086
0.00167903369730757,2.55714780713693
0.00190975744696216,2.56206298519189
0.00217255519065774,2.56661424132721
0.0024717081697694,2.57083589638277
0.00281221919358426,2.57476013765741
0.00319995674631246,2.57841729130201
0.00364185304194895,2.58183621543602
0.0041462043473616,2.58504487718029
0.00472313777221412,2.58807105032305
0.0053853284037438,2.59094330234723
0.00614058334857728,2.59366417399475
0.00699201278147026,2.59623046509519
0.00796786440410687,2.59871229580133
0.00912747474781847,2.60121862115324
0.0106582971393125,2.60403915110248
0.0118649804075901,2.60600958492
0.0131612828160028,2.60798001873752
0.0143553094072626,2.60973450737772
0.0153964245422647,2.61127795942094
0.0163171389109651,2.61271483726408
0.0171233555590814,2.61410582843347
0.0178050083802459,2.61549588380712
0.0183394564908609,2.61693221449625
0.0186853812154192,2.61848409122147
0.0187536758333096,2.62030265088024
0.0182386373892732,2.62285698827859
0.0175243457265112,2.6245936445913
0.016578999197808,2.626330300904
0.0155473674520791,2.62794442144251
0.0144358256746711,2.62953419389004
0.0132528815883502,2.63114871535237
0.0126128432525044,2.63200902101441
0.0119841971975453,2.63286932667646
0.0105292402702866,2.63501119605996
0.00896384668436683,2.63761673668853
0.00764380747626282,2.64014739058451
0.00648965860940373,2.64271116362894
0.0054783179010741,2.64533820088965
0.0045942963344694,2.64805289798181
0.00382625076260978,2.65087923809956
0.00316625835278031,2.65384259449973
0.00260989456400899,2.65697122118886
0.0021570894181379,2.66029784864554
0.00181412518598498,2.66386165760436
0.00160286826088336,2.6675703532562
0.00153835060827948,2.6709825370156
0.00159646673271257,2.67421748399283
0.00177156059861226,2.67736382138484
0.0020771987127714,2.68057339101657
0.00253457043206903,2.68393166287247
0.00317013632626102,2.68755328739928
0.00403232417602558,2.69165980185144
0.00473510831736068,2.694624166034
0.00552060440604578,2.69758853021657
0.00625566854737278,2.70001101233731
0.00698512515174517,2.7020870139015
0.00778400714588726,2.70403222806327
0.00868507382345273,2.70589214261533
0.00971552488233377,2.70768501089405
0.0108989466526744,2.70941627209531
0.0122539302676683,2.71108312388687
0.0138013147589885,2.71268664303247
0.0155621942397755,2.71422772882726
0.0175577752199268,2.71570698423626
0.0198134167899314,2.71712727014674
0.0223569248417801,2.71849131616525
0.0252210520961538,2.71980264695034
0.0284435479728577,2.72106485217593
0.0320687808603385,2.72228174538408
0.0361484860482768,2.72345709294542
0.040744099095785,2.72459482934373
0.0459283470637079,2.72569889975022
0.0517887492251266,2.72677346037949
0.0584314761589967,2.72782290673968
0.0659873187414252,2.72885204029058
0.0746208200549579,2.72986633820395
0.0845438417351408,2.73087228341293
0.096038417318284,2.73187799427089
0.109497579813037,2.73289436708527
0.12550571017051,2.73393735225546
0.144315367791122,2.7349962987321
0.166194467098127,2.73606637328292
0.191840734458024,2.73716489122962
0.222306022536718,2.73831961251446
0.257497350653955,2.73951998265303
0.292639880130092,2.74063279375612
0.323389697540258,2.74157448490302
0.350732413579585,2.74241645061637
0.375004087040019,2.74319718043259
0.396151956008971,2.74393999914303
0.413919034217795,2.74466308865329
0.427840152579317,2.74538314239426
0.43715590257369,2.74611765084009
0.440631075703184,2.74688749947523
0.436170056539834,2.74772134486435
0.42163556484403,2.74859026290472
0.396007539651658,2.74947448913647
0.358112711830504,2.75038486494741
0.320188613217135,2.75110517957608
0.276040609137443,2.75182549420474
0.236558315284389,2.75241089151567
0.202519023205307,2.7528928928386
0.172354269150566,2.75331425259453
0.145125581319583,2.75369815526082
0.120294843666576,2.75405811903265
0.0975014652604546,2.75440346395364
0.0764608854790954,2.75474185717596
0.0569000687878275,2.75508113930133
0.0384683999650773,2.75543213269268
0.0204470373439409,2.75581800672122
0.00582441788215206,2.75617667507948
-0.00213943592040095,2.75639628353365
-0.00938152852407994,2.75661589198782
-0.0155181185021987,2.75682086774796
-0.0211295716977199,2.75702761115738
-0.0267020264849876,2.75725635220982
-0.032027925179481,2.75750363777294
-0.0369771714301902,2.75776744939095
-0.0414792898356723,2.75804718911018
-0.0454909441578269,2.7583431945035
-0.0489962552966142,2.75865725101921
-0.0519482240228466,2.75898579956385
-0.0544029767662308,2.75933494444373
-0.0563710985747474,2.75970731208226
-0.0578647480324609,2.76010606791646
-0.0588965526286129,2.76053509013346
-0.0594781884484997,2.76099914677296
-0.0596190061716841,2.76150415535484
-0.0593245098045339,2.76205757049873
-0.0585931668098522,2.76266983959527
-0.0574126921152061,2.76335482072755
-0.0557566772553594,2.76413115983938
-0.0535735130709793,2.76502703568028
-0.0507576549865241,2.76609112733044
-0.0470392560388722,2.76743423936906
-0.0432430732561837,2.76878626420973
-0.0396153890505551,2.77009037307171
-0.03618882368023,2.77135097105273
-0.0329777790598757,2.77257051246432
-0.0299878431593384,2.77375009361957
-0.0272191037343944,2.77489010212038
-0.024667843849493,2.77599056385622
-0.0223275840045616,2.77705132463969
-0.0201898259911534,2.77807214155788
-0.0182446409363592,2.77905272260012
-0.0164811600074261,2.77999273491505
-0.0148671291436428,2.78090392456464
-0.0133099708763575,2.78183816788166
-0.0118146610151924,2.78279674027837
-0.0103851905417316,2.78378165188151
-0.00902536334199056,2.78479524780388
-0.00773874036787322,2.78584029473347
-0.00652858744249632,2.78692008907868
-0.00539781985524299,2.78803860139966
-0.00434894351369631,2.78920067360054
-0.00338399184854085,2.79041229521669
-0.00250445673791749,2.79168100248818
-0.00171121009891263,2.79301647616128
-0.00100440972318424,2.79443147768558
-0.000383376644450404,2.79594339934111
0.000149162578292914,2.7975618325066
0.00057625599134284,2.7992210693778
0.000915553053648752,2.80093955898103
0.00118238997428602,2.80273687543256
0.00139121575826992,2.8046387997364
0.00155603913186171,2.80668111890522
0.00169111878299743,2.80891735288071
0.00181224974084087,2.81143654447467
0.00194008966275981,2.81441528142394
0.00210503868663038,2.81815482657617
0.00229589937737731,2.82202258283816
0.00253615540817731,2.82634171370761
0.00280855348267726,2.83082131857322
0.00310801875905409,2.83549613315683
0.00343045653303973,2.84040248520924
0.00377467470021725,2.84557979916335
0.00414305116660215,2.85107234287408
0.00451345879947832,2.85651457969717
0.00488829298492302,2.86189493548946
0.0052697137719613,2.86718956371553
0.00566144733268322,2.87239707871445
0.00606756310597277,2.87752156976543
0.00649244470027315,2.8825707147219
0.00694061391259655,2.88755149862099
0.0074167926751524,2.89246936588231
0.00792597955299295,2.89732778863011
0.00847357140166131,2.90212848194703
0.00906547892001783,2.90687161113766
0.00970824979839114,2.91155612726838
0.0104092026494827,2.91618024364493
0.0111933811629816,2.9208370531188
0.0120754884121745,2.92552208353787
0.0130772891537571,2.93025115145561
0.0142293124216885,2.9350558556835
0.0155814358213252,2.94001087980676
0.0172366683973107,2.94531344169358
0.0195518236751454,2.95175126940891
0.0212259177884217,2.95595484059826
0.0229765846545683,2.96015841178761
0.0244806422174283,2.9637847746499
0.0257418203447921,2.96701187291774
0.0267953882034952,2.97006024338166
0.0276209082572211,2.97300906129059
0.028178667068176,2.97583701480494
0.0284663489142521,2.97866549771621
0.0284516528215336,2.98165383667724
0.0280172187860674,2.98515319956393
0.0272265736455541,2.98845967835226
0.0261264204380325,2.99176615714058
0.0250348968891031,2.99449879997676
0.0239600011041351,2.99693439668801
0.0228859833625825,2.99922917626402
0.021811503514994,3.00144854475591
0.020739415949999,3.00362708399538
0.0196733861773796,3.00578685540368
0.0186170746824878,3.00794361398245
0.0175739242322401,3.01010951268194
0.0165471040866589,3.01229450648859
0.0155395042040263,3.01450716521994
0.0145537422150645,3.0167551927519
0.0135921747528209,3.01904578246444
0.0126569120360821,3.02138587205469
0.0117498234653213,3.02378236438501
0.0108725523049908,3.02624229464071
0.0100265237800734,3.02877299787479
0.00921295529520172,3.03138226805606
0.00843286538705501,3.03407852817769
0.00767033775756637,3.03693645917264
0.00692407269970685,3.03999329739584
0.00619789570339613,3.04327309202729
0.00549576664742621,3.04680392154857
0.00482181516069636,3.05061833641856
0.00418027098318837,3.05475429150302
0.00357535108859394,3.0592564815096
0.00301108348695894,3.06417852546752
0.00249104005356288,3.06958709483492
0.00201807463736341,3.07556887615013
0.00159422384985489,3.08224054101005
0.00134013565038485,3.08714030868786
0.00113415290428502,3.09204007636568
0.000895886880457676,3.09953664227585
0.000716744257209623,3.10713262373847
0.000558435887384568,3.11616105291126
0.000434779809487442,3.12616105291126
0.000351036897379788,3.13616105291126
0.00029590113067894,3.14616105291126
0.000261105036887643,3.15616105291126
0.000240707641987325,3.16616105291126
0.000230597508759033,3.17616105291126
0.00022802709185065,3.18616105291126
0.000231213794966204,3.19616105291126
0.0002390452147481,3.20616105291126
0.000250885362337296,3.21616105291126
0.00026645767618992,3.22616105291126
0.000285781071665241,3.23616105291126
0.000309144333900386,3.24616105291126
0.000337113448943062,3.25616105291126
0.000370574055833066,3.26616105291126
0.000410818705064948,3.27616105291126
0.000459432439779315,3.28610995825053
0.000514644498279161,3.29535283424184
0.000577030088718017,3.30391441718339
0.000647452053491869,3.31184277926453
0.000726953771296658,3.31918384019227
0.000816739064907331,3.32598060225061
0.000918176543630118,3.33227332836501
0.00103281727867746,3.33809972287496
0.00116241829692923,3.34349508290764
0.0013089700594775,3.34849242567031
0.00147472560919916,3.35312262373993
0.00166223685031619,3.35741454172363
0.00187439421038065,3.36139516801639
0.0021144753036568,3.36508973244771
0.00238620189276295,3.36852182885875
0.00269380987309518,3.37171354706368
0.00304213722049487,3.37468560657774
0.00343673303552107,3.37745749301669
0.00388400086876474,3.38004761320067
0.00439138952263402,3.38247347310973
0.0049676537735954,3.38475188773004
0.00562322732274909,3.38689925357241
0.00636040843464781,3.38890615615059
0.00717186057398061,3.39075407206153
0.0080668112617984,3.39247276492757
0.00905880253389732,3.39409139454139
0.0101681140092983,3.39563989865468
0.0114285122930645,3.39715427013421
0.0129593794614159,3.3987413844246
0.0150146512765789,3.40057328234428
0.016887183657619,3.40204499978399
0.0189250300223113,3.4035167172237
0.0207796610513199,3.40479735059856
0.022402947306274,3.40591669189528
0.0238616952871465,3.40696254201037
0.0251718020839241,3.40798315613562
0.0263234194149844,3.40901519217081
0.0272883259217404,3.41009999328995
0.028011191281395,3.41130456806164
0.0283591464491984,3.41280125427614
0.028043725119483,3.41449872539
0.0270915903060269,3.41619619650386
0.0259516533783252,3.41758942811894
0.0246504934953939,3.41892595953538
0.0231841312640502,3.42029605843402
0.0215602454475287,3.42174331258127
0.019784131012384,3.42330748535687
0.0185024098860841,3.42445096059502
0.0172773511366494,3.42559443583316
0.0146002120546935,3.42833733386868
0.0119695953490361,3.43147925345798
0.00996639753993726,3.43430985577699
0.00840858195952198,3.43689471145657
0.00713183299761435,3.43936940984881
0.00602295331418325,3.44188470564598
0.0050558248667287,3.44446966719027
0.00421257414746116,3.44714727980305
0.00347909926898916,3.44994071527672
0.00284388810150792,3.45287494159685
0.00243839939816196,3.45511219689789
0.0020911230985715,3.45734945219893
0.00181659132446946,3.45940636366568
0.00158627128645726,3.46140077753616
0.00138099089056287,3.46346147185935
0.00118705039364623,3.46575295838119
0.000985961996231684,3.46866376892949
0.000764746640010526,3.47301589818129
0.000638403227310194,3.47677759354752
0.000568469510154795,3.48020242787732
0.000536833886083331,3.48392416746992
0.00055738627127386,3.48836588571454
0.000652833807396001,3.4931037694026
0.000814328703588103,3.49737437535047
0.00103966492125595,3.50128280857483
0.00132790730793123,3.50485143169309
0.00168048272218917,3.50811681857099
0.00210038084208493,3.51111583826918
0.00259167834276337,3.51388230502929
0.00315967682175824,3.51644808416379
0.00381114086110485,3.51884302665848
0.0045538866743459,3.52109272555929
0.00539581622843238,3.52321678229145
0.00634716033003959,3.52523523075669
0.00741482099248573,3.52715667851777
0.00863800600688851,3.52903456968496
0.0100352037638718,3.53086938267517
0.0116094783257835,3.5326417099268
0.0133600806391566,3.53433511409847
0.0152904030607474,3.53594263645676
0.0174128010718704,3.53746629565913
0.01974713104972,3.53891193344658
0.0223278912301447,3.54029074601444
0.0251842297358364,3.54160689124125
0.0283667281529984,3.54287116645387
0.0319233520773265,3.5440886577073
0.0358983792611198,3.54526086075333
0.0403622578119699,3.54639474980239
0.0453872889840676,3.54749415686211
0.0510547086651246,3.54856224445338
0.0574678513323814,3.54960356506944
0.0647495119913161,3.55062249240853
0.0730491032177156,3.55162362780054
0.0825558382876108,3.55261245167309
0.0935155344405026,3.55359566004701
0.106255534285607,3.55458157325247
0.121232975693466,3.55558136828022
0.139135783732129,3.55661180317753
0.159944198732717,3.55764714489149
0.184176982554102,3.55869620903311
0.212614003272272,3.55977613153575
0.24642811911065,3.56091452107974
0.284898790078537,3.5620837607664
0.322261381020342,3.56314382219298
0.354469848172868,3.5640339225239
0.382731587848222,3.56482579973009
0.407572114102887,3.56556033560316
0.429038881045442,3.56626303447397
0.446887346205293,3.56695401727706
0.460571886542059,3.56765253727963
0.469109928775161,3.56838072466104
0.470726836978194,3.56916935208269
0.46272630289552,3.57001768894692
0.44368372906423,3.57088092213379
0.412358334113033,3.57177088040926
0.367337342076025,3.5726975825686
0.327354532293854,3.57336799882577
0.281968672831051,3.57403841508293
0.240819455740708,3.57459931995185
0.205298535953648,3.5750657271936
0.173916820710367,3.57547465341271
0.145680866656385,3.57584781195323
0.119998501081486,3.57619824388815
0.0964680322420941,3.57653509434845
0.0747700377827825,3.57686605698562
0.0545922536454607,3.57719931271986
0.0355134414783417,3.57754692733387
0.0165641487085112,3.57793805671204
0.000857297298616923,3.57831414388012
-0.00659162538337018,3.57851607419104
-0.0133846887108772,3.57871800450195
-0.0192477129683731,3.5789094734229
-0.02503667453707,3.57911834997424
-0.0307002243158541,3.57934728532102
-0.0360535374978801,3.57959334210067
-0.0409898459886067,3.57985517309473
-0.0454523899738122,3.58013259371343
-0.0495135833336129,3.58043517064827
-0.0528940617503551,3.58074370444742
-0.0557604216209436,3.58107101759098
-0.0581228971356798,3.58141950397753
-0.0599931348124579,3.58179193044708
-0.0613842755122854,3.58219169886036
-0.0623093573035282,3.58262299056857
-0.0627798644313976,3.58309097762457
-0.0628042377255735,3.58360213545487
-0.0623861118833107,3.58416471803847
-0.06151980618103,3.58479080006095
-0.0601872236341365,3.58549590116276
-0.0583513773510148,3.58630219240475
-0.0559389981576283,3.5872450820671
-0.0527879937231234,3.58839249979991
-0.0488051675556205,3.5897926674417
-0.0449464390691401,3.59114025267219
-0.0412661690233788,3.59244302429508
-0.0377906063320771,3.59370462783549
-0.0345324589582581,3.59492669703742
-0.0314967610228825,3.59610983326387
-0.0286835191340832,3.59725411635369
-0.0260891329875707,3.59835937266299
-0.0237073070946131,3.59942531428482
-0.0215297298850099,3.60045160695381
-0.0195466301456962,3.6014378963489
-0.0177472538604949,3.6023838086387
-0.0161169110795998,3.60329086286153
-0.0145423276257119,3.60422083780344
-0.0130286631109189,3.60517486782197
-0.0115799156551758,3.60615490812424
-0.0101999065633017,3.60716323709411
-0.00889222243974199,3.60820254004081
-0.00766016245588515,3.60927601229239
-0.00650668229552448,3.61038749649209
-0.00543433452754702,3.61154166937145
-0.00444520454247087,3.61274430229017
-0.00354084027328121,3.61400263556566
-0.00272217229182349,3.61532593558151
-0.00198941778373207,3.61672636026724
-0.00134195565849164,3.61822037755416
-0.000778146088674399,3.61983125595517
-0.000322067916940988,3.62148194600072
4.37833094668388e-05,3.62318906045056
0.000335012970128013,3.6249714195385
0.000566290194241296,3.62685357605284
0.000751795075204002,3.62886926600423
0.00090588422862529,3.63106824535956
0.00104429203068602,3.63353158664876
0.00118707778328804,3.63641424941908
0.0013703010962823,3.64012517591951
0.00157497812484745,3.64393876700772
0.0018186026304488,3.64804416886495
0.00207872318217974,3.65210251143388
0.0023522082358421,3.65617589718131
0.00263674050688497,3.66031359844511
0.00293155507737293,3.66455554202373
0.00323758049582915,3.66893743023542
0.00355724791970995,3.67349352035923
0.00389428575786571,3.67825876459478
0.00425359744022865,3.6832701089354
0.0046414077660718,3.68856800564586
0.00503945258718046,3.69385059426881
0.00544747135253746,3.69907399483065
0.00586809507755421,3.70422982105861
0.00630423648598427,3.70930935110569
0.0067600163007713,3.71431477509796
0.00724013755784188,3.71925040479647
0.00774986738326049,3.7241215019006
0.0082948916022934,3.7289317830571
0.00888136426542958,3.73368315906831
0.00951599017164812,3.73837581285866
0.0102061472300795,3.74300866312812
0.0109730489496324,3.7476551864611
0.0118338520365624,3.75233150627107
0.0128083853619532,3.75704728953851
0.0139247134428668,3.76182914152603
0.0152267479465828,3.76673791621192
0.0167991705845523,3.77192804278536
0.0188887564825219,3.77793019473336
0.0206833566751025,3.7825445798898
0.0225919791148883,3.78715896504624
0.0241726979647839,3.79094558477658
0.0254826162256501,3.79423656512164
0.0265801960725208,3.79730894180378
0.0274632529013512,3.80029818827797
0.0280760781244425,3.80314116483984
0.0284208353147886,3.80595786510185
0.0284735439312569,3.80889488611904
0.0281456723940741,3.81223256096106
0.0271451085498265,3.81658648542671
0.0262509786474663,3.81928232173124
0.0251937714377146,3.82197815803577
0.024122071604872,3.82443652043862
0.0230491530715839,3.82674601264685
0.0219753888669477,3.8289730118764
0.0209035405463199,3.83115466523513
0.01983724841135,3.83331437393388
0.0187802049115327,3.83546860076784
0.0177359017679406,3.83762988997972
0.0167075623261181,3.83980840369935
0.015698130248123,3.84201280101554
0.0147102748483378,3.84425078974928
0.0137464042692141,3.84652949237551
0.0128086749810832,3.84885571875486
0.0118990026595026,3.85123617463268
0.011019075116728,3.8536776274152
0.0101703557426634,3.85618707762142
0.00935409955865738,3.85877188842004
0.00857135629686476,3.86143995446353
0.00780664813013194,3.86426268321149
0.00705756177502046,3.86728006272925
0.00632790370526056,3.87051539495121
0.00562160711324787,3.87399590647755
0.00494278214061609,3.87775311781937
0.00429565398537857,3.88182370135465
0.003684458667057,3.88625069433376
0.00311327256749214,3.89108549739047
0.00258578474240016,3.89639127983827
0.00210498719738501,3.90224956805903
0.00167306570808913,3.90876918928044
0.00130091039415155,3.91589283579651
0.000990372288974627,3.92359675185789
0.000802317462123047,3.92999194427662
0.000618021626175821,3.93848714397151
0.000474092162506232,3.94769729038953
0.000365320728450403,3.95752150285777
0.000288959006228718,3.96752150285777
0.000237563434960406,3.97752150285777
0.000203977656836673,3.98752150285777
0.000182980575249932,3.99752150285777
0.000170881964294639,4.00752150285777
0.000165164074959257,4.01752150285777
0.000164153537463586,4.02752150285777
0.000166761107379387,4.03752150285777
0.000172300171202836,4.04752150285776
0.00018037024032036,4.05752150285776
0.000190785442432522,4.06752150285776
0.000203532542065681,4.07752150285776
0.000218749625296223,4.08752150285776
0.000236721602772249,4.09752150285776
0.000257891987376053,4.10752150285776
0.000282893061630479,4.11752150285776
0.00031259970901862,4.12752150285776
0.00034821698768559,4.13752150285776
0.000391419623164101,4.14752150285776
0.000441694433445105,4.1570220714256
0.000498852639805009,4.16582579512928
0.00056371672046457,4.17397448841425
0.000637307884264641,4.18151594862216
0.000720804563790559,4.18849512993686
0.000815546432609688,4.19495403085674
0.000923050936455353,4.20093189188991
0.00104503533528045,4.20646537676387
0.0011834429515246,4.21158872718096
0.00134047175193209,4.21633391176549
0.00151860839755618,4.22073077421652
0.00172066670453569,4.22480717832593
0.00194983436520942,4.22858914213387
0.00220972679107405,4.23210096804609
0.00250445448102505,4.23536537906701
0.00283870536716026,4.23840365945161
0.00321784853394129,4.2412357964739
0.00364806863471767,4.24388063529909
0.00413654332689647,4.24635605564773
0.00469168547034961,4.24867917759831
0.00532348546368954,4.25086662120229
0.00604044236847045,4.25292549853831
0.0068301440447136,4.25481746879269
0.00770100237521437,4.25657267214773
0.00866553976821515,4.25822080242144
0.00974220951267873,4.25979161886066
0.0109609745145119,4.26131950352639
0.0124133678638282,4.26288967934229
0.014308450000254,4.26465327429205
0.0163294111940501,4.26629747240274
0.0185619629340285,4.26794167051342
0.0204436136686873,4.26925767059189
0.0220653140812312,4.27038807365622
0.0235199178754993,4.27144062234372
0.0248262882401222,4.27246591138577
0.0259753774614667,4.27350086505614
0.0269397969483503,4.27458636338828
0.0276659167750443,4.27578747430493
0.0280275572979486,4.27726663637699
0.0277316527211041,4.27898970167987
0.0267811034987933,4.28071276698274
0.0256421217522321,4.28211555917674
0.0243446951617527,4.28345545731648
0.0228833418989273,4.28482665858976
0.0212654726157163,4.28627332848924
0.0194965139351186,4.28783497963465
0.0182337670642192,4.28896292111831
0.0170252060008961,4.29009086260196
0.0143590931816007,4.29281845903067
0.0117240162711737,4.29595583131777
0.0097118406360588,4.29878550473513
0.00814377077261515,4.30137037591518
0.00685542101327298,4.30384628404357
0.00573364960409547,4.30636294859943
0.00482056132672083,4.30875462126339
0.0040686393548219,4.31104132494721
0.00343880766506435,4.31325483017424
0.00289973448422653,4.3154381002579
0.00242340248000565,4.3176623338488
0.00197516316294909,4.32009422903106
0.00161084415332249,4.32239633146755
0.00135791184044434,4.32422122915027
0.0011327509055862,4.32604612683298
0.000952056463210326,4.32768061306164
0.000796856744201775,4.32923304759748
0.000654497035140491,4.33080377495264
0.000516102370694955,4.33249463055386
0.000370648757438687,4.33448761894135
0.000182748474404681,4.33749292952154
8.40635057167618e-06,4.34090157344029
-0.000112983354209252,4.34381279060828
-0.000213132682390126,4.34673924251587
-0.000305503276668372,4.35014497703028
-0.00039131051797229,4.35458496876026
-0.000447608993708386,4.36024331161216
-0.000443614327499332,4.36513727517525
-0.000386988881059431,4.36958569725344
-0.000278162430289526,4.3735864846293
-0.000115563282389776,4.37718975262151
0.000103523371903846,4.38044249965794
0.000383118331956673,4.3833961704572
0.000728678997605194,4.38610127418778
0.00114887303330298,4.38861399724103
0.00165772453736642,4.39099526621295
0.00227917775296078,4.3933165809209
0.00306121421959189,4.39568499148938
0.00411235202905993,4.39829159062121
0.00553141820425098,4.40120064246684
0.00728851212967886,4.4042234175041
0.00861752873943956,4.40620993646117
0.0101171957142463,4.40819645541824
0.0116559138635704,4.40998620993694
0.0132619633516787,4.41161966830885
0.0149978878562338,4.4131562325479
0.0169046159758961,4.41461764531892
0.0190219501139763,4.41601722639083
0.0213909150881919,4.41736378553534
0.0240464751312751,4.41865946660897
0.0270286227280578,4.41990740821096
0.0303820330845838,4.42111079160917
0.0341495788053073,4.42227053920379
0.0383896343502662,4.42339082101681
0.0431649320023493,4.42447450457942
0.0485485653032674,4.42552464664057
0.0546244809951121,4.42654414939144
0.0614984010033168,4.42753704543504
0.0692950095773242,4.42850713294296
0.0781665082380375,4.42945853637529
0.0883016591047723,4.43039585239677
0.09993876020578,4.43132434229983
0.113384524564134,4.43225018914874
0.129048640724375,4.43318122317938
0.147495300146366,4.43412763109997
0.169434274565774,4.43509922933251
0.194836465943191,4.43607328424315
0.224356865894219,4.43705964203428
0.258870428073418,4.43807238655205
0.299677410315484,4.43913519678085
0.347664809458095,4.44026524743131
0.388598387223296,4.44117410977569
0.422492403767,4.44191990270189
0.451867820578073,4.44258812310954
0.477544335111998,4.44321923452071
0.499584520758338,4.44383853190968
0.517600309943918,4.44446855264996
0.530671067974527,4.44513666019635
0.536820907669473,4.44588859290203
0.5326854111478,4.44668603416836
0.516725319866156,4.4475099663039
0.487446790941345,4.44837681050685
0.442917259407398,4.44929830993615
0.381206768491601,4.45028006109229
0.336349122248685,4.45088786178868
0.287328499414021,4.45149566248508
0.243767251069515,4.45200798321853
0.206354299420211,4.4524398602153
0.173442553981296,4.45282214376938
0.143944955905548,4.45317359750269
0.117196142304581,4.4535059697425
0.0927324761769703,4.45382793316954
0.0701687722393754,4.45414740795901
0.0490900886819033,4.4544740548788
0.0288073320271735,4.45482570373355
0.00673693346281703,4.45527183017324
-0.00202023107911109,4.45547585213731
-0.00997774504617471,4.45567987410138
-0.0164278816244943,4.45586176938373
-0.0224473879761783,4.45604840917851
-0.028473241886359,4.45625603803462
-0.0342671214792789,4.45648124842014
-0.0396792661253317,4.45672205186441
-0.0446270024692951,4.4569777984396
-0.0490677876311655,4.45724873175996
-0.052983294346246,4.45753574416758
-0.0563626389829265,4.4578402621373
-0.0591933633707191,4.45816286310789
-0.0614924684388476,4.45850555229715
-0.0632887152089578,4.45887282992872
-0.0645967590805672,4.45926840101114
-0.0654303403336843,4.4596968275569
-0.0658008701090364,4.46016381079758
-0.0657157026688011,4.4606765884798
-0.0651757767607187,4.46124466700207
-0.0641697767273309,4.46188209083091
-0.0626703373050471,4.46260733126212
-0.060621847508396,4.46344862349399
-0.0579074626974099,4.46445556561065
-0.0542183662774714,4.46574495479813
-0.0501179977087465,4.46714211331549
-0.0461527592116358,4.46849433100441
-0.0423706664910726,4.46980606622695
-0.0387952576285744,4.47107948278164
-0.0354386342938358,4.47231534384497
-0.0323061126580692,4.47351370572698
-0.0293983367091397,4.47467428755492
-0.0267124397702363,4.47579666585533
-0.0242428211160421,4.47688037455746
-0.0219817541965221,4.47792495161072
-0.0199199091813521,4.47892995370484
-0.0180468186387801,4.4798949506785
-0.0163512938822663,4.48081950599943
-0.0147638766728468,4.48173766351519
-0.0132354532015133,4.48267932210398
-0.0117705492259163,4.48364603826411
-0.0103730886344599,4.48463991783786
-0.00904679724101146,4.48566343136511
-0.00779514879034829,4.48671950636
-0.0066213118473201,4.48781164627137
-0.00552809399364986,4.48894409065633
-0.00451788307021101,4.49012203586011
-0.00359258465201099,4.49135194741683
-0.00275355403536836,4.49264201676022
-0.00200151937809054,4.49400285534758
-0.00133648950654555,4.49544860133627
-0.000757633326760206,4.49699879432602
-0.000276926001919311,4.49862829817541
0.000104316681486989,4.50030488850997
0.000402550050462654,4.50204686885601
0.000632529989530794,4.50387560594729
0.000808186754207965,4.50581968917396
0.000943085158270097,4.50791972805452
0.00105114295740785,4.51023840152618
0.00114807063946134,4.51288520145058
0.00125560157170864,4.51609810590737
0.00139000043403846,4.5198366025863
0.00155576532541499,4.52383960374117
0.00177577928536249,4.52850167585279
0.00203099192285115,4.53346192518173
0.00228388022833603,4.5381742879639
0.00251022473305142,4.54232673285939
0.00272541080315207,4.54625634497649
0.00293671450467235,4.55010280302648
0.00314877776614401,4.55394130355478
0.00336532614907739,4.55782241034254
0.00358975726796703,4.56178574691871
0.00382537916330501,4.56586530346238
0.00407559820538404,4.57009278521519
0.00434408497990663,4.57449973673555
0.00463495949632587,4.57911898399407
0.0049530783386429,4.58398609904061
0.00530448715968736,4.58914060578936
0.00568194917027602,4.59441743212677
0.00607200712107422,4.59958608638151
0.00648129166877216,4.60470080339458
0.00691098866315945,4.60973278629879
0.00736572556427337,4.61469121562949
0.00785022094761904,4.6195793169296
0.0083700265825705,4.62440278987424
0.00893117057194826,4.6291651158736
0.00954023566398094,4.63386782767061
0.010204438612455,4.63851072806258
0.0109412140934229,4.64314922838147
0.011769820104866,4.64781926365691
0.0127083470867093,4.65252505800572
0.0137828681114189,4.6572897609852
0.0150327763094761,4.66216428323753
0.0165301852983061,4.66727445687503
0.0184620246509965,4.67301295963667
0.0208824075009688,4.67932123669081
0.0224114399128653,4.68302911933947
0.0239594966937416,4.68673700198813
0.025304508533522,4.69007992674914
0.0264376503669163,4.693178765358
0.0273644986776904,4.6961908553764
0.0280253469319022,4.69905159549205
0.0284196376945824,4.70186278053401
0.0285296407724233,4.70476205057579
0.0282857709156097,4.70798488168538
0.0273647687809844,4.71239199074312
0.0264872204398632,4.71516279496995
0.0254285018970805,4.71793359919677
0.0243550786913221,4.72043252822758
0.0232816961182797,4.72276272719835
0.0222073781411985,4.72500077448755
0.0211344494732368,4.72718788115939
0.0200664643777468,4.72934928613977
0.0190071280158385,4.73150242041562
0.0179599728262832,4.73366038800938
0.0169282709929134,4.73583368728156
0.0159150148240104,4.73803118118159
0.0149229216061846,4.74026069098811
0.0139544450084053,4.74252938972832
0.013011784171502,4.74484408990327
0.0120968968015513,4.74721145442949
0.0112115084541743,4.74963817554462
0.0103571182518324,4.75213114196392
0.00953501549290496,4.75469756568932
0.00874628077322981,4.75734515348037
0.0079785856867632,4.76013221105015
0.00722577688048575,4.76310991980955
0.00649167216498667,4.76630079332583
0.00578017062842046,4.76973133839582
0.00509535508434609,4.77343224762674
0.00444144312063277,4.77743919254312
0.00382268834700009,4.78179398719493
0.00324322634070292,4.78654641113457
0.00270686131031518,4.79175728716928
0.00221675637372087,4.79750455296178
0.0017752822624153,4.803891949758
0.00139109570218337,4.81091496693852
0.0010700585527589,4.81849794932277
0.000831255575288349,4.82636393063596
0.000671386741230772,4.83371448488612
0.000522946698283699,4.84299711150734
0.000416585510351465,4.85246231517217
0.000339962092764148,4.86246231517217
0.000290299813575682,4.87246231517217
0.000260171754997094,4.88246231517217
0.000244203449950114,4.89246231517217
0.000238660007716193,4.90246231517217
0.00024108796809815,4.91246231517217
0.000249988551292725,4.92246231517217
0.000264564912016011,4.93246231517217
0.000284560543757879,4.94246231517217
0.000310180593114951,4.95246231517217
0.00034208330655681,4.96246231517217
0.000381438458933027,4.97246231517217
0.000430066162181124,4.98246231517217
0.00048687108350416,4.99188255256529
0.000551770459853626,5.00058886275213
0.000625651280271566,5.00862983839433
0.000709653897705317,5.01605707092227
0.000805116210112876,5.02291848985634
0.000913570880652294,5.0292584889126
0.00103676115896608,5.03511825192569
0.00117666500350701,5.04053602667849
0.0013355254397608,5.04554734767162
0.00151588391672775,5.05018524676195
0.00172062247921004,5.05448045434541
0.00195301126150943,5.05846158857863
0.00221676832540465,5.06215532305744
0.00251613042601286,5.0655865539453
0.00285594349906612,5.06877857653393
0.00324177846275863,5.0717532669379
0.00368008075052092,5.07453127259178
0.00417837416809427,5.07713223540176
0.0047455444642913,5.07957506361389
0.00539224932066874,5.08187828080439
0.00612166736828369,5.08403389648791
0.00692752009455005,5.08602333845899
0.00782056283293885,5.0878804946191
0.0088171250117804,5.0896397370021
0.0099432513882898,5.09133905827935
0.011246864793335,5.09303062445445
0.0128965619020892,5.09487419740169
0.0154173319034889,5.09728086367805
0.0170037231542148,5.09864200952406
0.0186629578543335,5.10000315537007
0.0201733716497627,5.10123211948282
0.0215264406802317,5.10236876587384
0.0227382860706236,5.10346640302851
0.0238027232569615,5.10456444783528
0.0246965471429843,5.1057031821767
0.0253746520071635,5.10694124429537
0.0257396490038917,5.1084064738099
0.0253939213759211,5.11064594642561
0.0246393684664783,5.11212334777132
0.0235676620816164,5.11360074911703
0.0223484290129696,5.11499274484487
0.020984252740705,5.11639737733399
0.0194843127151088,5.11786084196838
0.0178567433294979,5.11942039265324
0.017282825108568,5.11997197442133
0.0167159000624023,5.12052355618942
0.0157886312293306,5.12145575943125
0.0133610998090963,5.12411514935012
0.0112065966451068,5.12682613101173
0.00943484540029441,5.12940610408706
0.0079666082712019,5.13188052682596
0.00673256909355208,5.13428635855412
0.00567384968239864,5.13667565502426
0.00473419007057534,5.13914050055278
0.00386224457664836,5.14182797582954
0.00309639572751236,5.14463482227453
0.00265869995706805,5.1464958487861
0.00226955550322678,5.14835687529767
0.00194759533354134,5.15008091268986
0.00166561102881572,5.15176126718362
0.00140333093169151,5.15350043037632
0.00114378533687887,5.15542906161832
0.000859549676686626,5.15784332427295
0.000485195313029343,5.16168743605677
0.000205850523647763,5.16528763849979
3.34785609901005e-06,5.16850339907036
-0.000173585165830217,5.17195992110099
-0.000343381355607467,5.17622280213241
-0.000499196875807616,5.18189596879389
-0.00057222828928934,5.1868411234483
-0.00058249270788109,5.19135219978439
-0.000534012231695264,5.19542764705257
-0.000427382217257439,5.1991183294107
-0.000260793325932804,5.20246997741234
-3.04241167933848e-05,5.20553547524188
0.000270307134475238,5.20837418355113
0.000652011457630181,5.21104909868839
0.00113311417910914,5.2136359622648
0.00174798471834721,5.21623710562838
0.00257568852230142,5.21904151610425
0.00368125308308579,5.2220977197258
0.00508616314667929,5.22534349521456
0.00625333707819456,5.227684771836
0.00757399799357995,5.23002604845745
0.00885747383322547,5.2320221357744
0.0101958583366001,5.2338433131636
0.0116028529783992,5.23550949506512
0.0131577662414788,5.23710420254553
0.014872910557518,5.23862013049817
0.0167967270334474,5.24008107188956
0.0189496582423853,5.24148289993474
0.0213711137446026,5.24283373668231
0.0240885136446279,5.24413235852993
0.0271420866969951,5.2453830113947
0.0305734231577608,5.24658826296965
0.0344281552810135,5.2477503748185
0.0387594086684962,5.24887211563833
0.0436332149111106,5.24995740367391
0.0491245813726147,5.25100958477776
0.0553226085386538,5.25203218617237
0.0623341712973655,5.25302894203101
0.0702877059594759,5.25400371726369
0.0793439715849541,5.25496108948805
0.0897024905070358,5.25590600919306
0.101617846747689,5.25684423993732
0.115423489470189,5.25778278510925
0.131570787805838,5.2587305817775
0.150701590669621,5.25969991974224
0.173185541053012,5.26068451184766
0.199261525891409,5.26167586530455
0.229651337652166,5.26268590323436
0.265354446048654,5.26373240532994
0.307974655211182,5.2648478397295
0.34354735414506,5.26570715551322
0.380650645217362,5.26656647129695
0.413593178747614,5.26732478077736
0.442368724648217,5.26801021872985
0.467498059909598,5.26865759489465
0.489002174999021,5.26929161663468
0.506488146706497,5.26993435587191
0.519058725997147,5.2706118755333
0.524854702176479,5.27136544266833
0.52068328624321,5.27217295225625
0.504899778166931,5.27300364656349
0.476081752476659,5.27387309748112
0.432426963415089,5.27479237385581
0.371976822784426,5.27577011284946
0.328638404695036,5.27636762108916
0.281358727895802,5.27696512932886
0.239150472406873,5.27747170426504
0.202687514431719,5.27790147765565
0.17048785538478,5.27828347268214
0.14155949648759,5.2786355693969
0.115284900713192,5.27896914115636
0.0912269011715162,5.27929270243325
0.0690164199825005,5.27961413224251
0.048248309322729,5.27994317236352
0.0282346085288004,5.28029807545852
0.00630504497926654,5.28075210612223
-0.00211961848901857,5.28095322405418
-0.00978972324737573,5.28115434198613
-0.0161651052155037,5.28133803888008
-0.022148669747078,5.28152770492409
-0.0281223838617641,5.28173831544586
-0.033854642950845,5.28196649812581
-0.0392011165520627,5.28221032333692
-0.0440824817650145,5.28246918790314
-0.0484582154475368,5.28274337436588
-0.0523095887122738,5.28303381049995
-0.0558706657639121,5.28336815648765
-0.0585863119379396,5.28369512854067
-0.060786857954768,5.28404385430629
-0.0624895190050502,5.28441779222862
-0.0637086234752743,5.28482075245927
-0.0644574836177566,5.28525744558895
-0.0647468828348118,5.28573376399126
-0.0645833294636331,5.28625719976684
-0.0639662881378219,5.28683786006867
-0.0628826478040921,5.28749018632057
-0.06130253730389,5.28823357905326
-0.0591657325739101,5.28909804510657
-0.0563441209285813,5.2901375128255
-0.052481866006179,5.29148628911242
-0.0484313283473896,5.29287203488591
-0.0445285658903543,5.29421341995323
-0.0408155064987167,5.29551440071641
-0.0373126382080427,5.29677692346828
-0.0340301918830359,5.29800166028743
-0.0309721311033142,5.29918864093016
-0.0281380330755822,5.30033758991787
-0.025524164862833,5.30144810359463
-0.023124227476896,5.30251974021888
-0.0209299492298515,5.30355206053924
-0.0189315977266461,5.30454463850741
-0.0171184344430047,5.30549705277868
-0.0154791183790604,5.30640886484242
-0.0139121435628982,5.30733431245082
-0.0124058320972553,5.30828361491415
-0.0109643563313419,5.30925859130462
-0.00959158965651277,5.31026145260936
-0.00829118983449214,5.31129480139464
-0.00706654694632736,5.31236173053742
-0.00592072974608367,5.31346595344967
-0.00485642936324356,5.3146119805892
-0.00387589997489757,5.31580536458378
-0.00298089547238477,5.31705305050754
-0.00217260010544099,5.31836389376249
-0.00145154918735444,5.3197494580842
-0.000817532226730617,5.32122530998798
-0.000269462800758758,5.32281326113871
0.000173694834603294,5.32445550992963
0.000522853972399971,5.32615071998701
0.000793690894777119,5.32791742551661
0.00100063674221119,5.3297789243405
0.00115741524500722,5.3317669025763
0.00127755964200977,5.33392742392001
0.00137526599998128,5.33633397270515
0.00146728622680708,5.33912202020781
0.00157947233386744,5.3426208183278
0.0017156654646231,5.34639535067963
0.00189168601306917,5.35056885302287
0.00208816092376573,5.35469332816457
0.00228980609272275,5.35862580941648
0.0024956329222639,5.36248475592869
0.00270553970646293,5.36634213564372
0.00292031313584097,5.37024738030792
0.0031415549626406,5.37423945549298
0.00337153603702697,5.37835238106196
0.00361306290137302,5.38261817736416
0.00386940105368635,5.38706885782774
0.00414428436045401,5.3917380020528
0.00444206273616526,5.39666222352907
0.0047680516106861,5.4018824559106
0.00512117535728383,5.40732297109013
0.00548072641735792,5.41261612855755
0.00585556961678947,5.4178600034305
0.00624559947182641,5.423008432612
0.00665528751072602,5.42807676158359
0.00708867324249134,5.43306883731312
0.00755056650853348,5.43799286955714
0.0080460300541479,5.44285402472743
0.0085805515182606,5.44765565204193
0.00916008515947889,5.45239891633459
0.00979118060212701,5.45708334421488
0.0104811233164227,5.46170743841678
0.0112546889012951,5.4663644315295
0.0121263837500713,5.47104910952931
0.0131177906038802,5.4757771674303
0.0142590570250535,5.48057949445214
0.0155992310908684,5.48552908776043
0.0172388084418336,5.49081773281498
0.0195184200053068,5.49719667119219
0.0212012759905045,5.50144212546463
0.0229651190592443,5.50568757973707
0.0244758694365549,5.50933206458136
0.0257415591328662,5.51256651789858
0.0267995746765437,5.51561721780472
0.0276314716450994,5.51857044818062
0.0281955044119691,5.52139942443864
0.0284899291059311,5.52422520419362
0.0284836196380784,5.52720503227537
0.028063764302434,5.53067841981272
0.0272758916050737,5.5340123287307
0.0261715485643245,5.53734623764867
0.0250782557817779,5.54008790602173
0.0240029566451838,5.54252613585093
0.022928846401827,5.54482158131058
0.0218543559038645,5.54704068030039
0.0207822945916497,5.54921832620341
0.0197163195293677,5.55137670316576
0.0186600927064084,5.55353161384666
0.0176170615701095,5.55569521965387
0.0165904013269146,5.55787745816915
0.015583008384133,5.5600868614603
0.0145975064111695,5.56233107840014
0.013636258224641,5.56461722825842
0.0127013788639094,5.56695215717705
0.0117947421165031,5.56934265397893
0.010917994884009,5.57179561394113
0.0100725636100966,5.57431820592207
0.00925966591337319,5.57691802129079
0.00848031787586064,5.57960324121911
0.00771715965475737,5.58245361632976
0.00697017172121857,5.58550194371769
0.0062431585333075,5.58877220344539
0.00554007977821051,5.59229231251045
0.00486506739771506,5.59609463447043
0.00422235796239437,5.60021690363485
0.00361618179670367,5.60470355006923
0.00305058947825417,5.60960786274688
0.00252919100017212,5.61499603745631
0.0020548909619412,5.62095410340567
0.00162978603094675,5.62759790284182
0.0012677281185716,5.63480369172397
0.000980451990632773,5.64266409215313
0.000802828389733598,5.64944383653996
0.000633516891659996,5.65804556771811
0.0005068764650553,5.66693595619508
0.000407674617142188,5.67693595619508
0.00034253964859726,5.68693595619508
0.000302031088801663,5.69693595619508
0.000279285668232654,5.70693595619508
0.000269488241934165,5.71693595619508
0.000269434199707453,5.72693595619508
0.000277122096975102,5.73693595619508
0.000291428698683097,5.74693595619508
0.000311893671866836,5.75693595619508
0.00033860659681481,5.76693595619508
0.000372179793614759,5.77693595619508
0.000413800268346593,5.78693595619508
0.000465049490740909,5.79687753594059
0.000523920920465126,5.80609293527646
0.000590939983661485,5.81461106524002
0.000667003417236968,5.82248420399471
0.000753237975057624,5.82976169408436
0.000850965109390465,5.8364893007954
0.00096169957460976,5.84270953083927
0.00108716558820663,5.84846192248424
0.00122932124941866,5.85378327550204
0.00139038841837059,5.85870783750155
0.00157288533394942,5.86326749499312
0.00177966877762379,5.86749196017206
0.00201398108478915,5.87140894187486
0.00227950790222905,5.8750442909669
0.00258044886925395,5.87842215547761
0.00292160500134818,5.88156514836141
0.00330849239922601,5.88449451325796
0.00374748679178596,5.88723029919274
0.00424601977569806,5.88979156991486
0.00481285152241631,5.89219665366686
0.00545846026011217,5.89446346047601
0.00618725164807267,5.8965876457964
0.00699129933665293,5.89854559684026
0.0078806559851797,5.9003699724472
0.00887044474853665,5.90209352239733
0.00998418745614472,5.90375131141932
0.0112634404410167,5.90538886037859
0.012848366611023,5.90713754829198
0.0151752162495142,5.90933434712755
0.0168423651573839,5.91073728574989
0.0186123503130809,5.91214022437223
0.0202325313164243,5.91339537563966
0.0216760594640934,5.91453352293325
0.0229730241465318,5.91561820920795
0.0241246764699222,5.91669147900807
0.025113471289988,5.91779133220242
0.0259027977321866,5.91896712339429
0.0264190564644125,5.92031191417586
0.0264367059763808,5.92214807517821
0.0258695516658158,5.92372223140082
0.0248681199324775,5.92529638762344
0.0237088438490791,5.92669335704232
0.0223974340089166,5.92807061717849
0.0209397951044921,5.92949057994519
0.0193451716284426,5.93099220840366
0.0176184639669728,5.93261555615401
0.0161936611301393,5.93401341369645
0.0136780017153406,5.93673828273263
0.0114261248011448,5.93955668359667
0.00954850320940374,5.94230249846665
0.00805345099794964,5.944857591247
0.00680340978968249,5.94734834941242
0.00571456683020771,5.94988625434242
0.00487843772398969,5.95215780556636
0.00422989693190716,5.95418214010631
0.00367885146170724,5.95614096206359
0.00318030885030446,5.9581611779744
0.00270140078729588,5.96039617107702
0.00219532062935208,5.96319075426812
0.0017110853338597,5.96647814655815
0.00130073199366047,5.97001085127187
0.000991806322347224,5.97343435402272
0.000740074120774373,5.97710306302839
0.000532720459498781,5.98136630369219
0.000388634444167139,5.98633808289014
0.000340620891756142,5.991184707986
0.000377639560936627,5.9955760544431
0.00048738146014276,5.99958646038357
0.000664753534088308,6.00325169968246
0.000908949440940303,6.00661633639886
0.0012225881928891,6.00972867987853
0.00161135474325753,6.01263672881618
0.00208561103540751,6.0153953609271
0.00266193401739957,6.01806318433387
0.00336644107852806,6.0207056391748
0.00423857706652758,6.02339354451151
0.00531908610918934,6.02615975951173
0.00657902551034637,6.02886846243008
0.00789240756775625,6.03127262445018
0.00923187063544298,6.03338506244277
0.0106190440230834,6.03527956368248
0.012087141867392,6.03701696612273
0.0136832022887641,6.03865048931475
0.0154352139571179,6.0401967867325
0.0173841873330883,6.04167637245179
0.019552829079175,6.04308975600793
0.021983779935101,6.04444847388731
0.0247071869838943,6.0457531373897
0.0277675531163832,6.04700973322393
0.0312092341429656,6.04822128868343
0.0350787445295572,6.04938977628971
0.0394376808563163,6.05051971500133
0.0443535022537077,6.05161440321005
0.0499053627101568,6.05267726531153
0.0561868406521274,6.05371184975032
0.063314363862342,6.05472252212282
0.0714285346416946,6.05571370055838
0.0807047375062312,6.05669037863377
0.091366267556372,6.05765837208541
0.103706071393117,6.05862482141031
0.118123995015942,6.05959904899644
0.135191777967955,6.06059392040664
0.155370790173813,6.06160940937989
0.178792726439955,6.06263135060522
0.206125116325495,6.06367274359436
0.2383028380149,6.0647528675876
0.276810211378842,6.06590528401172
0.319181480768975,6.06706241456104
0.355544479022354,6.06800738072785
0.386735603601995,6.06881388480897
0.414043952930933,6.06954512520368
0.437861300829434,6.070235054603
0.458128836723469,6.07090696253827
0.474452059514667,6.07158129917094
0.486021958758653,6.07228047811334
0.491314054675613,6.0730352669471
0.487528026791282,6.07386743474977
0.47275951165697,6.07471368835388
0.445775059096756,6.07558792482975
0.405073320281226,6.07650046406416
0.349004344314109,6.07746189409133
0.309163475249435,6.07804403055484
0.265751435342717,6.07862616701835
0.226614878342271,6.07912495158961
0.19239192381726,6.07955330509189
0.161916488995217,6.0799371311787
0.134387731294776,6.08029273456869
0.109290340833149,6.0806307979243
0.0862473333768046,6.08095953144209
0.0649296159815047,6.08128670792703
0.0449628691986735,6.08162212809629
0.0256899982363898,6.0819844490793
0.00448233034528047,6.08245004485251
-0.00352733324895952,6.08265273764925
-0.0108297177204302,6.082855430446
-0.0170645495180395,6.08304555531475
-0.0229277869523616,6.08324249936494
-0.0287546660480593,6.08346052297382
-0.034326957206346,6.0836962884207
-0.0395100389211987,6.08394793020467
-0.044230572875124,6.08421490979339
-0.0484503188006536,6.08449757302401
-0.052459376380468,6.0848257284742
-0.0555479633531769,6.08514250239604
-0.0581187356465236,6.08547904665643
-0.0601876485658916,6.08583837759861
-0.0617680003628751,6.08622368191439
-0.062873420623273,6.08663887280231
-0.0635164039212608,6.08708878615784
-0.0637068136473257,6.08757946263157
-0.0634501763906819,6.08811857288289
-0.0627444577186365,6.08871675779591
-0.0615753241198472,6.08938860224579
-0.0599117629972677,6.09015399872631
-0.0576921297991978,6.09104379349876
-0.0547854961433944,6.09211377585214
-0.0508230023837632,6.09350529440945
-0.0468636414058595,6.09487409757346
-0.0430665131130857,6.09619767817824
-0.0394664607991085,6.09748008054818
-0.0360804353822011,6.098723240657
-0.0329162440586215,6.09992787908546
-0.029975947208222,6.10109410105763
-0.0272575497662074,6.10222171410692
-0.0247560189544656,6.10331039430996
-0.0224640104416203,6.1043597697835
-0.0203724529661479,6.1053694567022
-0.0184710492221618,6.10633906646106
-0.0167487143296454,6.10726819408976
-0.01514651962629,6.10818433740464
-0.0136025166281834,6.10912384652565
-0.0121213546477673,6.11008819641767
-0.0107069680286214,6.11107946460128
-0.00936309378303419,6.11210008440173
-0.00809321651491827,6.11315293547659
-0.00690051484006118,6.11424145950142
-0.00578780470250154,6.1153698155597
-0.00475747921165722,6.11654309365798
-0.00381144400356125,6.11776761606197
-0.00295104607254234,6.11905137625665
-0.00217699213776446,6.1204047032205
-0.00148924900039564,6.12184131486229
-0.000886910753277975,6.12338009038444
-0.000379566283309587,6.12500621177149
2.68051087027078e-05,6.12667756543625
0.000349107604178107,6.12841246355144
0.000602396444272813,6.13023172318352
0.000800925704400982,6.13216306333133
0.000958633489127845,6.13424558430311
0.00108991035174535,6.13653905667773
0.00121113219354954,6.13914632147138
0.00134503688643864,6.14228443454772
0.00151202797770117,6.14601942174658
0.0017102420577641,6.14997890863673
0.00193334517981839,6.15398732066071
0.00217496227503237,6.1580232187252
0.00243148251970252,6.16213175250478
0.00270040473166363,6.16635112351051
0.00298095956514575,6.17071601662161
0.00327412420773717,6.17526031321532
0.00358241466901898,6.18001891815781
0.00390969201143143,6.18502919456514
0.00426116057344889,6.19033238169575
0.00463167580322656,6.19579803504611
0.00500521267256408,6.2011396353804
0.00538946293620813,6.20642682711733
0.00578502348935306,6.21162112678433
0.00619621907009659,6.21673435488017
0.00662703721565458,6.22177016438863
0.0070821364271798,6.22673668050772
0.00756636519234272,6.23163935345888
0.00808492690058018,6.23648198857403
0.00864343175633057,6.24126636984433
0.00924801897739366,6.24599264034293
0.00990547874794414,6.25065968080121
0.0106271632148519,6.25528874079321
0.0114367519671087,6.25995389594698
0.0123497324009742,6.26464968289305
0.0133899877867437,6.26939601198202
0.0145920055349041,6.27423294065182
0.0160152404689878,6.27925706728711
0.017795548969514,6.28474183877263
0.0202190945550307,6.29124682121924
0.0218023534847139,6.29513831287034
0.0234305785533902,6.29902980452145
0.0248549839718021,6.3025021345548
0.0260563246731479,6.30566092728833
0.0270522770715273,6.30868645987056
0.0278020449148921,6.31158898420809
0.0282856044853514,6.31440369138262
0.0284941867731623,6.31725697253759
0.0283815337340602,6.32033403955479
0.0277666876866171,6.32414876023679
0.0269392395477313,6.3271901026654
0.0258666472608687,6.33023144509402
0.0247863703066365,6.33286019303602
0.0237129284459841,6.33525311545477
0.0226389594223272,6.33752578282901
0.0215650303533876,6.33973267575082
0.0204943503688811,6.34190451595004
0.0194306236247458,6.34406153443302
0.0183774724793739,6.34621846360359
0.017338281505189,6.34838682973768
0.0163161580561075,6.35057618076323
0.0153139307077596,6.35279481356984
0.0143341592959722,6.35505024208299
0.0133791444689881,6.35734952917892
0.0124509422090155,6.3596995242639
0.011551371952219,6.36210706593871
0.0106820250668759,6.36457915713018
0.00984428074687089,6.36712310570607
0.00903930769761077,6.36974670342091
0.00826685703427602,6.37246284643594
0.0075076569244918,6.37536186926847
0.00676560232804281,6.37846445056227
0.00604449569159551,6.38179563706276
0.00534833971838961,6.38538437615808
0.00468129622659808,6.38926424376985
0.00404760680962983,6.39347444139416
0.00345146654920165,6.3980612642952
0.00289683213152497,6.40308055709644
0.00238713940535384,6.4086024044516
0.00192506740416998,6.41471868112525
0.00151280937334523,6.42154754883779
0.00125189357232091,6.42690041414849
0.00104421794620312,6.43225327945919
0.000822631833952963,6.43987916437213
0.000652892965482743,6.44778429175018
0.000507929651839392,6.45694511579408
0.000396775400972964,6.46694511579408
0.000321599697351517,6.47694511579408
0.000272194076242648,6.48694511579408
0.000241097592973904,6.49694511579408
0.000222967706537046,6.50694511579408
0.000214119388748624,6.51694511579408
0.000212095373329788,6.52694511579408
0.000215304035293776,6.53694511579408
0.000222755162356226,6.54694511579408
0.000233887430516307,6.55694511579408
0.00024846449050235,6.56694511579408
0.000266518225362828,6.57694511579408
0.000288326248307017,6.58694511579408
0.000314418975249684,6.59694511579408
0.000345618231842903,6.60694511579408
0.00038311587680398,6.61694511579408
0.00042860999002591,6.62694511579408
0.000481180928736618,6.63638956487176
0.000540785118527176,6.64514081212696
0.000608232544750299,6.65324232221455
0.000684539717942089,6.66074137087575
0.000770886772324133,6.6676823694417
0.000868617802454073,6.67410683689756
0.000979256547258259,6.6800535978042
0.00110452861541002,6.6855589566566
0.00124638833393517,6.69065684208278
0.00140704738613171,6.69537895052675
0.00158900985383881,6.69975489082476
0.00179511090531148,6.70381232580922
0.00202856462126032,6.70757710035884
0.00229301847829072,6.71107336741242
0.00259262201206644,6.7143237227515
0.00293211105687937,6.71734934434891
0.00331691329971533,6.72017013182378
0.00375328610408942,6.72280486157111
0.00424849867443868,6.72527136528167
0.00481108109661253,6.72758673817994
0.00545117812939406,6.72976760490943
0.00617531852123648,6.73181563449812
0.00697273937570243,6.73369904198161
0.00785217988997178,6.73544800270538
0.00882659598874984,6.73709221758346
0.0099152227005234,6.73866176122725
0.0111496579168898,6.74019199291045
0.0126314721271398,6.74177641729833
0.0145889148469773,6.74357720069534
0.0165282004808093,6.74514350323645
0.0186551777188927,6.74670980577756
0.0205169959719839,6.74801577704474
0.0221332001785028,6.74914640731569
0.0235837655703465,6.75020032471764
0.0248863066133821,6.75122736087059
0.0260315581165558,6.75226443342096
0.0269919765875824,6.75335259432528
0.0277136427658079,6.75455743352822
0.0280691633970519,6.75604369310638
0.0277677527573246,6.75776427431237
0.0268179969315128,6.75948485551836
0.0256810197018122,6.76088805505419
0.024385909624721,6.76222928303734
0.0229276240588181,6.76360194643342
0.0213137335270286,6.76505007043596
0.0195497788620518,6.76661314252509
0.0182810395981337,6.76775141413184
0.0170680032314545,6.76888968573859
0.0144102251750279,6.7716260228742
0.0118029162964593,6.77475227573734
0.00981120705889565,6.77757396080632
0.00825829723504549,6.78015434679224
0.00698097536221821,6.78263114715953
0.00587002836818531,6.78514954351033
0.00489955964249697,6.78773832123971
0.00405583104091883,6.79040612860332
0.00331587767300205,6.79320383302859
0.00267255148276014,6.79614339409675
0.0022694483350621,6.79832993348129
0.00192123370740655,6.80051647286583
0.00165071117581925,6.80246951704632
0.00142729215665431,6.80430335436787
0.00122930284327472,6.80614559030423
0.00104333465989871,6.80811893419466
0.000855511070360677,6.81043387350375
0.000627470432725149,6.81388724652649
0.000431805905534114,6.81781075948817
0.000311028895696971,6.82111239383499
0.000224636401444738,6.82442178342144
0.000163761645046839,6.82823138868321
0.000142344320949427,6.8330497352343
0.000186546413846596,6.83794277041496
0.0002925898634953,6.84235166695727
0.000457779558388212,6.84636931477752
0.000681884161313193,6.85002496901591
0.000966680887129816,6.85335828693165
0.00131546943190755,6.85641060719842
0.00173330597335476,6.85922446486215
0.00222713767726328,6.86184055989516
0.0028065036987652,6.8642985183173
0.00348408972688975,6.86663578136124
0.00427942330831468,6.86889512946891
0.00521615400772299,6.8711103652123
0.00631554593666243,6.87329527872916
0.00758286054680911,6.87543066017137
0.00903837588159446,6.87752329840399
0.0106314554143835,6.87948740608135
0.0123312745757047,6.88129373036529
0.0141449292571408,6.88296022036588
0.016104191758011,6.88451828303039
0.0182432576532817,6.88598932163582
0.0205969478721853,6.88738716914211
0.0232135503402502,6.88872722401383
0.0261223591773322,6.89001022800006
0.0293757100649992,6.89124515678721
0.0330239181069041,6.89243624104837
0.0371178325527008,6.89358565894819
0.0417253262944602,6.89469823716981
0.046919250141007,6.89577716040101
0.0527847806066195,6.89682573601912
0.0594274278143846,6.89784815730179
0.0669723703045865,6.89884848605936
0.0755723220232057,6.89983110442587
0.0854219523218332,6.90080139026916
0.0967707803527415,6.9017656093614
0.1099492322897,6.90273152179202
0.125414050360541,6.90370940901521
0.143832921498473,6.90471392797025
0.165341832580253,6.90572772796695
0.190348120759787,6.9067521743206
0.219605001335291,6.90780196362537
0.254201237289762,6.9088998551233
0.294680049942699,6.91005337680153
0.335793575271764,6.91113777774727
0.370299447047948,6.91201836364081
0.400133491019369,6.9127871817236
0.426266282950732,6.9134953380552
0.448912945045515,6.91417186112277
0.467894872005983,6.91483855615099
0.482678810062838,6.91551628312503
0.492227856871273,6.91623009537975
0.494527272349945,6.91701824332438
0.486739773195301,6.91785168827663
0.467480451629341,6.91870569479181
0.43537777194022,6.9195929507845
0.388839776448808,6.92052297143805
0.345816632184429,6.9212200904185
0.296676116412159,6.92191720939895
0.252529022844044,6.92249282663567
0.214881737332156,6.92296480192211
0.181907015113343,6.92337470482984
0.152398965814026,6.9237465266609
0.125657479495225,6.92409428348024
0.101221311648285,6.92442754762502
0.0787346290994704,6.92475417369643
0.0578616288032281,6.92508229988846
0.038168048134533,6.92542359686756
0.0187032286904851,6.92580526773627
0.00403970167927346,6.92613570751898
-0.00390161271550032,6.92633638153312
-0.0111449297744371,6.92653705554726
-0.0173527860189331,6.92672593392244
-0.0232342050739479,6.92692307531802
-0.0290706057345377,6.92714110837752
-0.0346460795606005,6.92737674580628
-0.0398283703714831,6.92762818588307
-0.0445455246460229,6.92789492910423
-0.0487605979461611,6.92817734633014
-0.0527561273965568,6.92850454490872
-0.0558394910172365,6.92882105761849
-0.0584044326327609,6.92915738391928
-0.0604669296385805,6.92951654339579
-0.0620403763697573,6.92990174013343
-0.0631384542152459,6.93031690995376
-0.0637736615204814,6.93076691922776
-0.0639558075085396,6.93125785116778
-0.0636902862610966,6.93179743808714
-0.0629747619381491,6.93239644277262
-0.0617944382687808,6.93306958211099
-0.0601174565750603,6.93383702509144
-0.0578804205116509,6.9347301862408
-0.0549478294088716,6.93580636353317
-0.0509304826483707,6.9372138276917
-0.0469652951585457,6.9385822264197
-0.0431637327635854,6.93990564380324
-0.0395596821829901,6.94118811304521
-0.0361698700728631,6.94243148815574
-0.0330020229976812,6.94363644024433
-0.0300581790793028,6.94480304422006
-0.0273363464947518,6.9459310882235
-0.0248315056565709,6.94702023545064
-0.0225363278229732,6.94807010523548
-0.0204417558397019,6.94908030771142
-0.0185375032387092,6.95005045019673
-0.0168124919692523,6.95098012516181
-0.0152093191610764,6.95189590459056
-0.0136642600967271,6.95283503627481
-0.0121819806167516,6.95379898266001
-0.0107664170893801,6.95478981622846
-0.00942130962161486,6.95580996412377
-0.00815014688750924,6.95686229839553
-0.00695611257860769,6.95795025119157
-0.00584202876471563,6.95907796944265
-0.00481029581045245,6.96025052733551
-0.00386282785233416,6.96147422605437
-0.00300098181035691,6.96275703019958
-0.00222547606103937,6.96410922781201
-0.00153629133135455,6.96554447627148
-0.000932538878415078,6.96708156025282
-0.000423432087546961,6.96870711590737
-1.55893991317753e-05,6.97037763872471
0.000307927605715133,6.97211143946013
0.000562180904140849,6.97392925376455
0.000761422681914369,6.97585867350982
0.00091957568676895,6.97793858086954
0.00105099177495932,6.98022833052664
0.00117195737042528,6.98282982637127
0.00130496289275204,6.98595725664438
0.00147092860309238,6.98969180661237
0.00166741152038132,6.99364496430329
0.00189285455256188,6.99772198908595
0.0021285921291123,7.00168471885476
0.00237250342486798,7.00561787373587
0.00262346438258932,7.00958030187254
0.00288158525355274,7.01361584129757
0.00314818594893384,7.01776119061132
0.00342561346292069,7.02204987658426
0.00371706106007857,7.02651463968996
0.00402646044309209,7.03118913039152
0.00435852361596255,7.03610944152606
0.00471900324846279,7.04131540262728
0.00510199023605264,7.0466674978478
0.00549211628358157,7.05190579887515
0.00589675565965229,7.0570931558021
0.00631667285342831,7.06219476084683
0.00675636832789093,7.06722047570835
0.0072202408073982,7.07217343102732
0.00771345922077534,7.07706027081545
0.0082415362436816,7.08188532858015
0.00881044861823071,7.08665118138546
0.00942668674687091,7.09135841532551
0.0100973824185976,7.09600616498927
0.0108390999518709,7.10064430582037
0.0116719052339528,7.10531472761759
0.0126135431202828,7.11002018975657
0.0136898850583983,7.11478353987569
0.0149398412521246,7.11965453243784
0.0164342175356737,7.12475578996505
0.0183540561677365,7.13046568440551
0.0207795385855507,7.13679371811392
0.0223167106413995,7.14052006277971
0.0238753272390996,7.14424640744549
0.0252301242298685,7.14760158624053
0.0263719132652505,7.15070603847781
0.0273074632549301,7.15371904920587
0.0279787627894402,7.15658385633335
0.0283834089188831,7.15939503245392
0.0285049002562474,7.16228870959854
0.0282767563609493,7.16549364040312
0.027378258653217,7.16988842462375
0.0265051909130015,7.17267745297325
0.025446678372528,7.17546648132276
0.0243734186858007,7.17797524349544
0.0233004312739805,7.18031072012032
0.0222264189317177,7.18255195427691
0.0211536115224998,7.18474110585654
0.0200855484358927,7.18690384096852
0.0190259400517349,7.18905782298121
0.0179783290819488,7.19121629975035
0.0169459985067904,7.19338986860433
0.015931951263704,7.19558746605108
0.0149389144677477,7.19781697334138
0.0139693512192249,7.20008561571087
0.0130254697059842,7.20240025469298
0.012109236413387,7.20476760234101
0.0112223859353514,7.20719440169486
0.0103664263228917,7.20968759748326
0.00954265630004616,7.21225446385462
0.00875216630452835,7.21490277855155
0.00798425598696356,7.21768471912601
0.00723108537953731,7.22065675671187
0.0064964852801418,7.22384122098128
0.00578434401265463,7.22726449372593
0.00509873429066145,7.23095711058632
0.00444386472698968,7.23495454185299
0.00382398222078074,7.23929833117515
0.00324321958135266,7.24403786886754
0.0027053833312851,7.24923337794723
0.00221364261392821,7.25496182351037
0.00177036882634508,7.26132539045516
0.00138346634762216,7.26833365900741
0.00105973305602753,7.27589903595674
0.000841518064853152,7.2829129538028
0.000663239294012303,7.29076334336774
0.000511872944583349,7.29987466475077
0.000398734500709069,7.30945079409821
0.000317070914726138,7.31945079409821
0.00026246604736139,7.32945079409821
0.000227219474008886,7.33945079409821
0.00020571970173573,7.34945079409821
0.000194006650439356,7.35945079409821
0.000189390476312342,7.36945079409821
0.000190102209011793,7.37945079409821
0.000195016070524075,7.38945079409821
0.00020345672774726,7.39945079409821
0.000215077998750069,7.40945079409821
0.000229792422770438,7.41945079409821
0.000247735992929799,7.42945079409821
0.000269259989840549,7.43945079409821
0.000294948299328494,7.44945079409821
0.000325663918868579,7.45945079409821
0.0003626342913492,7.46945079409821
0.000407594096404286,7.47945079409821
0.000459780981239827,7.48891172871099
0.000519109171407558,7.49767332431533
0.000586422431973709,7.50577954647104
0.00066277095497526,7.51327884547754
0.000749369537136014,7.52021663884173
0.000847600376713515,7.52663528157645
0.000959029777731836,7.53257429112487
0.00108543089987797,7.53807054636328
0.00122881110606956,7.54315845384769
0.00139144150919866,7.54787010842703
0.00157589288118722,7.5522354516599
0.00178507581901654,7.55628242530363
0.00202229022281983,7.56003711068612
0.00229128227965639,7.5635238649383
0.00259631628964589,7.56676546452183
0.00294226332869622,7.56978325304722
0.00333471315405966,7.5725972905028
0.00378012108227986,7.57522651923101
0.00428600376952856,7.57768895579004
0.00486120932283074,7.58000191813302
0.00551630511656792,7.58218231985284
0.0062525800186752,7.58421786846379
0.00706403028734044,7.58609386099639
0.00796037808837162,7.5878409953645
0.00895597908564357,7.58948955570417
0.0100727286498793,7.59107131152971
0.0113481236151315,7.59262593984805
0.0129159525216054,7.59427416747327
0.0151005536310027,7.59624457640449
0.0168891112862825,7.59767431493361
0.0188130503181843,7.59910405346273
0.020563958611778,7.60036105939435
0.0221119744465592,7.60148055010706
0.0235045069756939,7.60253694406192
0.0247498457249749,7.60357480464174
0.0258343502100979,7.60463098102755
0.0267258820764309,7.60574994200114
0.0273611712744302,7.60700897590908
0.0275730126094451,7.60863321550659
0.027126073608771,7.61028563076368
0.026126971888888,7.61193804602076
0.0249671333878402,7.61332818787883
0.0236503704271252,7.61467911662529
0.0221753194982716,7.61606911066628
0.0205500519824631,7.61753958507908
0.0187793298803655,7.61913063790616
0.0168842579224449,7.62089653563302
0.0154211064756015,7.62236287026461
0.0126904263242338,7.6254289743309
0.0104637605510892,7.62837035391313
0.00874494534963264,7.6310383538142
0.00737197082142514,7.63352478415544
0.00618791518532648,7.63602374282892
0.00521000095630599,7.63843046212404
0.00439009069196507,7.64077709767836
0.0036859445810522,7.64311913822315
0.00305671922936635,7.64556070663356
0.00243563525346916,7.648420003944
0.00205006645235408,7.65050494310654
0.00171312352007981,7.65258988226908
0.0014545085038214,7.65440511649652
0.00124270796001784,7.65606802034572
0.00105478316453155,7.65770860355384
0.000877756470580713,7.65942976415206
0.000699570115185591,7.66137781600645
0.0004961064154506,7.66394713462645
0.000221067224469155,7.66827402351095
3.79930668284767e-05,7.67204917573157
-8.915182706779e-05,7.67543050902152
-0.000196152336440749,7.67920575466357
-0.000287697355567987,7.68417695349497
-0.000325904112312,7.68945517498953
-0.000303096431457028,7.69414887411093
-0.000224637040489418,7.69841059196368
-9.132754426218e-05,7.70225658439638
9.84781380623933e-05,7.70573872383224
0.00034773649267336,7.70890273612395
0.000660899958570272,7.71179707963033
0.00104511674436471,7.71447594247374
0.00151126872237027,7.71699463729852
0.00207669453821188,7.71941400157116
0.00277103827052565,7.72180885034536
0.00365646991446694,7.72430375327287
0.00485905342236815,7.72709209807872
0.00640442968999894,7.73006719549349
0.00773005809074017,7.73225722345937
0.0092437781752875,7.73444725142525
0.0107650719963544,7.73636638569368
0.0123170799436228,7.73807430789547
0.0140008002921476,7.73968657616794
0.0158091386330037,7.74118684894812
0.0178205543262789,7.74262808632529
0.0200620858389214,7.74401045682514
0.0225670748809295,7.74533746480793
0.0253801810570193,7.74661619148844
0.0285353111209122,7.7478463372238
0.0320835171343623,7.7490331135141
0.0360753169840552,7.75017893557125
0.0405655698309933,7.7512857748568
0.0456258655010439,7.75235772672919
0.0513364374157949,7.75339806538987
0.0577925029231944,7.75441026468593
0.0651083432952916,7.75539803439213
0.0734222239566209,7.75636532615734
0.082907928118193,7.75731685893702
0.0937823696191393,7.75825779379455
0.106324481216965,7.75919422747778
0.12090325390412,7.76013368989645
0.13802465069924,7.76108597148814
0.158422345202904,7.76206491258906
0.182138339320445,7.76304931079183
0.209684544267736,7.76404397102421
0.241861013297482,7.76506228460465
0.279815577367003,7.76612533853395
0.324773481851244,7.76725696520954
0.367616210071014,7.76826009919243
0.402838073645438,7.7690650828249
0.433120213370244,7.76977065569377
0.459596128374505,7.77042663288671
0.482487152253911,7.77106115152042
0.501549993355568,7.77169653900836
0.516094359265408,7.77235665969616
0.524696163152329,7.77307552860058
0.524409648379482,7.77387788127089
0.512879804504332,7.77469742703429
0.488843992483179,7.77555112594478
0.450601465820785,7.77645174550443
0.396210050052514,7.77740804894533
0.350579794898625,7.77807407738231
0.299499056403808,7.77874010581929
0.254139891268447,7.77929146354488
0.215564395140015,7.77974657113448
0.181847913261623,7.78014365963469
0.151733518372771,7.78050512620797
0.124483527776697,7.78084429174576
0.09960659359068,7.78117044933221
0.076717212876767,7.78149148552133
0.0554376162137836,7.78181605261582
0.0352370983062367,7.78215777466475
0.0147246945173357,7.78255451775037
0.00653537189840948,7.78273273098392
-0.00103602014203669,7.78291094421747
-0.0089207384008044,7.7831136407142
-0.0154845560561528,7.78329908190078
-0.0214357743695981,7.78348378059407
-0.0274366545143721,7.78369028491409
-0.0332357965349904,7.78391494537117
-0.0386713270513069,7.78415549453599
-0.0436534433740575,7.7844111095808
-0.0481353702787005,7.78468192213689
-0.0520961746716099,7.7849687436949
-0.0557268790700927,7.78529368202829
-0.0585580094496083,7.78561581120508
-0.0608713361981669,7.785959155136
-0.0626832666878468,7.78632696836733
-0.0640081447381679,7.78672288966335
-0.0648596309944128,7.78715141200374
-0.0652491943912713,7.78761814057453
-0.0651844278464463,7.78813017425901
-0.0646668590619559,7.78869674547848
-0.0636861802528833,7.78933161262379
-0.0622168198661473,7.79005264806809
-0.0602068255678397,7.79088689992061
-0.0575483846690062,7.79188102385082
-0.0539670493398638,7.79314035887103
-0.0498823324988915,7.79453837546559
-0.0459303124240273,7.79589035329012
-0.0421605273955361,7.7972012005876
-0.038597095562161,7.79847331159427
-0.0352522950214501,7.79970758352807
-0.0321314481461965,7.80090415500529
-0.0292351343805034,7.80206279842651
-0.0265603977501588,7.80318312644083
-0.024101546770132,7.80426469831139
-0.0218507747267031,7.80530707000117
-0.0197986882922022,7.80630981079881
-0.0179347754255682,7.80727249876249
-0.0162478219571807,7.80819470172724
-0.0146621011542034,7.80911429584183
-0.0131356435540361,7.81005745327926
-0.0116729058699227,7.81102578124624
-0.0102778005762274,7.8120214058905
-0.00895403770482691,7.81304682298869
-0.00770507109647963,7.81410499141852
-0.00653404499761262,7.81519945420661
-0.00544373789142431,7.81633450170992
-0.00443650323215128,7.81751539676964
-0.00351420618183217,7.81874869400357
-0.00267815447172275,7.8200427075757
-0.00192901975188371,7.82140822395985
-0.00126674237702688,7.82285964199655
-0.000690405384090082,7.82441691221183
-0.000213477237372933,7.82604878996011
0.000165106370850766,7.82772885938781
0.000461680048217072,7.82947544927202
0.000690978074084672,7.83131027739684
0.000866944303714161,7.83326248899061
0.00100321215256737,7.8353736598759
0.00111386591888205,7.837708346395
0.00121500455841185,7.84038040481248
0.00132948769583191,7.84364204732669
0.00147123095787166,7.84738489278847
0.00164647556145145,7.85141687984232
0.0018789702996394,7.85613465437616
0.00210792045036138,7.86042274174209
0.00232974784256018,7.86442043940905
0.00254874908625209,7.86830103357405
0.00276779769482422,7.87215379703278
0.00298954944599309,7.87603545657364
0.00321678120476897,7.87998837904214
0.00345248042712533,7.88404825606285
0.00369984974562031,7.88824749421577
0.00396236405661936,7.89261779410608
0.00424385828661686,7.89719175329576
0.00454871726280817,7.90200435569548
0.00488222008298876,7.90709425084923
0.00525034171639897,7.91249336378232
0.00562405135855583,7.91772483701958
0.00601520660076881,7.92292652310434
0.00642246135025047,7.92803620710218
0.00685050333433402,7.93306940212684
0.00730344688735736,7.93802772719231
0.00778637373532334,7.94291851478416
0.00830471142302831,7.9477465116351
0.00886437237184265,7.95251475218194
0.00947178257547913,7.95722415239606
0.0101340030804944,7.9618740447896
0.0108668777640734,7.96651110881755
0.0116907540158403,7.97118072744393
0.0126230545933382,7.97588470319384
0.0136892848497856,7.98064533635854
0.014927576554194,7.98551077108095
0.0164067221052174,7.99059920014372
0.0182993880294881,7.99627001384079
0.0207208774988792,8.00262427210611
0.0222635322000706,8.00637578566781
0.023831426481447,8.01012729922952
0.0251953605184637,8.01349926989765
0.0263451999224021,8.01661123567811
0.0272892842942355,8.01962531388853
0.0279722222138457,8.0224951796571
0.0283889272415282,8.02530591601112
0.0285240847771716,8.02819172303266
0.0283148970279425,8.03137281973488
0.0274707504957367,8.03565032496821
0.0266051199128147,8.03847780463
0.0255449198773088,8.0413052842918
0.0244705161152996,8.04383364605266
0.0233972304357195,8.04617884570654
0.0223229586598684,8.04842531319996
0.0212496863282419,8.05061720370253
0.0201809016301127,8.05278104788578
0.01912031524261,8.05493495670069
0.0180714846995839,8.05709243631469
0.0170377118142877,8.05926424219471
0.0160220188995795,8.06145941023285
0.0150271519992186,8.06368588332682
0.0140555922081696,8.06595092279795
0.0131095648622079,8.06826140726554
0.0121910527907894,8.07062405094918
0.0113018058743737,8.07304558738704
0.0104433468059068,8.07553294056283
0.00961698798508906,8.07809335443722
0.00882383259484669,8.08073456734994
0.00805477354221595,8.08350248790412
0.00730015682854653,8.08645896135406
0.00656382122641126,8.08962600105201
0.00584963997395731,8.09302971837652
0.00516167466025964,8.09670033321184
0.00450412880566165,8.10067294667376
0.00388125453084396,8.10498865519052
0.00329720629457719,8.1096962659971
0.00275583232592858,8.11485519524124
0.002260370678373,8.12054114569076
0.00181327057912955,8.12685451374333
0.00142155551698254,8.13382418870979
0.00109364185424329,8.14134311671113
0.000895163805072204,8.14755026236597
0.000698816677919275,8.15586572588524
0.000548867175756352,8.16464049312824
0.000432726526731205,8.17415510418674
0.00034902503291107,8.18415510418674
0.000294028948664671,8.19415510418674
0.00025970584163649,8.20415510418674
0.00024022891775632,8.21415510418674
0.000231522911177363,8.22415510418674
0.000230869509642326,8.23415510418674
0.000236547756041676,8.24415510418673
0.000247552743554573,8.25415510418673
0.000263408091449272,8.26415510418673
0.000284060298920005,8.27415510418673
0.000309836966129878,8.28415510418673
0.000341458379792789,8.29415510418673
0.000380104178057214,8.30415510418673
0.000427551175473212,8.31415510418673
0.000482807472855174,8.32358926425759
0.000545781149650643,8.33231579021403
0.000617330986936267,8.34038143738253
0.000698553693190819,8.3478364585013
0.000790731516172705,8.35472769770037
0.000895330325643693,8.36109866029086
0.00101401532760893,8.36698979993291
0.00114867447582814,8.37243876218688
0.00130144758379882,8.37748058190932
0.00147475783878996,8.38214787287312
0.00167135138060713,8.38647101153861
0.00189434137343203,8.39047831181401
0.00214726334914316,8.39419617921399
0.00243413953363159,8.39764926357292
0.00275956084291191,8.40086062110433
0.00312879025779157,8.40385188071357
0.00354789454891591,8.40664341407626
0.00402392130167416,8.40925453128235
0.00456514043986125,8.41170371374564
0.00518138593333204,8.41400890161444
0.00588456339089566,8.41618788704559
0.00666104788400845,8.4181919796595
0.00751885476576628,8.42005156785756
0.00847115796610217,8.42179932528549
0.00953780331184907,8.42346866199595
0.0107520371732783,8.4250995979549
0.0122036728698767,8.42677979805861
0.0141605794183478,8.42872680113451
0.0159139338660131,8.43026642951036
0.0178186761629088,8.43180605788622
0.0195559432057589,8.43315072786967
0.0210756139060177,8.43432703989085
0.0224379275012042,8.43542541166782
0.0236567764850192,8.43649592324856
0.0247219700548497,8.43757643488995
0.0256058000520922,8.43870916731774
0.026254567974955,8.4399615158232
0.0265413724859386,8.44150230564233
0.0261963856361185,8.44327262050874
0.0252380921626442,8.44504293537515
0.0241135435513142,8.44648530253495
0.0228452920092723,8.44785906265225
0.0214281595884268,8.44925887256486
0.0198701953611727,8.45072859773849
0.0181779727588083,8.45230661371523
0.0168013236642111,8.45361817547998
0.0155008801352706,8.45492973724472
0.0129504851634418,8.45777889571524
0.0108389814806643,8.46051412951503
0.00910459113004945,8.46312692244814
0.00766963863961051,8.46564091477916
0.00645023416958765,8.46812715839737
0.00539051906473166,8.47065063915501
0.00445251398784875,8.47327725350676
0.0036307072130068,8.47600605689495
0.00309347064033575,8.47808893232802
0.00262362515848576,8.48017180776109
0.00225401126944512,8.48203270197738
0.0019441185087363,8.48378577368566
0.00166583072916161,8.48554883324506
0.00140105948242939,8.48743516844356
0.0011300516794312,8.48963670673584
0.000799364701246772,8.49282857349939
0.000471560497270035,8.49681538904034
0.000252001099510659,8.50022967346831
8.18527419204874e-05,8.50356955870605
-6.84673503660694e-05,8.50742313635715
-0.000201563231293134,8.51246116847037
-0.000269034268312455,8.51762761768803
-0.00026677916088206,8.52225021736823
-0.000203488718075618,8.52645209428018
-8.1321690534436e-05,8.53026474808472
0.000100178107299645,8.53372748212922
0.00034387335501985,8.53689200044582
0.00065511045848259,8.53981276116195
0.00104233089515454,8.54254508475688
0.00151933047681043,8.54515086254983
0.00210956172236282,8.54770453189701
0.00285573402396618,8.5503072229936
0.00384910398522488,8.55313422989062
0.00514939203715465,8.55618709888014
0.00673226510939613,8.55929126578158
0.00823815648475868,8.56179976492932
0.00963418489027488,8.56381110297447
0.0110531054546019,8.56559138900244
0.0125731358000601,8.56724883243495
0.014241454505295,8.56882273081983
0.016075755994318,8.57031418685137
0.0181272168141889,8.57174805700796
0.0204177976846646,8.5731216532033
0.0229912019907103,8.57444457218257
0.0258787398581001,8.57571673196126
0.0291246328045233,8.57694265177342
0.0327748233209511,8.5781251060878
0.0368785728283699,8.57926616265325
0.0414981480650674,8.5803695821792
0.0467050847224419,8.5814388240004
0.0525830016708677,8.58247731093132
0.059231909666045,8.58348870326057
0.066771104187361,8.58447673345509
0.0753503560471804,8.58544595660508
0.0851543551197944,8.58640121149275
0.0964177712569596,8.5873481058444
0.109446509471823,8.58829341469653
0.124652105543382,8.58924570965045
0.142615626872269,8.59021668298822
0.16387929644045,8.59120920132118
0.18852970520975,8.59220657998585
0.217237395906939,8.59322027141082
0.250918940381028,8.59426691440328
0.290983469774376,8.59537500138362
0.336486982720369,8.5965191225792
0.375095286789565,8.59743987536679
0.407624097217235,8.59821127716694
0.435943383300278,8.59890713550188
0.460648560801981,8.5995645915204
0.481736956121619,8.60020807144717
0.498805322227042,8.60085930688388
0.510961997924308,8.60154362165533
0.516400098822671,8.60229994252284
0.512025179691831,8.60311410282247
0.496160731818869,8.60394957885137
0.467422683562221,8.6048213712676
0.424084058678072,8.60574015285309
0.364269969088193,8.60671506305467
0.321985758666652,8.60730361193706
0.275955164285562,8.60789216081944
0.234741650825371,8.60839338344961
0.19898695732702,8.60882080921542
0.167323056767465,8.60920202107408
0.138825513712373,8.60955418347174
0.112911107704043,8.60988835884821
0.0891614492958033,8.61021293405276
0.0672180910189955,8.61053577404941
0.046679993931772,8.61086675530542
0.0268485016673294,8.61122475379439
0.00487300655739203,8.61168907912174
-0.00316278693500019,8.61188507123142
-0.0104975038374282,8.61208106334111
-0.0167896202588158,8.61226556750435
-0.0227504908393346,8.61245796291111
-0.0286830471592102,8.61267116302945
-0.0343626704675952,8.61290185282114
-0.0396509651459912,8.6131481891961
-0.0444722078065115,8.61340963106201
-0.0487880262825452,8.61368650840792
-0.0525772637332717,8.61397978950464
-0.0558998462912134,8.61429864608975
-0.0585866934111002,8.61462739746558
-0.0607628295770277,8.61497825982193
-0.0624430437059052,8.61535446406847
-0.0636414816489692,8.6157598310374
-0.0643712777729385,8.61619908583624
-0.0646430329058534,8.6166781359316
-0.0644630814634604,8.61720448820714
-0.0638306663607417,8.61778831213653
-0.0627325400513875,8.61844403575554
-0.0611388252597625,8.61919106545037
-0.0589895019422641,8.62005938746126
-0.0561572264551496,8.6211028096404
-0.0522895851565969,8.62245487055357
-0.0482555332673048,8.62383746014869
-0.0443717865186039,8.62517543085783
-0.0406792047469303,8.626472757279
-0.0371976539805446,8.62773141418326
-0.0339369165657298,8.62895210138495
-0.0309005880041262,8.63013487461384
-0.0280879312535,8.63127948194324
-0.0254949468667918,8.63238554039266
-0.0231151168502778,8.63345262562781
-0.0209399983947281,8.63448031213869
-0.0189597350086249,8.63546818353315
-0.0171635086994082,8.63641582359024
-0.0155399400562634,8.63732279389392
-0.0139752978573966,8.63825104359856
-0.0124718034026594,8.63920328633186
-0.011033494057531,8.64018144095828
