ecg,time
0,0
0.000363268400034206,0.000465853881791727
0.00124246963461694,0.00172403546760887
0.00203028659184177,0.00306155847447469
0.002710545163225,0.00445100075564603
0.00328386043599046,0.00587233687079993
0.00376707020152346,0.00733157383223554
0.00417725170551429,0.00883581283006235
0.0045320923701553,0.0103939692452688
0.00485015171812164,0.0120166727550737
0.00515140437594755,0.0137160008690165
0.0054579902913555,0.0155046039035919
0.00579496013723997,0.0173933346369908
0.00604736676075877,0.0186966673184954
0.00632401864179979,0.02
0.00683297984932333,0.0220852179435728
0.00746079679657471,0.0242185270764974
0.00820875201386014,0.0263123215958529
0.00906803633937221,0.0283035442794526
0.0100263044338316,0.0301602017055009
0.0110744579164367,0.0318770765835751
0.0122464026861981,0.0335125026710114
0.013555445059086,0.035074831360768
0.0150144371794242,0.0365681682487669
0.0166386851140014,0.0379967738894565
0.0179351551660488,0.0389983869447282
0.01938312980609,0.04
0.0214809049114201,0.0412744790001381
0.0238336144304917,0.0425077004975365
0.0264537170061321,0.0436923757650221
0.0293723056742613,0.0448309959531335
0.0326252680812964,0.0459262173315038
0.0362533695819617,0.0469805809214931
0.0403029851138027,0.0479965296486581
0.0448269997347792,0.0489764291919863
0.0503337952305104,0.05
0.0560667299954117,0.0509145185261092
0.0624773995465935,0.0517975789419347
0.0696723583868669,0.0526536823392963
0.0777601666142427,0.0534850683215547
0.0868664896407465,0.0542938930135876
0.0971378210158998,0.0550822969088417
0.108745422368312,0.0558524072072847
0.121890016673461,0.0566063382237004
0.136807513953663,0.0573461979727833
0.153776434711648,0.0580741174093527
0.17312881620845,0.0587923407584544
0.191720882196701,0.0593961703792272
0.212740654521945,0.06
0.240869342949485,0.0607070700775086
0.273816101844386,0.0614243846385656
0.313241494784608,0.0621677103393266
0.358818901535023,0.0629156738010605
0.412140856933568,0.0636881601304716
0.454405368559165,0.0642504948024976
0.49848523783086,0.0648128294745236
0.537956646147225,0.0653142874930689
0.573040681447006,0.0657769104327006
0.604505114023437,0.066227274952647
0.632415957634763,0.066686616884168
0.656314046597431,0.0671807317283973
0.674934020942025,0.0677600712174295
0.683147454595812,0.0683975717968667
0.678579133495833,0.0690721815627434
0.668398471427267,0.0695360907813717
0.65320007390237,0.07
0.624404650439168,0.0706526751009339
0.585210755867844,0.0713516645123961
0.53158385071413,0.0721433974064164
0.457411280471914,0.073069655951272
0.396690500754912,0.0737395351370329
0.330973774141418,0.0744094143227939
0.275929572337372,0.0749460968902384
0.231437478775716,0.0753755930690351
0.193564668935822,0.0757463598389684
0.160220876856346,0.0760834778472456
0.130313150285582,0.0764007600214493
0.103150270713581,0.076707766040925
0.078188473069687,0.0770131306709777
0.0548458617144805,0.0773278649721101
0.032066254423183,0.077674967079014
0.0143386131584456,0.0779855342907274
0.00433288752241568,0.0781830798023936
-0.00472750960612781,0.0783806253140597
-0.0115669635423284,0.0785447037483126
-0.0178542868595412,0.0787098403520259
-0.0242572135980829,0.0788957357913391
-0.0304931326877179,0.0790988992624166
-0.0363772501563931,0.0793171325875032
-0.0418040158244772,0.0795495669040777
-0.0467164756557349,0.079796231504513
-0.0510875058491616,0.0800578044928617
-0.0549085491228025,0.0803354894380425
-0.0581826536088007,0.0806309716414114
-0.0609199787332534,0.0809464300494838
-0.0631347253923717,0.0812845954963259
-0.0648428780603275,0.0816488562250547
-0.0660603729914784,0.0820434210015181
-0.0668014151619923,0.0824735619963814
-0.0670766937708275,0.0829459789939909
-0.0668911895777481,0.0834693638445484
-0.0662403106382219,0.0840558602764053
-0.065103177011851,0.0847228335557596
-0.063431285505484,0.0854954395658793
-0.0607960412725901,0.0865350420240692
-0.0574398704108976,0.0877390765971723
-0.0541479304321682,0.0888695382985862
-0.0508127364093024,0.09
-0.0467922495549393,0.0913686823700344
-0.0429266737432331,0.092705698346094
-0.0392562094821158,0.0940072823891163
-0.0357957837811353,0.0952734618715085
-0.0325533624704665,0.096503856629844
-0.02953220025863,0.097697863574423
-0.0267457441181254,0.0988489317872115
-0.024090610934337,0.1
-0.0217209932812373,0.10108141458288
-0.0195580832601917,0.102122467912074
-0.017589390447439,0.103124021660898
-0.0158043153002352,0.104085666518883
-0.0141917209876123,0.105006935079335
-0.0126779590802146,0.105926290400689
-0.0112242039462203,0.106869249949537
-0.00983492584256419,0.107837422958144
-0.00851409375701599,0.108832932518659
-0.00778967714224314,0.109416466259329
-0.0071014996259506,0.11
-0.00593660265901738,0.111065402406965
-0.00485400834696637,0.112165203457078
-0.00385373609199856,0.113306307743556
-0.0029382801977984,0.114494126331596
-0.00210967380905561,0.115735432842972
-0.001369450556021,0.117038845447394
-0.000718590990669948,0.118415587312932
-0.00011724325385036,0.12
0.000347652366054779,0.121584959553643
0.000707897406220047,0.12322552165458
0.000974190557625206,0.124918551761268
0.00116166466203319,0.126682503638605
0.00128414691690671,0.128540474449536
0.00135463285459579,0.130523830339563
0.00138542952463737,0.132640355300748
0.0013905907410681,0.134634181299674
0.00138616768552599,0.13650649917783
0.00138091666361039,0.138253249588915
0.00137909117548399,0.14
0.00138278165546577,0.141563549514335
0.00139220993143126,0.143041234806066
0.00140719249919887,0.144445023882676
0.00142730729884527,0.14578471053205
0.00145211725379774,0.147070793753016
0.00148131349343505,0.148315303494162
0.00150397816349058,0.149157651747081
0.00152898692602055,0.15
0.00156945053540417,0.151222510026269
0.0016168070414886,0.152494692726665
0.00167770690848533,0.153952454100205
0.00173412928712904,0.155170647108503
0.00179573144689685,0.156388840116801
0.00185105941492323,0.157402102851876
0.001904229398595,0.158315154379409
0.00195619604850553,0.159157577189705
0.00201108799066798,0.16
0.00208032500098997,0.161000984145157
0.0021694235946043,0.162200319432651
0.00233210495442252,0.16417272766224
0.00253060220901667,0.166269822085861
0.00273365049628482,0.16813491104293
0.0029669750472567,0.17
0.0032983358696237,0.172250059290281
0.00367368417882262,0.174369984044139
0.00409777575065175,0.176361304952495
0.00457998022923735,0.178245390347144
0.00513088560793634,0.180039020966378
0.00575936718823223,0.181746799493711
0.00647182620966125,0.183365385200453
0.0072703090812205,0.184885621782638
0.00813555666602584,0.186273817792786
0.00907434058531432,0.187552704221934
0.0100953857750405,0.188741796779056
0.0107031215504581,0.189370898389528
0.0113636131000224,0.19
0.0126289682362571,0.191074961972783
0.0140995760698971,0.19215599501454
0.0158419697663622,0.193263362666547
0.0179956035884594,0.194444874766026
0.0209856292172438,0.195852605343415
0.0234825740481581,0.196893097183208
0.0261767736797767,0.197933589023001
0.0286679126227951,0.198858981857143
0.0308938747602981,0.199687136260853
0.0329262094417975,0.200474097421628
0.0347826434655148,0.20125469430471
0.0364516286882139,0.2020596209289
0.0378988758346289,0.202929280966197
0.0390524932412807,0.203942495460901
0.039689180219265,0.205397356971805
0.0393737021209578,0.206646652170815
0.0384391832480928,0.207895947369825
0.0373024007209063,0.208947973684913
0.0359484178447118,0.21
0.0342101992561529,0.211217966193796
0.0321687272480833,0.212569475066632
0.0298150409351645,0.214100671239801
0.0271018247546965,0.215895170881463
0.0239033701911259,0.218122218941561
0.0212892101520927,0.220097667700499
0.0171651872224474,0.223636349086299
0.0143373530209034,0.226477244289951
0.013463861426003,0.227446918195025
0.0126451051361659,0.228416592100099
0.0115461768913838,0.229822839265688
0.0105651680817758,0.231166677496833
0.00935317810949349,0.232977786998837
0.00798128409722985,0.235350778506421
0.00680766038052905,0.237776565270801
0.00581070604751769,0.240260153375604
0.00496202862271496,0.24282310718854
0.00423902560432072,0.245487191212403
0.00362426020736635,0.248275266195059
0.00310416005770716,0.251212566791464
0.00266788093632032,0.254328054315583
0.00230647394465013,0.257656048813952
0.00201233208419787,0.261238394558312
0.00177885157709191,0.265127531538168
0.00160024374429083,0.269391096380649
0.00147145813979547,0.27411919366336
0.00138820971587493,0.279436608751063
0.00134718479728408,0.285524953790704
0.00134659488605405,0.292667266005731
0.00138232371378428,0.300462511007116
0.00144006878020504,0.30811864232835
0.00151155252314446,0.315774982623233
0.00158968260344348,0.323196229333679
0.00167452334781259,0.330606072421891
0.00175592449507902,0.337118328952423
0.00184398261935012,0.343755605802738
0.00193390881842863,0.35018177508948
0.00202744334549916,0.356557370903623
0.00212271685415384,0.362754126074809
0.00222068803690285,0.368847519806597
0.00232089230318896,0.374811869509564
0.00242362582656775,0.380672391451248
0.00252877985219905,0.386428943437202
0.00263639543520151,0.392091713156844
0.0027464111085592,0.397666163745015
0.00285875278736757,0.403158813996799
0.00297328030616763,0.408574555589847
0.00308982265651905,0.41391827612191
0.00320819511412744,0.419194870320421
0.00332823915206872,0.424409041056654
0.00344990303977468,0.429564648449503
0.00357344079835754,0.434665275246658
0.00369975918209186,0.439714252313532
0.00383101854261785,0.444714674292216
0.00397160904199129,0.449669934744826
0.00412950935205089,0.454582696276592
0.00431794253429864,0.45945524786219
0.00455668478355942,0.464289656425543
0.00482719062442582,0.468484673332431
0.00513684191835367,0.472237028522158
0.00550643996082372,0.475817989881727
0.00596687040342749,0.479446430501964
0.00658239085180196,0.483428699261166
0.00733807655919797,0.487500936648
0.00820233814507908,0.491481647662982
0.00916278673822968,0.495361639132689
0.0100946144625632,0.498751336880953
0.0110485482150954,0.501945213267537
0.012047025468751,0.505063111432228
0.013102150406933,0.508168236252882
0.0142206869523381,0.5113024385509
0.0154040624758616,0.51449794854365
0.0166459904175367,0.517782298956992
0.0179281527211046,0.521180954705357
0.0192140266337049,0.524719106840938
0.0203813144471962,0.528228649790468
0.0213446027342205,0.531624415650282
0.0220835451853507,0.535028101735637
0.0225362669496337,0.538363966715323
0.0226860125720551,0.541798096099624
0.0224616273754228,0.545624304175305
0.0218431758754303,0.549468972978697
0.0208862336009498,0.553313641782088
0.0197662584634044,0.556866545624799
0.0186222938009743,0.560056783330299
0.0174618386400516,0.563074617111027
0.0162827663131838,0.566035350007195
0.015089276139849,0.569003260198351
0.013887775008769,0.572024197875636
0.012682505043216,0.57513661446183
0.0114778510507266,0.578377080040182
0.0102785596530585,0.581783516476051
0.00908976756624889,0.585397843336171
0.00791704634991764,0.58926876315372
0.00732657231337995,0.591361973550431
0.00712636235160382,0.592097317675272
0.00693969056953901,0.592832661800112
0.00656025430086463,0.594570432595265
0.00622591770274298,0.596452965887636
0.00592113550617464,0.598540301811337
0.00562837899048655,0.6009317475795
0.00532059685331,0.603849620781342
0.00499150270793124,0.607352209417361
0.00467460232685956,0.611038402087105
0.00435558936363897,0.615087203004258
0.00407672437685885,0.619041416765469
0.00381894222407406,0.623276575479289
0.00358945520879708,0.627906183435765
0.00339983620616772,0.633006266621519
0.00326554220713226,0.638453289739552
0.0031935068167901,0.643979127326072
0.00317793881698314,0.649451840401615
0.00321073080227834,0.654864513038804
0.00328630086617808,0.660229832265832
0.00340195287137023,0.665571557383605
0.0035567306883645,0.670884338319224
0.00375176129460214,0.676176456039252
0.00398885431171463,0.681430554271706
0.00427140733355717,0.686637908099683
0.00460307678972467,0.69177193645021
0.00498816485752779,0.696804767792364
0.00543227383072564,0.701717004061637
0.00594079098489619,0.706481098285078
0.0065190653368715,0.711071068738451
0.00717326067217448,0.715471475667555
0.00791023242843225,0.719674396604831
0.00873439163766331,0.723663932988808
0.00964742674895319,0.727424164945851
0.0106560180674898,0.730969257098747
0.0117705869076765,0.734323753687027
0.0129948811286386,0.737490396908007
0.0143662799435283,0.74054708651676
0.0159362422782393,0.743562929227906
0.0177436976753238,0.746552410052232
0.0198585792242629,0.749560484054418
0.0223833699284439,0.752642647515964
0.0254736859542815,0.755873709591764
0.0289308254555604,0.75899315940704
0.0327264949081277,0.762008976603164
0.0360010402198108,0.764383251626491
0.0394611601852557,0.766757526649818
0.0425505577790263,0.768835704196079
0.0452602406474341,0.770696652530344
0.0476131569148808,0.772421634976395
0.0495922051567326,0.77406135433561
0.0511524640534253,0.775653098885029
0.0522235913232065,0.777231437280683
0.0526977097311418,0.778822300268029
0.0524642850531091,0.780376065229084
0.0514541173999852,0.781936728979605
0.0495376679170063,0.783557491984367
0.0464631931557664,0.785322028384625
0.0427965522816891,0.786951553564087
0.0392026982847397,0.788322887810964
0.0356716378907893,0.789556226831491
0.0321844478151261,0.790713557016375
0.0287481784443906,0.791825413428459
0.0253762660072578,0.79291038375929
0.0220808526429489,0.793982176090328
0.0188696151546778,0.795052850189084
0.0156715019485419,0.79616061422924
0.0121792660999633,0.797438621385179
0.0101153050798726,0.798238318610014
0.00815566937427515,0.799038015834849
0.00654713018086922,0.799734957862379
0.0048688829004077,0.800509330446397
0.00401984284906824,0.800922328832732
0.00348500173453197,0.801190686345535
0.00297802518734725,0.801459043858339
0.00190656868440475,0.802109239963221
0.00101781997738732,0.802775697149189
0.000299297326269679,0.803460380643214
-0.000262048669873744,0.804167271210196
-0.00067698823314073,0.804900488832407
-0.000954608843117142,0.805664460950567
-0.00110272703773114,0.806464111894095
-0.00112816672778807,0.807305094196484
-0.00103693410744959,0.808194101784327
-0.000834292875946175,0.8091393297149
-0.000524713285899523,0.810151198920055
-0.000111616762525164,0.811243585990285
0.000403280204243897,0.812436100400134
0.0010215549299849,0.813758818750326
0.0017452501724785,0.815249436939736
0.00247482062522123,0.816747600558934
0.00320239700189063,0.818277170971378
0.00392164838695436,0.819854849853081
0.00462976210562443,0.821498178056956
0.00532731387247268,0.823227545190841
0.0060187493098192,0.825068851945633
0.00671364275641575,0.827057771562623
0.00742949545071606,0.829247948175845
0.00813231413551057,0.831512494849537
0.00884807974201735,0.833888126305878
0.00961249440699176,0.836438036524381
0.0104732002696256,0.839251565601397
0.0115070425424803,0.84248235218406
0.0128762297906918,0.846475975155476
0.0146952475642639,0.851350835218325
0.0161853348095423,0.85509942642102
0.0177120762246833,0.858848017623715
0.0190487014729625,0.862190504082623
0.020198592471988,0.865268398712202
0.0211750727952536,0.868242891390839
0.0219400639499549,0.871134451906714
0.022463158876336,0.873951622713364
0.022735474463285,0.876820490190556
0.022714180926423,0.879936616517733
0.0222549968776482,0.883716217556082
0.0214363817124916,0.887279208162477
0.0205021619833692,0.890310441183841
0.0195804977329566,0.892880447061177
0.0186557123370542,0.895247458605217
0.0177243046295714,0.897513257072309
0.0167892953605216,0.899724736159206
0.0158548501021681,0.901909526556878
0.0149250653401328,0.904086533413372
0.0140037202985064,0.906269995473329
0.0130942220699783,0.908471487149753
0.0121995938293884,0.910701084206631
0.0113224830739557,0.912968113961444
0.0104651413229111,0.915281797059417
0.00965639989879753,0.917573253206962
0.00897392302098749,0.919605980754873
0.00835205585501207,0.921551469973132
0.00774917860242118,0.923536639813702
0.00712807996681991,0.92570090252606
0.00642462042389422,0.928325113964206
0.00571639377756576,0.931191502199087
0.00503281596400602,0.934221591808927
0.00440053869428691,0.937311419606497
0.00380941257122458,0.940512954198127
0.00322018261150085,0.944084104038017
0.00282755534882846,0.947023254019165
0.00253709945788874,0.949962404000312
0.00229675866691031,0.953232800676121
0.00207471814024472,0.957539792072157
0.00193231323969169,0.961875271289429
0.00186493407520906,0.965828871534206
0.00185821814173325,0.969542290542855
0.00190704931893193,0.972960613629341
0.00200821961453267,0.976169378738228
0.00216289641685791,0.979254667550656
0.00237645694601528,0.982309024903717
0.00266180161911535,0.985479730445289
0.00305458381977025,0.989122987206926
0.00339150799256853,0.992026227663566
0.00371374509671544,0.994929468120205
0.00397213555053436,0.997645210994387
0.00418726599326537,1.00065880943188
0.00433850294793943,1.00419566377898
0.00440983105324415,1.00836071720191
0.00442579247965579,1.01177591124326
0.00444334418762203,1.01508500212318
0.00449578882500083,1.01872139893239
0.00462460404916678,1.02289411313005
0.00488173700494198,1.02767980803715
0.00525743423174292,1.03235002144095
0.00570429804203811,1.03648785560392
0.00621746296006693,1.0402558222791
0.00679452519680022,1.04371724351026
0.00743697107644348,1.04691616185821
0.00814717726086081,1.04988039155636
0.00892763300788089,1.05263004535243
0.00978071947700541,1.05518200484572
0.0107087004323358,1.05755185487724
0.0117341307465691,1.05979585863178
0.01288082880504,1.06194896131616
0.0141632468359821,1.0640157651927
0.0155981016123373,1.06600143602118
0.0172048183817586,1.0679115327813
0.0190058725895922,1.06975168385787
0.0210274004673204,1.07152758412557
0.0233004649007853,1.07324536451317
0.0258622197570606,1.07491151017381
0.0287577238190931,1.07653300843192
0.0320429649251722,1.0781177726319
0.0357895880793901,1.07967521813919
0.0400925025191805,1.08121709604623
0.0450858611692907,1.08275976495838
0.050975756188013,1.08432842391862
0.0580701068420111,1.08595683164627
0.0663548297933404,1.08760313786203
0.0761897514180582,1.08931400077878
0.0853548991088917,1.09075200759837
0.0951423671960799,1.09219001441796
0.103720670208566,1.09341883885169
0.111134535962818,1.09450130075882
0.117529641616499,1.09549772380559
0.122884043900039,1.09644028066428
0.127088580413488,1.09734972683887
0.12997365884696,1.09824280009823
0.131302864998492,1.0991364193463
0.130730324532828,1.10005269563962
0.127648279358512,1.10103255227352
0.121151287234787,1.10210127462538
0.11101363613858,1.10320520774894
0.101933167674624,1.10398573574069
0.0915452913720282,1.10476626373244
0.081377422906869,1.10546760603894
0.0716259877290023,1.10611026504194
0.0622708034481513,1.10671642117105
0.0533115039353891,1.10729994519455
0.0447537294780118,1.10787080983427
0.0365974869659295,1.10843755884757
0.0288291954699906,1.10900904168865
0.02140842240489,1.10959677186944
0.0142282148331794,1.11022089221894
0.00692072238127168,1.11093744684455
0.00176974882340259,1.11151421388518
-0.00274761606196632,1.11209098092581
-0.00636114408443209,1.11262002843445
-0.00928119976462956,1.11310959038632
-0.0117366241673647,1.11358134719653
-0.0139559359130545,1.11407436422815
-0.0159473916685746,1.11459474503133
-0.0176921995799447,1.115142414895
-0.0191811708077327,1.1157182737737
-0.0204114157310751,1.11632398319593
-0.021331477467383,1.11696179686895
-0.0218510630234185,1.11758941838818
-0.022052194436202,1.1182170399074
-0.0219891149752376,1.11885824212407
-0.0216826994323153,1.11953888235719
-0.0211404565070771,1.1202654176625
-0.0203708364327589,1.12104296965635
-0.0193833552493186,1.12187756134788
-0.0181885101729268,1.12277640899806
-0.0167975833487928,1.12374842732314
-0.015222075466349,1.12480519052537
-0.0134721488010288,1.12596294567489
-0.011853051966609,1.12704374500638
-0.0103592307049074,1.12806568098849
-0.00890031697633913,1.12910033609102
-0.00748574449687558,1.13015127045248
-0.00612223422748472,1.13122276326436
-0.00481563635724013,1.13231898799298
-0.00357099807066747,1.13344427776253
-0.00239261078814785,1.13460335427902
-0.00128402337252707,1.13580157228676
-0.00024802687273472,1.1370452135835
0.000713387736651884,1.13834187412971
0.00159910259717594,1.13970101078657
0.00240898722782788,1.14113476198117
0.00314407749274128,1.1426592571226
0.00380687021438477,1.14429685663708
0.0043893713700279,1.14603896198079
0.00487972603567114,1.14782920238343
0.00529779108268753,1.14969247512954
0.00566117154118121,1.15165614393007
0.00598734788623508,1.15375697366169
0.0062950958553161,1.15604854991155
0.00660716250613524,1.15861791008935
0.00695716021427082,1.16163205707415
0.00741825137247845,1.16553885576864
0.00792631570703134,1.16958263980957
0.00855555568300389,1.17419335839968
0.00923936563130113,1.17879368355948
0.0099747106795016,1.1833570097703
0.0107649398097385,1.18788432168093
0.0116174207666405,1.192377159952
0.0125641488834434,1.19693396451779
0.0136230049318347,1.20154471994163
0.014824484767682,1.20623363790159
0.0162143795497759,1.21105231535277
0.0178767020208168,1.21613083720346
0.0200339112059601,1.22188836994856
0.0226218359398888,1.22796154813841
0.0243176270286459,1.23165231589522
0.026051222067679,1.23534308365202
0.0275846766312362,1.23867329086754
0.0289160500202693,1.24176698366944
0.0300603579726282,1.24477972902138
0.0309510323277914,1.24763730102269
0.0316006267724823,1.2504504871536
0.0320090985677018,1.25335903527913
0.0321445835044889,1.2566076653194
0.0318799058468497,1.26069727419948
0.0314752661804714,1.26349226962905
0.0309437903400975,1.26628726505861
0.0303983797591498,1.26879933683577
0.029862759505763,1.27113732220428
0.0293434153615109,1.27338088542136
0.028843113337684,1.27557243600557
0.0283600013261558,1.27773780077521
0.027886264302762,1.27989478645086
0.0274068925569604,1.28205679300724
0.0269315752513808,1.28409927562095
0.0264409095595827,1.28603143231721
0.0258970093503204,1.28793382200022
0.0252595062249627,1.28987004750289
0.0244741877868001,1.29191189886828
0.0234397695353925,1.29419509351761
0.0221659331056591,1.29659687219411
0.0206698410498212,1.29906549772805
0.0190380915152112,1.30150172025187
0.0175367018954609,1.30360655567319
0.0160563612491846,1.30561270765071
0.0156484598557895,1.3061589294501
0.0152436446126411,1.30670515124949
0.0144303840181465,1.30783801026831
0.0126863774141931,1.31044813897255
0.011042905556659,1.31317436935163
0.00950985445725535,1.31600330684378
0.00807395235434977,1.31895928886236
0.00672300945886291,1.32206994778243
0.00548404116226622,1.32526205791708
0.00443767212004539,1.328258142704
0.00354370318022548,1.33107033044958
0.00276950896079524,1.33371855514262
0.00209063680404706,1.33622156622845
0.00148843742393197,1.33859759238058
0.000948199704415883,1.34086582735505
0.000458605379319111,1.34304838008531
1.77445049959943e-05,1.34517335287301
-0.000387257860158454,1.34728129892578
-0.000772963320386111,1.34944315224571
-0.00116754660179737,1.35183471443008
-0.0014944943733545,1.35398322138502
-0.00179561750709991,1.35613172833997
-0.00202172778769169,1.35788342218193
-0.00220624319974358,1.35942739358418
-0.00237103718975272,1.36091898081526
-0.00252633318103315,1.36245201048954
-0.00268011204486196,1.36413517177728
-0.00284436117557814,1.36619739228457
-0.00307922666508937,1.37003562294096
-0.00322055181388329,1.37372089167481
-0.00328067288137734,1.37689247945033
-0.0032885717976131,1.38024330066259
-0.00324704140014998,1.38355750417983
-0.00317225527462214,1.38658117661018
-0.00307161123906748,1.38949202803566
-0.00294671289291018,1.39239435205288
-0.00279660923704135,1.39535239295717
-0.00261993571896915,1.3983879076663
-0.00241292927920978,1.40152818723612
-0.0021698912515338,1.40478811437743
-0.00189569956854669,1.40802326245916
-0.00160264783100916,1.41104833009508
-0.00128760660797563,1.41388087014766
-0.000944758815003307,1.41655210948228
-0.000566230424403205,1.41909753670328
-0.000141148161737124,1.42156154626283
0.00034711622929763,1.42400930385044
0.000927216966725533,1.42655095780693
0.00166922383793836,1.42946082633882
0.00236292822832752,1.43204772977273
0.00290539448080989,1.43411821707795
0.00339646789986915,1.43614264206825
0.00387590705264178,1.43839507503131
0.00439502916544932,1.44139903325056
0.00473762914616113,1.44390557813598
0.0050285520324548,1.4464121230214
0.00528021875934941,1.44870945264511
0.00554584158100353,1.45101165436143
0.00586814263629763,1.45345177627138
0.00627821343964016,1.45602128285219
0.0068049974152034,1.45868787667658
0.00746581587905818,1.46137793617781
0.00825174531568455,1.46397349115508
0.00914151950364126,1.46639704096156
0.0101265819668412,1.46864440004582
0.0112279122103376,1.47077069340482
0.0124536037343359,1.47278502024037
0.0138158147992636,1.47469817963495
0.0153299275483884,1.47652016406871
0.0170134891868408,1.47825888993533
0.0188876312152921,1.47992196465343
0.0209760240876425,1.48151551325288
0.0233064016773137,1.4830454416393
0.0259105033969035,1.48451703519752
0.0288253543728412,1.48593542701849
0.0320942188103195,1.48730559929411
0.0357682216460357,1.48863255489052
0.0399085410867865,1.4899214696985
0.0445894025305867,1.49117784421414
0.0499027887631701,1.49240779826946
0.0559654832596535,1.49361843312616
0.0629312000509896,1.49481854025618
0.0710121672139055,1.49601982072151
0.0805234839362382,1.49723952283312
0.0919890775654509,1.49850685379209
0.105322342871345,1.49978140621677
0.120983950344334,1.50108783580836
0.139768245360813,1.50247277236017
0.156047642305656,1.50356998502567
0.173190994475335,1.50466719769117
0.188813722587653,1.50565028884428
0.20280794576187,1.50654988996064
0.215200607570053,1.50739806237377
0.225827280605124,1.50821343440529
0.234406957106918,1.50900849739379
0.240571448118129,1.50979319874265
0.243863497400328,1.51057708713381
0.243701613642075,1.51137161830893
0.239263262507905,1.51219485251802
0.228986243684293,1.51309044934159
0.212131426235946,1.51401553895237
0.193613087273341,1.51477761558168
0.171390309161832,1.51553969221099
0.150824210154185,1.51616909446658
0.132012730847202,1.5167116890195
0.114503015695552,1.51720422538066
0.0981003662015913,1.51766529633782
0.0827083135169592,1.51810624286015
0.0682577306444131,1.51853545800047
0.0546801540507772,1.51896034585595
0.0418878643288374,1.51938889427797
0.0297369118649955,1.5198322831026
0.0179008596520931,1.52031302662965
0.0049639642847732,1.52092142171237
-0.00109177246227986,1.52125000114984
-0.00652381047347335,1.52157858058732
-0.0110695775419627,1.52188602949361
-0.0150491629622848,1.5221872551774
-0.0188607895953473,1.5225130999267
-0.022408664754687,1.52286104257325
-0.0256320399807776,1.52322969872949
-0.0284988999330491,1.52361904724704
-0.0309941320069995,1.5240299846835
-0.0331127562028596,1.52446409127758
-0.0348559706446669,1.52492352678786
-0.0362372836264308,1.52543252680229
-0.0371191580195894,1.52594152681672
-0.0376032299438701,1.52646902707181
-0.037730350675099,1.52703417123475
-0.0375085472199047,1.52764227520145
-0.0369435273513752,1.52830067098081
-0.0360375143300588,1.52901828023697
-0.0347904329622776,1.52980530800766
-0.0331986856992722,1.53067490506845
-0.0312530659612903,1.53164478467248
-0.0289341587621912,1.53274055958922
-0.0261996799497768,1.53400409326929
-0.0235914100683848,1.53521386799517
-0.0211677103894742,1.53636332164254
-0.0189341165297303,1.53745894598506
-0.0168881661140394,1.53850487567159
-0.0150234740857089,1.53950363237213
-0.013331379750887,1.54045675654264
-0.0117597656144711,1.54139093245543
-0.0102427775062082,1.54234710800299
-0.00878580912292971,1.54332698803762
-0.0073932879957463,1.54433291445525
-0.0060693346646045,1.54536755251892
-0.00481772688679455,1.54643399312088
-0.00364186201511218,1.54753587819738
-0.00254471253620328,1.54867756583247
-0.00152877495379478,1.54986435459633
-0.000596011399831078,1.55110279840398
0.000252218108389693,1.55240116427711
0.00101523718653656,1.55377012538574
0.00169315721590278,1.5552238625969
0.0022870222346727,1.5567819250378
0.00278764631031519,1.55843007812841
0.00318888671509159,1.56012407602327
0.00350804156505252,1.56188339700231
0.00376048811500593,1.56373004645547
0.00396086448508956,1.56569335780307
0.00412367664319361,1.56781494899686
0.00426428367510586,1.57015914078037
0.00440096553299561,1.57283874886416
0.00456124065452079,1.57610127136945
0.00476276354098511,1.57988482690757
0.00499100138855515,1.58365660198963
0.0052492928437422,1.58745640765161
0.00553753135567728,1.59132533293151
0.0058551252598594,1.59529803289786
0.00620279228869135,1.59940628196771
0.00658346738160481,1.60368108454488
0.00700280314332123,1.60815425934543
0.00746953773855415,1.61285979517521
0.0079851850864592,1.61773513889972
0.00852974128116451,1.62252898334385
0.0091145824835851,1.62729580643673
0.00974213817076166,1.63200204244934
0.0104188363064179,1.63664308664321
0.0111594736153954,1.64125896832023
0.0119854226756616,1.64590283894203
0.0129139964070227,1.65057712823287
0.0139706630369185,1.65530524852553
0.0151925887438808,1.6601332292809
0.0166445454974194,1.66516902478562
0.0184802558079669,1.67072602872009
0.0209045952497914,1.67714157582685
0.022469997772205,1.68095969693947
0.0240696424267513,1.68477781805208
0.0254639734919192,1.68819645940117
0.0266395982032898,1.69133093089413
0.0276091574324851,1.6943518471886
0.028322599315053,1.69723482050511
0.0287697327381048,1.70004651429801
0.0289382534079021,1.70291774811907
0.0287729674239201,1.70605281616838
0.0280384216822984,1.71010974616604
0.0271925300634158,1.71302197222862
0.026132070703907,1.71593419829121
0.025058962203529,1.71850399260235
0.0239889636917931,1.72086914469245
0.022918186995712,1.72312625030552
0.0218481576092773,1.72532372024985
0.0207823221968647,1.72748985408156
0.0197244547587367,1.72964364485542
0.0186782012522946,1.73179908958592
0.0176469626442457,1.73396721738498
0.0166338587695584,1.73615721812372
0.0156417388126045,1.73837709241407
0.014673183998293,1.74063410341025
0.0137305241902881,1.74293507164618
0.012815851248345,1.74528659832171
0.0119310204841712,1.7476952729067
0.0110776713783598,1.75016780588589
0.0102572341662032,1.75271118362713
0.00947093661167868,1.75533282526146
0.00871125600379793,1.75807289988603
0.00796699787743287,1.76099856657416
0.00724227495317422,1.76413140282755
0.00654128068739568,1.76749716109726
0.00586849012519783,1.77112572719542
0.00522864471782331,1.77505195613264
0.0046267055592976,1.77931688401864
0.00406777654191564,1.78396959368589
0.00355699531454588,1.78907040804962
0.00309939801631795,1.79469701467857
0.00269996115727104,1.80095454174449
0.00236988097924302,1.80784640242217
0.00216540082215083,1.81365022763608
0.00202667879150885,1.81945405284999
0.00192242742390892,1.82761687014938
0.00189069203927485,1.83520159965837
0.00190773086838352,1.84409724324625
0.00196017127755259,1.85232736092683
0.00202360786295081,1.85987116323926
0.00207924903224284,1.86679281052383
0.00211239995070463,1.87315161616231
0.00211226989345619,1.87899984894484
0.00207207184959011,1.88438403982875
0.00198896384667067,1.88934650039434
0.00186368849770287,1.89392546839093
0.00169988761134879,1.89815622800191
0.00150322618845726,1.90207121701059
0.00128046064879337,1.90570064707513
0.00106373265509064,1.90907258245624
0.000895497499102877,1.91201457950879
0.000742649268961191,1.91495623863425
0.000608923391854093,1.91772102193553
0.00048906421579198,1.92032657465388
0.000379319295131734,1.92279707650878
0.000277007044809716,1.92515863268203
0.000179997345935246,1.92744158349514
8.62485092827319e-05,1.92968578187521
-6.8450491998976e-06,1.93195390329315
-0.000104270570411626,1.9343787558302
-0.000226150093892145,1.93751235935648
-0.000294648109471233,1.93934244168006
-0.000360750228819596,1.94117252400364
-0.000418649972461716,1.94284265293258
-0.000471275879981723,1.94443106488436
-0.000521841291735612,1.94603903211189
-0.000572970701228326,1.94777242831343
-0.000628467116180741,1.94982356602838
-0.000702120487581599,1.95298285561441
-0.000763903176359952,1.95641663686748
-0.000800021395374787,1.95934975355701
-0.000819921394057493,1.96232825474402
-0.000820879987530695,1.96580990748699
-0.000785239959081849,1.97036151158959
-0.000694660495272183,1.97545991740924
-0.000559652738831031,1.98018474188591
-0.000386788609165807,1.9845230507402
-0.000178477849275486,1.98850807116529
6.5672001836707e-05,1.99217355372457
0.000348672247985176,1.99555841860196
0.000675576731628159,1.99870114674762
0.00105417883114657,2.00164760544646
0.00149544378474949,2.00444995131646
0.00201539103660376,2.00717431856236
0.00264115550159535,2.00992399168396
0.00341989941242628,2.01286692853152
0.00410711194263241,2.01522608485785
0.0048210959757173,2.01758524118418
0.0054989045653993,2.01983310532033
0.00622574121944873,2.02232769424151
0.00696150836181935,2.02497006950269
0.00768259032458978,2.02761244476387
0.00831430447828661,2.02985740818877
0.00893694232744779,2.03190769314743
0.00959918668578206,2.03386292435383
0.0103384008884151,2.03577447669652
0.0111961047957372,2.03768470683315
0.0121789139066938,2.03955026941566
0.0133147273780752,2.04137952511041
0.014607989244275,2.04314432349782
0.0160743894266452,2.04484181655133
0.0177298140327731,2.0464705802479
0.0195879449532654,2.04802798195656
0.0216706825270462,2.04951838817457
0.0240027278826477,2.05094590612102
0.0266118673617344,2.05231432775699
0.0295316180550713,2.05362815149115
0.0328010150584776,2.05489176100034
0.036465180216825,2.05610928007019
0.040576857473117,2.05728475626121
0.0451984674771191,2.05842230542191
0.0504037169766046,2.05952599654868
0.0562806267774486,2.06059998715026
0.0629361488718964,2.06164873016814
0.0705016612760332,2.0626770438863
0.0791418676230489,2.06369037283494
0.0890686370689695,2.06469517124103
0.100563558072958,2.06569950592142
0.114017947299227,2.06671415204988
0.130011795666082,2.0677548231524
0.148828806056469,2.06881263282573
0.170712969453523,2.06988106874487
0.196357513695428,2.07097718380418
0.226802183544286,2.07212816588129
0.262080806234978,2.07332748078044
0.297579700040722,2.07444636845983
0.328567272594708,2.07538985263394
0.356079248439626,2.07623143658943
0.38048890647317,2.07701083050175
0.401760612745778,2.07775187778135
0.419646595233502,2.07847303650944
0.433686512407393,2.07919119156467
0.443121789608347,2.07992403162104
0.446711066306157,2.08069275238807
0.442333848179869,2.08152664383578
0.427853118729767,2.08239461285493
0.402237807483007,2.08327825380105
0.364303444784687,2.08418834080368
0.325999198674565,2.08491382929833
0.281337618528442,2.08563931779297
0.241492886802147,2.08622695819483
0.20719856593802,2.08670980827016
0.1768375768135,2.08713140420611
0.149447806063866,2.08751523410632
0.124479703594262,2.08787493905989
0.101566309105218,2.0882198927349
0.0804191097382959,2.08855778132406
0.060762554475763,2.08889643555753
0.0422448888266617,2.0892466159391
0.0241505010548029,2.0896312198156
0.00933807671658231,2.0899919347971
0.00134113900805409,2.09021094613414
-0.0059326183111249,2.09042995747117
-0.0120974837970491,2.09063437586099
-0.017729280052702,2.09084029006898
-0.0233268866865866,2.09106821999916
-0.0286808062590986,2.09131469726128
-0.0336595125868575,2.09157768540064
-0.0381917126384485,2.09185657307995
-0.0422336875234788,2.09215168750448
-0.0457696643567135,2.09246482146573
-0.0487519293335334,2.09279241544118
-0.0512369210780848,2.09314054236752
-0.0532353366177102,2.09351181886058
-0.0547594995056456,2.09390939942933
-0.0558222553265515,2.09433714961569
-0.0564355516060431,2.09479982252643
-0.0566090693021892,2.09530331768412
-0.0563487133846024,2.09585506747697
-0.055653545674188,2.09646545143435
-0.0545119703725736,2.09714830897162
-0.0528984704640229,2.09792221896255
-0.0507627729097308,2.09881524242502
-0.0480017315751534,2.0998757965041
-0.044351770235999,2.1012137684664
-0.0406024181468423,2.10256765825825
-0.037017573764373,2.10387368305267
-0.033630872944545,2.10513623649254
-0.0304572216126378,2.10635778646792
-0.0275025346065249,2.10753943166021
-0.0247671384433177,2.10868155651918
-0.022247502544539,2.10978418165843
-0.0199372967415473,2.11084714732553
-0.0178281422176652,2.11187020580886
-0.0159102032137601,2.11285306173164
-0.0141726799874026,2.11379538078136
-0.0125900026723307,2.11470520579805
-0.0110644064059282,2.11563802645457
-0.00960095551149417,2.11659506859309
-0.00820369199401765,2.11757832416796
-0.00687648259573646,2.11859011560777
-0.00562296472883923,2.11963318143149
-0.00444649704697431,2.12071078260229
-0.00335010766451033,2.12182684440181
-0.00233644019107844,2.12298614986132
-0.00140769743353393,2.12419461033594
-0.000565582121132714,2.12545965556416
0.000188766804639006,2.12679081659001
0.00085484526493076,2.12820063600049
0.00143286826053324,2.12970616949598
0.00192150674244682,2.13132266981078
0.00230343017755032,2.13297893257783
0.00259599059893407,2.13469345159976
0.00281413521605118,2.13648551245534
0.00297179094216947,2.13838045520715
0.0030822299004902,2.14041332488456
0.00315859512303652,2.14263626973928
0.00321479887497283,2.14513539786166
0.00326767167413303,2.14807918724895
0.00334297416466695,2.15182219254461
0.00344489210266651,2.15564804482822
0.00357418248287221,2.15944718745516
0.00372863039003269,2.16327361290079
0.00390468206063243,2.16716988392751
0.00409952525545581,2.17117179446067
0.00431192715684912,2.17531217244307
0.00454242790839011,2.1796232220153
0.00479326286755089,2.18413826408585
0.0050682450731378,2.18889325676694
0.00537278019522311,2.19392837344795
0.00571415579830556,2.19928918676685
0.00606512067547895,2.20448772312979
0.00643705539492735,2.20966438319418
0.00682837995583845,2.2147520862548
0.00724353075670079,2.2197656933374
0.00768635117740542,2.22470491654855
0.00816186330230172,2.22957723949805
0.00867548624495046,2.23438731819639
0.00923317134075611,2.23913800863704
0.00984143173254933,2.24383008616827
0.010507459272977,2.2484628211976
0.0112518106158721,2.25310915348348
0.0120914801696759,2.25778566244111
0.0130460559668897,2.26250174604855
0.0141432453530443,2.26728361031479
0.0154262966931195,2.27219112796557
0.0169782486647899,2.27737591137236
0.0190384109050543,2.28335403169138
0.0208332121172838,2.28800631535062
0.022746105759934,2.29265859900986
0.0243252548796548,2.2964588583727
0.0256326308711928,2.29975579534132
0.0267280442312003,2.30283143816537
0.027610325866237,2.30582520416467
0.0282226963416515,2.30867113573566
0.0285673708611023,2.31148929796298
0.0286206252381138,2.31442584978638
0.0282949757200455,2.31775824352895
0.0272957454636138,2.32211708996914
0.0264003600816195,2.32481955011805
0.0253409530891134,2.32752201026696
0.0242671767703895,2.32998521735776
0.0231923720008652,2.33229850201577
0.0221167800601397,2.33452890221057
0.0210431007243897,2.33671388044145
0.0199749426333813,2.338877027319
0.0189159771945912,2.34103495295644
0.0178696794290217,2.34320033848981
0.0168392579327635,2.34538348850438
0.0158276422260245,2.34759322154992
0.0148374882791266,2.34983742982293
0.0138711906759338,2.35212345650472
0.0129308933472043,2.35445837653806
0.0120184999657447,2.35684921947911
0.0111356872263244,2.35930315122287
0.0102839098178625,2.36182766249792
0.00946441677235242,2.36443072425526
0.00867825586816771,2.36712098710342
0.00791481151843039,2.36995234875213
0.00716718755279159,2.37298007808648
0.00643927574256356,2.37622769468422
0.00573503246351916,2.37972306477568
0.00505859526845503,2.38349863699999
0.00441422214064073,2.38759246865241
0.00380619186526715,2.39204970655424
0.00323863702931312,2.39692508339027
0.00271532020626882,2.40228728048581
0.00223933170791137,2.40822746469026
0.001812988756335,2.41487251125286
0.00154404391558301,2.42048975159567
0.00131264245635679,2.42698724022424
0.00111735628948306,2.43431893258019
0.000961498931125484,2.44234530510264
0.000843468816914971,2.45129748379901
0.000770335104775736,2.46057574200286
0.00073815969647344,2.46906850701405
0.000731997132842416,2.47680991246505
0.000742409469445906,2.48387543662901
0.00076364959534309,2.49033476327257
0.000792162524643007,2.49625079064429
0.000825679596325296,2.50168044853501
0.000862708580470436,2.50667546957233
0.000902248596811908,2.51128315914241
0.000943631411959289,2.5155470559066
0.000986423539310327,2.51950766938032
0.00103038059445236,2.52320327975125
0.00107541300114291,2.52667095077832
0.00112159856030355,2.52994794286057
0.0011692101763341,2.53307399950418
0.00121880216380158,2.5360955893499
0.00127145059884163,2.5390753207676
0.00132941191758049,2.54211829676914
0.00139894658749535,2.54548316345915
0.00146398160875147,2.54838208915897
0.00153429190259412,2.55128101485878
0.00159729981718691,2.553694217098
0.0016566958971569,2.55582624668144
0.00171778324293536,2.55788842914269
0.00178484898953917,2.56001428322151
0.00186428790927425,2.56236407958846
0.00197224633496343,2.565300085212
0.00221740350202983,2.57108481960384
0.00245285862498542,2.57573521522871
0.00267738853817896,2.57958608575671
0.00295450288009626,2.58377565390281
0.0033465301200015,2.58893239397072
0.00379010989072895,2.59394786884006
0.00426069899582052,2.59854100858564
0.0047595743431391,2.60276997744482
0.00528649169164797,2.60666988701289
0.00584440350869676,2.61029581964216
0.00644076697236719,2.61372056752198
0.00708930406689506,2.61703613279895
0.00781748922933256,2.62038384571964
0.0086375461253657,2.62383604141268
0.009576605839606,2.62758105598575
0.0105149048793902,2.63132824683744
0.0113943611173856,2.63506103485957
0.0120002646520678,2.63783810028946
0.0125793555144591,2.64061516571936
0.0131097078192951,2.64314614586943
0.0135911717571198,2.64529475277101
0.0141030290039114,2.64732966547607
0.0146731433942225,2.64927383024269
0.0148892412550048,2.64992968821868
0.0151240139497371,2.65058554619467
0.0158936617088974,2.65239416092235
0.0168527761053985,2.65417753926969
0.0180003161103354,2.65589632821346
0.0193464333170633,2.65754482921818
0.0209093873006511,2.65912752635305
0.0227069637042397,2.66064549942671
0.0247592043136973,2.66210036320483
0.0270943002809363,2.66349735447598
0.0297432340421132,2.6648402298372
0.0327419510987037,2.66613267461344
0.0361341641855335,2.66737901998376
0.0399709434367935,2.66858336906304
0.0443126799805397,2.66974982314691
0.0492312227560127,2.67088253796963
0.0548139088594751,2.67198602035918
0.0611671815056541,2.67306503828835
0.0684234787582504,2.67412490737345
0.0767514398121943,2.6751718176645
0.0863727988259535,2.67621340087489
0.0975911383338658,2.67725964262545
0.11084801608817,2.67832478775109
0.126709647272026,2.67942280074584
0.145150454836322,2.68052680993842
0.166737886275059,2.68165343218748
0.192324665668442,2.68282939082803
0.223416326920289,2.68410540957769
0.254572249909103,2.68528192184489
0.281860962171343,2.6862712668708
0.306458213038159,2.68716132931932
0.328620415909084,2.68799159005698
0.348178429097853,2.68878244677694
0.36480243797526,2.68954846438517
0.378041024024812,2.69030240115837
0.387283250901294,2.69105682499535
0.39167657764165,2.69182520260515
0.389989342724683,2.69262327462625
0.380330596012062,2.6934733611903
0.360909451657463,2.69435979317862
0.331047900776985,2.69525978620281
0.289679684210291,2.69619006722873
0.259072973791254,2.69676924703291
0.225474337968064,2.6973484268371
0.194489916430366,2.69785321671097
0.166662531300781,2.69829623205065
0.141372253524491,2.69869953833088
0.118188705413554,2.69907719499254
0.0968217091304775,2.69943880851074
0.077043532297193,2.69979207063002
0.0586386497706571,2.70014447913993
0.0413430887288606,2.70050556138194
0.0246792733255738,2.70089294340322
0.0069173259484997,2.70136990233853
-0.00116696563306422,2.70161891049591
-0.00847018797391429,2.7018679186533
-0.0143633764756295,2.70209035492332
-0.0196976149538792,2.70231299467553
-0.0249560686579903,2.70255805715409
-0.029956668515518,2.70282221858338
-0.0345854384826117,2.70310355260805
-0.0387813156203309,2.70340156130994
-0.0425080472549299,2.70371668703674
-0.04594943391919,2.70407433826271
-0.0486179726488032,2.70442432952072
-0.0508101733529977,2.70479587581718
-0.0525389587237744,2.70519207782806
-0.0538157471737629,2.70561628261009
-0.0546521149953412,2.70607256730577
-0.0550585533514053,2.70656592363108
-0.0550432337157617,2.70710252165099
-0.0546106360720214,2.70769010228962
-0.0537571952014621,2.7083402673246
-0.0524704948006096,2.70906684561552
-0.0507248016528401,2.7098891491116
-0.0484705647030769,2.7108363867363
-0.0456065018662935,2.71195925437326
-0.041985587146823,2.71333082283544
-0.0384978526437885,2.71464458808278
-0.0351923340474281,2.71590863083139
-0.0320899264670819,2.71712771789319
-0.0291992909497753,2.71830428230895
-0.0265220830565382,2.71943952156282
-0.0240554419677468,2.72053397461878
-0.0217934018543785,2.72158782430417
-0.0197278196766809,2.72260105462749
-0.017849057903968,2.72357352778148
-0.0161465236620464,2.72450501418711
-0.0145623399087692,2.72542310775274
-0.0130351281165235,2.72636443542299
-0.0115695938725311,2.7273304966835
-0.0101697096313356,2.72832339582045
-0.00883923706118751,2.72934559042155
-0.00758167325339382,2.73039998297428
-0.00640019780698495,2.73149003753856
-0.00529761611114942,2.73261993621118
-0.00427629838292712,2.73379479393154
-0.00333811326401909,2.73502096152628
-0.00248435356088723,2.73630646714116
-0.00171564951766312,2.73766168439383
-0.00103186078035623,2.73910039239941
-0.000431929302481756,2.74064156033254
7.46869767240007e-05,2.74227013216824
0.000482158300621737,2.74394405471485
0.00080743977002605,2.74568176249771
0.00106569054540078,2.74750421363844
0.00127134754273985,2.74943932148665
0.00143865611852232,2.75152649204105
0.00158253020365127,2.75382604911918
0.00172030900798234,2.75644203903649
0.00187686855745166,2.75959512082384
0.00207291782603593,2.76333514523932
0.00230456534086054,2.76730673069278
0.00260183701572336,2.77190621524229
0.00295001899522826,2.77691810578346
0.00333552945211969,2.78225550785739
0.00375016786371432,2.78788983957929
0.00415323510250149,2.79328733731878
0.00455931249332759,2.79862562957183
0.00496875724713475,2.80386017591691
0.00538766924863758,2.80901748755552
0.00582044544712898,2.81410146726139
0.00627181475730171,2.81912065046177
0.00674627624117101,2.8240795372136
0.00724848333729748,2.82898130709201
0.00778335422920141,2.83382736128889
0.00835625272888703,2.83861785652232
0.0089731131215783,2.84335183436486
0.00964057340992474,2.84802755928272
0.0103670700786086,2.85264877819308
0.011178991017782,2.85730993069822
0.0120906166351102,2.86200058415019
0.0131251015311285,2.86673980568644
0.0143152058128486,2.87156377461711
0.0157161327420011,2.87655917480613
0.0174483813994098,2.88196346613923
0.0198780719344848,2.88855894257835
0.021495890761941,2.89255886051362
0.0231688834875845,2.89655877844889
0.0246248803979621,2.90008969375036
0.0258509513823112,2.90327703336734
0.026870838594276,2.90631414364312
0.0276514189373298,2.90923854350462
0.028164895010582,2.91206241110734
0.0284051559789173,2.91491005679864
0.0283317764440419,2.91795590218193
0.0277926049833055,2.92164044727868
0.0269796716863558,2.92478513759996
0.0258981062917725,2.92792982792123
0.0248137097763145,2.93060474623724
0.0237392318800242,2.93302101676718
0.0226645419316649,2.93530909670724
0.0215895187653463,2.93752783145602
0.0205172327915477,2.93970963352309
0.0194513694737314,2.94187561798471
0.0183955640917568,2.94404107888876
0.0173532241209073,2.94621795320522
0.0163274836256878,2.94841612545532
0.0153212005699691,2.95064419430546
0.0143369660618297,2.95290996627086
0.0133771151159801,2.95522080226037
0.0124437427237114,2.95758386504839
0.0115387100121736,2.96000633885326
0.0106636575535827,2.96249560325713
0.00982001820621486,2.96505939275517
0.00900902330436824,2.96770597366533
0.00823171620305647,2.97044430805132
0.00747455421955266,2.97334179247479
0.00673448747906564,2.97644256408158
0.00601541522540459,2.97977110072647
0.00532133716976325,2.98335606553675
0.00465641310362075,2.9872306254141
0.00402488220299013,2.99143339568564
0.00343093753585873,2.99600981114383
0.00287853640931666,3.0010144078321
0.00237111444932542,3.00651527707178
0.0019113587321589,3.01260103005455
0.00150116796349561,3.01939007710715
0.0011545690266503,3.02673251345063
0.000876166135472144,3.0346994492246
0.000660267030213146,3.04352163769551
0.000512859332041823,3.05186754590425
0.000387350213191057,3.06158988635439
0.000296574564287053,3.07158988635439
0.000233734891794612,3.08158988635439
0.000190774304257618,3.09158988635439
0.000161783987031183,3.10158988635439
0.000142535946202879,3.11158988635439
0.000130104417775741,3.12158988635439
0.000122510833153754,3.13158988635439
0.000118430048042556,3.14158988635439
0.000116977898328721,3.15158988635439
0.000117570227508624,3.16158988635439
0.000119832328657023,3.17158988635439
0.000123540373341492,3.18158988635439
0.000128582965139274,3.19158988635439
0.000134936226130972,3.20158988635439
0.000142648859674724,3.21158988635439
0.000151835190039036,3.22158988635439
0.000162675107414926,3.23158988635439
0.000175420632593804,3.24158988635439
0.000190409675695824,3.25158988635439
0.000208088635750058,3.26158988635439
0.000229046969623754,3.27158988635439
0.000254069105675112,3.28158988635439
0.000284212740423376,3.29158988635439
0.000320928855808827,3.30158988635438
0.000365238679265168,3.3113864891179
0.000416114020963451,3.32047224996794
0.000474314131957742,3.32887910145621
0.00054082079858186,3.3366564291003
0.000616769014469714,3.34385108565504
0.000703450977933666,3.35050683463232
0.000802331193113591,3.35666452704437
0.000915066994795202,3.36236228812508
0.0010435325693546,3.36763568958573
0.0011898465094385,3.37251791002931
0.00135640304381786,3.37703988901288
0.00154590884424338,3.38123047715077
0.00176142589445916,3.3851165808996
0.00200642284745455,3.38872330333559
0.0022848370294832,3.39207408420298
0.0026011506295258,3.39519084253751
0.00296048643534052,3.39809412305165
0.00336872997738878,3.40080325073773
0.00383268995347555,3.4033365016907
0.00436031474228859,3.40571130004785
0.00496099408488004,3.40794445852838
0.00564599674553842,3.41005249423943
0.00640628398176951,3.41199868795214
0.00724451894394128,3.41379770216328
0.00817162522743793,3.41547941782613
0.0092035171370105,3.41707317330233
0.010365054827425,3.41861093373228
0.0117124451279222,3.42014786029515
0.0134100074259881,3.42181698521728
0.0159570438400194,3.4239560809451
0.0177096621432247,3.42526946563615
0.0195633953984396,3.4265828503272
0.0212578071564744,3.42776046559793
0.0227740967187356,3.42883646557888
0.0241398613457396,3.42986793169453
0.0253543576751539,3.43089417385964
0.0263977310917243,3.43195265254173
0.0272292364499519,3.43309470350675
0.0277643216500161,3.43442393299141
0.0277004620352608,3.43636939185984
0.0270578943088713,3.43782903174404
0.0260168886339124,3.43928867162823
0.0248002584433058,3.44063268858127
0.0234141906178592,3.44198107482204
0.0218666750764289,3.443386365565
0.0201655862374751,3.44488710805443
0.0183123892869696,3.44652695687372
0.0167794584891424,3.44794561656901
0.0140742951427227,3.45070951754649
0.0114386474099525,3.45384417727582
0.00942585828266112,3.45666823873026
0.00785393339425905,3.45924949531535
0.00655806348740249,3.46172601229424
0.00542715714629156,3.46424395984967
0.00443481370969053,3.46683217347012
0.00356262242519101,3.46951364093811
0.00279573469260514,3.47231158135146
0.00218000071462503,3.47497449930137
0.0016796603020627,3.47751445051271
0.00125732833226522,3.480011627552
0.000888891232034107,3.48253939185159
0.00056631866174363,3.48510103608096
0.000295245303613872,3.48757627579764
7.44171412767729e-05,3.48986457173429
-0.000107530080776543,3.49197150675202
-0.000261615708086203,3.49393875357593
-0.000395291322671696,3.49579980125502
-0.000513615072449944,3.49757975825086
-0.00062037404673287,3.4993016994384
-0.000718743584540212,3.50099191006223
-0.00081195397575333,3.50268923842462
-0.000904310624912471,3.50446534145243
-0.00100627836560177,3.50653601764881
-0.00108010168763147,3.50810591104598
-0.00115136782036199,3.50967580444315
-0.00121154387464241,3.51104099661282
-0.00126504318275268,3.51228337611472
-0.00131644977027343,3.51350089661585
-0.00136894200236456,3.5147663288289
-0.0014263961757753,3.51617478091357
-0.0014975164971785,3.51794823162144
-0.00162071182051514,3.52108482075374
-0.00173709177244677,3.52410515196484
-0.00184119228444436,3.52684237581803
-0.00195403108086514,3.52984142190832
-0.00210728056559761,3.53396480171165
-0.00233487995720923,3.54020098158166
-0.00252429167474331,3.54571561396866
-0.00266286420213319,3.55049085883049
-0.00274662663258714,3.55478539804806
-0.00276726114592567,3.55875218738609
-0.00271308089141217,3.56240660515302
-0.00257957084742761,3.56563696881521
-0.00236671175534332,3.56849585685228
-0.00207330295669217,3.57105839750507
-0.00169487328383178,3.57339771589545
-0.00121989667301204,3.57559072959363
-0.000620948186914924,3.57773458471251
0.000177261234272168,3.58000725282235
0.00126996370613726,3.58254875430429
0.00215720894256844,3.58435717557119
0.00310765501517167,3.58616559683808
0.00408573852127504,3.58795712455263
0.00524431477657777,3.59003461314387
0.00634844332801943,3.59197387841344
0.00749393437234801,3.59391314368301
0.00863053012005537,3.59571897435528
0.00975871173683365,3.59736112469054
0.0109845980929738,3.59896380626917
0.0123350863201691,3.6005223992282
0.0138474619594746,3.60204409919453
0.0155503549848597,3.60352509822397
0.017476319357274,3.60496536778061
0.0196364347326781,3.60635069757549
0.0220657630658947,3.6076857709569
0.0247942166512912,3.60897064767197
0.0278537074466828,3.61020591555004
0.0312814911331474,3.61139347736684
0.0351164345818572,3.61253464713356
0.0394135549963804,3.61363397048696
0.0442326295716988,3.61469471420843
0.0496434874977728,3.61572017614404
0.0557282356678431,3.61671369431685
0.0625839156407596,3.61767864442038
0.0703261695566473,3.61861848865454
0.0790937850377233,3.61953680490267
0.0890550212896968,3.62043736457456
0.100416179399923,3.62132422610045
0.113433436629839,3.62220185531878
0.128430017732632,3.62307531495583
0.14582115363196,3.62395051750072
0.166153929198868,3.62483469315613
0.19017828096633,3.62573735563823
0.218288958227483,3.62665121757574
0.250813031260046,3.62757022875638
0.288604594996352,3.62850507640991
0.33292549932782,3.62947501288045
0.373462433014181,3.63028243432438
0.416419480687357,3.63108985576831
0.453576685580804,3.63177548774944
0.485732933529576,3.63238345450954
0.514026279570068,3.63295587852973
0.538694893507333,3.63351909115374
0.559435878750316,3.63409638219645
0.575368977317805,3.6347178418265
0.584388002700444,3.63544173227325
0.582313472273948,3.63619510720341
0.567871615140845,3.6369840691967
0.539395561814916,3.63782948470091
0.498157498768084,3.63868236730388
0.442061901844186,3.63958230699509
0.374177015799321,3.64048163854687
0.328068411571947,3.64102658566124
0.279140488398557,3.64157153277561
0.236007197130097,3.64203761559219
0.19882605129778,3.64243833368512
0.166029049536507,3.6427984183673
0.136596053157807,3.64313338765858
0.109879528316545,3.64345355276219
0.0854027179817943,3.64376720083289
0.0627299753508183,3.64408295997006
0.0412961889384775,3.64441373000916
0.0197506879019956,3.64479308488873
0.0104852501907457,3.64497671444413
0.00195903243711044,3.64516034399954
-0.00680440344526877,3.64536755680679
-0.013585642606939,3.64554415331897
-0.0196853974854266,3.6457183234373
-0.0258851112749286,3.64591413843808
-0.0319116897714633,3.64612791551516
-0.0375863011156404,3.64635729446892
-0.0428083209049065,3.64660135378562
-0.0475243249894899,3.64686012797191
-0.0517094405362666,3.64713433117308
-0.0553563504277566,3.64742522160407
-0.0584685890192072,3.64773455252757
-0.061053345997879,3.64806458210586
-0.0632123895753655,3.64843859926963
-0.0647215997617109,3.64881737101127
-0.0657447489688918,3.64922703961287
-0.0662960817168072,3.64967325088589
-0.0663848558253303,3.65016283004428
-0.0660144677646152,3.65070461603036
-0.065177616991868,3.65131145522649
-0.0638510685742777,3.65200075991088
-0.0619860398871013,3.65279833928483
-0.0594804406431855,3.65374826076599
-0.0560785949451576,3.65494756072743
-0.0518981064132111,3.65636980372512
-0.04782540250489,3.65774575308411
-0.0439190353269149,3.65908182716976
-0.0402093967272862,3.6603804260461
-0.0367127729377683,3.66164236584217
-0.0334375638434656,3.66286766808271
-0.0303869248325815,3.66405597645683
-0.0275600993424381,3.66520677720252
-0.0249532463786109,3.66631951403036
-0.022560063286313,3.66739364427801
-0.0203723172060712,3.6684286604291
-0.0183803246504343,3.66942408985607
-0.016573389204604,3.67037947988121
-0.0149401968778897,3.67129437209494
-0.0133887003681019,3.67221762997391
-0.0118977923306056,3.67316466385898
-0.0104717489069733,3.67413721997276
-0.00911424577116817,3.67513747751189
-0.00782892103291647,3.67616800026597
-0.00661923421296815,3.67723183343072
-0.00548833719387574,3.67833263061457
-0.00443902024584581,3.67947482571069
-0.00347365600733522,3.68066387109412
-0.00259414097937354,3.68190657715476
-0.00180183343548994,3.6832116127748
-0.00109748550821091,3.68459027363274
-0.000481165053622334,3.68605772259262
4.78415909059247e-05,3.68763512524267
0.000473207592072222,3.68927351691881
0.000802904464266438,3.69096327296284
0.00105249999454524,3.69272282215427
0.00123615846393775,3.69457490406918
0.00136720146393372,3.6965503046747
0.00145852929926371,3.69869348957857
0.00152326430257489,3.70107473045806
0.00157606436572578,3.7038215652663
0.0016372967012234,3.70723368583056
0.00171919158046861,3.71099428810038
0.00183399717686538,3.7151154215333
0.00199916710832999,3.72000881000813
0.00219318867249671,3.72514873927634
0.00243925231243191,3.73137811602051
0.00267874806220571,3.73736077280468
0.0029182264752154,3.74335488144127
0.00312115239831844,3.74841015914093
0.00330350208176006,3.75291548674805
0.00347980747689242,3.75721059321886
0.00366174525131496,3.7615556958997
0.00386593085061537,3.76630405158303
0.00408528154132466,3.7712262021249
0.00431269291452792,3.77611407607555
0.00454370235258615,3.78084489420597
0.00475494129122039,3.78495858604555
0.00496355312822318,3.78883053001021
0.00517744918979585,3.79260987615114
0.00540172222745592,3.7963742165119
0.00564070856826721,3.80017488442474
0.00589872587145072,3.80405152493715
0.00618044514991618,3.80803776202329
0.00649122289533278,3.8121647769646
0.00683743897324562,3.81646343172098
0.00722691227999599,3.82096562570901
0.00766951969921306,3.82570562432622
0.00816762825502432,3.83062075089677
0.00869952603110765,3.83543858838475
0.00927621158291681,3.84022222098438
0.00989937598191209,3.84493753625778
0.0105752548515742,3.84958260363184
0.0113230946356127,3.85422569928404
0.0121600346493801,3.85888914827131
0.0131052658074478,3.86358397922778
0.0141857598515612,3.86833675358296
0.0154423426470949,3.8732024681388
0.01694974260439,3.87831292656228
0.0189042975671684,3.88408202122252
0.020794234412156,3.88904037072501
0.022380195167883,3.89292422268964
0.0240035001031561,3.89680807465428
0.0253982674838218,3.90023381493984
0.0265728006269882,3.90336946525848
0.0275415592691665,3.906390142103
0.0282552427134482,3.90927426806219
0.0287028293480834,3.91208600075835
0.0288721853080559,3.91495580947493
0.0287086844107212,3.91808654893655
0.027981041930946,3.92212453990538
0.0271352291892124,3.92504511422706
0.0260730408781839,3.92796568854874
0.0249987542861352,3.93053934713866
0.0239279833093444,3.93290626551406
0.0228565674456161,3.93516426360919
0.0217859403147293,3.93736215680727
0.0207195109420765,3.93952841068254
0.0196610337576,3.94168209711197
0.0186141399052661,3.94383725684797
0.0175822168173498,3.94600494498372
0.016568374443915,3.94819435920988
0.015575447177059,3.95041351020613
0.0146060071849137,3.95266965105511
0.0136623682592192,3.95496960069113
0.0127466068575451,3.95731994998824
0.0118605656088355,3.95972726168507
0.0110058646853435,3.96219822579973
0.0101839134702296,3.96473980029293
0.00939591805657215,3.96735936203883
0.00863438777089884,3.97009669458083
0.0078879138427137,3.97301927313207
0.00716053988571042,3.97614860352565
0.00645637074266062,3.97951035966704
0.00577977559648236,3.98313430688706
0.00513536059778557,3.98705515345075
0.0045279174386831,3.99131372248544
0.00396233383622212,3.99595877753965
0.00344346596188792,4.0010501374043
0.00297597511577558,4.0066646211062
0.00256432109821475,4.01290580077842
0.00221852220358526,4.01979279632627
0.00194878457960639,4.02721038844337
0.0017649779216517,4.0355141887347
0.00168928676252372,4.04216574166229
0.00165118950792841,4.05083637043946
0.00166659434246517,4.05947320091278
0.00172292248113214,4.06817683039207
0.00179981926820589,4.07617812689105
0.00188017889673706,4.08351267423671
0.00195053250274532,4.09024385137724
0.00200028335962145,4.09642836726766
0.00202157471878598,4.1021167435266
0.00200931927950158,4.10735417925635
0.0019611753036975,4.11218198797835
0.00187734415389937,4.11663755420914
0.00176014804678287,4.12075560269102
0.0016134753517899,4.12456789426808
0.00144214188854164,4.12810423454854
0.0012513338304944,4.13139221431308
0.00106322961253918,4.13445805566598
0.000925571758042344,4.13694694151905
0.000789062163595935,4.13965406277841
0.000669150842489025,4.14221957990724
0.000561406920393489,4.14465772960412
0.000462249117127584,4.14699547621983
0.000368840375171713,4.1492654435626
0.000278511703760902,4.15151258970673
0.000187855377263747,4.15381325968236
8.97410350362237e-05,4.15635354899232
3.40353289893811e-06,4.15863816079563
-8.08251569830197e-05,4.16092277259894
-0.000147628486620734,4.16278595519956
-0.000204822287054718,4.16442785717986
-0.000258368597142072,4.16601496665885
-0.000311421601104778,4.16764822528105
-0.000367067605208711,4.16944582214987
-0.000431130121034361,4.17166195899683
-0.000537278508564096,4.17590634897552
-0.000613874929222785,4.1799526484062
-0.000657339398796976,4.18343686098688
-0.000678421460504684,4.18713812654987
-0.000665015360711244,4.19193271200316
-0.000597090473779917,4.19703665247951
-0.000480239142892014,4.2017563386549
-0.000320680287048524,4.20608542954325
-0.000121107985914411,4.21005907277534
0.000118568833009327,4.21371355208733
0.00040100830479054,4.2170880721339
0.000731130135272779,4.22022253859356
0.00111666746919437,4.22316328171538
0.00156901419284169,4.22596514390479
0.00210527684583465,4.2286985030532
0.0027531529977792,4.23146633203547
0.00356796979951584,4.23446563386713
0.00426209917636415,4.23679823271614
0.00497964280690463,4.23913083156515
0.00567683254586428,4.24141002285917
0.00645923222194141,4.24405154014326
0.00716536926295836,4.24651590148361
0.00786832700637695,4.24898026282397
0.00851363258941086,4.25114965828873
0.00915784842217152,4.25314561846372
0.00985364837432726,4.2550735892022
0.0106320510707648,4.25696012387764
0.0115341711161929,4.2588426605175
0.0125648422580732,4.26067672330773
0.0137527312057928,4.26247187294035
0.0151069468085344,4.2642074592917
0.0166364983196789,4.2658717056508
0.0183616591670814,4.26746851176232
0.0202993160098407,4.2689973476104
0.0224694526038121,4.27045996485639
0.024899379694017,4.27186148154624
0.0276190213963278,4.27320591646849
0.0306627122037622,4.27449717343392
0.0340719420825003,4.2757397461879
0.0378943759292328,4.27693771522914
0.0421855941211315,4.27809503640393
0.0470115640312363,4.27921577894926
0.0524504287400954,4.28030400395288
0.0585958667305661,4.28136390010775
0.0655616315860529,4.28239991147664
0.0734884228355754,4.28341695307391
0.0825533947513255,4.28442061090994
0.09298558047253,4.28541755125646
0.10509176597311,4.28641621455897
0.119302480576985,4.28742802570712
0.136264845463137,4.2884699392065
0.156062857463369,4.28952131448813
0.179112011206004,4.29058605951191
0.206165873641004,4.29168223104728
0.238373522438846,4.29283917867336
0.274856040917768,4.2940228187956
0.310325172748845,4.29509736449763
0.341316555699047,4.29601094692995
0.368766532363983,4.2968295475359
0.393014001585697,4.29759022801354
0.414021974986798,4.29831650787302
0.431525344256295,4.29902713613882
0.445013594549341,4.29973974193
0.453622417963129,4.30047354940522
0.455889845537816,4.30125294455777
0.44922032078069,4.30211174363511
0.432032488221983,4.30297928814461
0.403214149886051,4.30386724470276
0.361497011115769,4.30478619825833
0.323404519793005,4.30546373530906
0.279872718623411,4.30614127235979
0.240219248706718,4.30670817538637
0.205852931514185,4.30717997246193
0.17538185110823,4.30759413528164
0.14788984187571,4.30797237181946
0.122833028949788,4.30832768660869
0.099841315808075,4.30866919455744
0.0786190802306813,4.30900453416536
0.0588771910087817,4.30934173693542
0.0402302698349115,4.30969237837004
0.0218272616885032,4.31008314816261
0.00850863550890551,4.31040640008039
0.000600555209081679,4.3106208423256
-0.00659703499193306,4.3108352845708
-0.0127141870251462,4.3110358553881
-0.0184029238452066,4.31124157486776
-0.0240394646866214,4.31146882353083
-0.0294183391914942,4.31171425192996
-0.0344126351623851,4.31197597816618
-0.0389537486136808,4.31225348271082
-0.0429990613012037,4.31254714932744
-0.0464989960688987,4.31285531844126
-0.0494844851358165,4.31318134007875
-0.0519703702697229,4.31352795955286
-0.0539672121477362,4.31389777164693
-0.0554875984365722,4.31429396256682
-0.0565445578147384,4.31472044030984
-0.0571501244018117,4.31518201646764
-0.0573139438375394,4.31568467395974
-0.0570417171697087,4.31623596803132
-0.0563319807968301,4.31684650084063
-0.0551722467355874,4.31753038763011
-0.0535353196698605,4.31830675630144
-0.0513675135981366,4.31920476839167
-0.0485573305017908,4.32027559657013
-0.0448097938382833,4.32163996157003
-0.0410357859559334,4.32299472636512
-0.0374279722840435,4.32430231377552
-0.0340187484958151,4.32556705339439
-0.0308229134568536,4.32679122287092
-0.0278464548436593,4.32797579926227
-0.0250898350690468,4.32912108695965
-0.0225496735085731,4.33022705152114
-0.0202197790395762,4.33129349427402
-0.0180918880976296,4.33232013988458
-0.0161562505448004,4.33330667398024
-0.0144021211183037,4.33425275042283
-0.01281442231491,4.33516019197967
-0.0112833046499423,4.33609053944726
-0.0098139481845584,4.33704493421601
-0.00841040674163894,4.33802533678805
-0.00707656554021697,4.33903403079257
-0.00581608635049557,4.34007370696637
-0.0046323582535711,4.34114756652016
-0.0035284460473871,4.34225945877338
-0.00250703653631619,4.34341406837987
-0.00157038259122726,4.34461717651358
-0.000720244423596533,4.345876036176
4.21732375521875e-05,4.34719993087363
0.000716290711780777,4.34860104277454
0.00130223489141925,4.35009587607148
0.00180094341411589,4.35170775739891
0.00219153313987316,4.35335902361672
0.00249116644427122,4.3550668389784
0.00271490143681506,4.35685004949364
0.00287673104562361,4.35873326701484
0.00298994381240832,4.36075032132545
0.00306762355092587,4.36295113516547
0.00312347697821437,4.36541712429769
0.00317373241897987,4.36830414549366
0.00324442727556147,4.3720250317582
0.00334143157987442,4.37584108994132
0.00346659990098506,4.37964119616646
0.0036170155551942,4.38345676820468
0.00378885071923643,4.38733256277018
0.00397897859118683,4.39130552063283
0.00418583161984757,4.39540886458684
0.00440959794197621,4.3996746751269
0.00465213525203883,4.40413574800633
0.00491682531093719,4.40882708777001
0.00520853596522319,4.4137874843038
0.00553382935174104,4.41906091405034
0.00587727532554,4.42433119367619
0.00623724265927902,4.42953315035253
0.00661627778269615,4.43466309574624
0.00701700920400063,4.43971251909932
0.00744346657898353,4.4446862995542
0.00790029347871781,4.44959047591076
0.00839271002341829,4.4544309420225
0.00892679792710774,4.45921128056418
0.00950883109371503,4.46393304351734
0.0101454631553999,4.46859599178356
0.0108480755196583,4.4732234106565
0.0116395873698324,4.4778870414513
0.012535447111159,4.48258182020849
0.0135592585800113,4.48732724303616
0.0147450465733937,4.49216259193606
0.0161512264171027,4.49718253147367
0.0179102195649763,4.50265364679409
0.0203215499875246,4.50917486383774
0.021904074373745,4.51308604056219
0.0235340103335902,4.51699721728663
0.0249590880387291,4.5204806274794
0.0261607439682271,4.52364517382063
0.0271573585324671,4.52667341711196
0.0279092620413808,4.52958018375533
0.0283950522356052,4.53239689506726
0.0286063155579251,4.5352495874867
0.0284977088533325,4.53832151486606
0.0278934402632205,4.54211255473895
0.0270662178311475,4.54517198349684
0.0259901273154547,4.54823141225473
0.0249075524006357,4.55086875611465
0.0238325839032974,4.55326636444508
0.0227573016369108,4.55554233517584
0.0216821142192282,4.55775192796863
0.0206101828566418,4.55992618427989
0.0195451921696624,4.56208551536901
0.0184907545780641,4.5642447803209
0.0174502485699152,4.56641561092486
0.0164267770492747,4.56860765543534
0.0154231652812521,4.57082931472101
0.0144419698157177,4.57308821934357
0.0134854888738897,4.57539156617099
0.0125557760803411,4.57774636503631
0.0116546490647275,4.58015964904371
0.0107836987470438,4.58263865827449
0.00994430422803061,4.58519099689194
0.00913763676510607,4.58782482317466
0.00836467562436278,4.59054901805641
0.00760668214227977,4.59345146571757
0.00686602155274852,4.59655832264448
0.00614654385519172,4.59989485351714
0.00545228194698632,4.60349045570462
0.00478743545575458,4.60737938911739
0.00415629442685744,4.61160191850458
0.0035631188031451,4.61620602513367
0.0030119554435958,4.62125029736887
0.00250636280261667,4.62680953234536
0.00204919324730147,4.63298412796883
0.00177644402985373,4.63743974194441
0.00155459632165988,4.64189535591999
0.0013349095418665,4.64762517247763
0.00111823420371973,4.65513947606205
0.000949656142688063,4.66320209629122
0.000825078720630656,4.67180365159848
0.00073619097846432,4.68180365159848
0.000694416974301726,4.69180365159848
0.000688980977148685,4.70118222472146
0.000707468115822884,4.70972659759754
0.000741392849005723,4.71751156378538
0.00078582282681958,4.72461546553905
0.000837818488367473,4.7311090725113
0.000895533787406583,4.73705614200396
0.000957754020956974,4.74251445713855
0.00102365685979348,4.74753645299226
0.00109269069811536,4.75217013051826
0.00116450395593238,4.75645970282747
0.00123891498496014,4.76044638945204
0.00131591255927095,4.76416928176151
0.00139566603360252,4.76766645890429
0.00147859538350086,4.77097658927388
0.00156548030671515,4.77414160793945
0.00165770913133346,4.77721185147644
0.00175789547095989,4.78025802981658
0.00187170713044099,4.7834072554062
0.00201689173303269,4.78702075731394
0.00213811910873099,4.78974421499916
0.00227083447110381,4.79246767268438
0.00239698304687536,4.79484082459765
0.00252064408979547,4.79699045199435
0.00265127973495257,4.79909524498932
0.00279851896757578,4.80128874829253
0.00297876908144888,4.80375110111979
0.00323929042538373,4.80694677153975
0.00360759191458559,4.81088017419421
0.00403753709179735,4.81481357684866
0.00448282443428781,4.81833463969104
0.00503258803061204,4.8221185907779
0.00577962227303879,4.82655798620901
0.00681389354406275,4.83183393977421
0.00754381408721954,4.83517456042107
0.00831278688848936,4.83851518106793
0.00899760707412425,4.84145075492018
0.0095867071372087,4.84404984182609
0.0100962866377836,4.84646378172378
0.0105316259420406,4.84878994670696
0.0108913905510931,4.85110867629149
0.0111684851360608,4.85351003751992
0.0113472268218687,4.85614344953301
0.0113833496642248,4.85943256806693
0.0112242494683051,4.86286142225077
0.0109726181008863,4.86573894636406
0.0108061416747921,4.8672862821181
0.0107064523225549,4.86815001592349
0.0106147943883057,4.86901374972889
0.0104274966377479,4.87173762509234
0.0103773754848917,4.87460828630049
0.0104698865829419,4.87761104795373
0.010657163684449,4.88005011233934
0.0109613089191976,4.88248917672494
0.0113527655031135,4.88465991137432
0.0118463212126619,4.88668798330308
0.0124567128523865,4.88861534232596
0.0132085028787188,4.89048153365729
0.0141135750678492,4.89227687222635
0.0151921676016151,4.89400958686213
0.0164566795054153,4.89567261298017
0.0179281107110649,4.89727138172567
0.0196236571466862,4.89880476413844
0.0215657828923754,4.90027581338457
0.0237810690037806,4.90168841886088
0.0262990003147121,4.90304584311476
0.0291531381984528,4.90435131279557
0.032385068141711,4.90560924551703
0.0360423816795468,4.90682354071899
0.0401812703051154,4.90799818672917
0.0448686397189426,4.90913730585358
0.0501843740182211,4.9102451039634
0.0562254934582906,4.91132608385571
0.063111383750996,4.91238515674996
0.0709917610372195,4.91342787395977
0.0800595617910554,4.91446084896854
0.0905717065586055,4.91549237171966
0.102887038054796,4.91653362035302
0.117542422278275,4.91760113172165
0.13484253814642,4.91868835946107
0.154993683167252,4.91978692786465
0.17866092740848,4.92091579051068
0.2068781127923,4.92210640593824
0.239411568978307,4.92334334973316
0.270452891552198,4.92444378444616
0.298007729403063,4.92539275712108
0.322849938394902,4.92625547995001
0.345078242358604,4.92706369018899
0.364491349332966,4.92783630609862
0.380744912481707,4.92858816891397
0.393350400498416,4.92933295862802
0.401611350714461,4.93008464787083
0.404507508844926,4.9308588233569
0.400491477252902,4.93167468840077
0.387173940122868,4.93255475428911
0.36367637695886,4.93344269681567
0.329005526322469,4.93435049781934
0.295078369034722,4.93505294158974
0.255690734930462,4.93575538536013
0.220112601377239,4.93633292103663
0.189021524570516,4.93681503711953
0.161182549280747,4.93724072565805
0.135872153884773,4.93763116502515
0.112671044530872,4.93799896705171
0.0912905551201692,4.93835303770006
0.0714946123850516,4.93870087417645
0.0530468620295246,4.93905031150856
0.0356300318654328,4.93941236640663
0.0185699520817586,4.93981095587842
0.00483248242775395,4.94017823519139
-0.00288135139629724,4.94041005387799
-0.00988394720454259,4.94064187256459
-0.0158002972426608,4.94085800436503
-0.0212158502797795,4.94107666130169
-0.0265571674888367,4.94131747171688
-0.0316372291362252,4.94157710373461
-0.0363399710240424,4.94185366567572
-0.040603138964378,4.94214667025895
-0.0443872810091732,4.94245655650661
-0.0477008391560934,4.94278793007423
-0.0504437467210841,4.94313115594001
-0.0527049344840309,4.94349581506403
-0.0544950721371332,4.94388468964505
-0.0558257129066991,4.94430106963406
-0.0567086525101516,4.94474897204049
-0.0571546162422597,4.94523332131363
-0.0571719769413221,4.94576021200735
-0.0567653296755964,4.94633730005497
-0.0559314801312198,4.94697582165838
-0.0546576776781283,4.94768963033767
-0.0529175258333833,4.94849784006095
-0.0506601766802145,4.9494293515991
-0.0477819235980288,4.95053424952233
-0.0440414233927623,4.95191789572061
-0.0404313711498471,4.95324305774759
-0.0370034484361514,4.95451886740103
-0.0337807746308331,4.95575016975418
-0.0307733462491412,4.95693938971499
-0.0279837346419073,4.9580876852731
-0.0254097451094052,4.95919554650647
-0.0230458910378144,4.96026310911593
-0.0208843491148661,4.96129031777901
-0.0189156590708895,4.96227700675467
-0.0171292779128499,4.96322293240507
-0.015506294090331,4.96413224270091
-0.0139388502610301,4.96506442295281
-0.0124321036153037,4.96602065684181
-0.0109900780266622,4.96700293023236
-0.00961660917824345,4.9680135533729
-0.00831528808413004,4.96905524604048
-0.0070894090819978,4.97013124248584
-0.00594191414128163,4.97124543112986
-0.0048753332079759,4.97240254464953
-0.0038917196624829,4.9736084253494
-0.00299257895523221,4.97487040691171
-0.00217878670139808,4.97619788352226
-0.00145048915894592,4.97760319599367
-0.000806972172692005,4.97910308827017
-0.000247254539269851,4.98071872539848
0.000205371296606771,4.98237305894102
0.000569069725663199,4.98408469966998
0.000859439050757499,4.98587269480698
0.00109119611309925,4.98776200982227
0.00127863007437074,4.9897870484294
0.00143631107578334,4.99199876697684
0.00158039480992215,4.99448073143039
0.00173189974247763,4.99739449338864
0.00192831362596607,5.00114388016076
0.0021468791302763,5.00497557719991
0.00242034969885035,5.00931752013136
0.00275694110037895,5.01426262805237
0.00314305754812863,5.01968705086856
0.0035504705386569,5.02529897130843
0.00394989011212141,5.03074460110473
0.00434980478365811,5.03613215153003
0.00475091667765047,5.0414256491537
0.00515851810683068,5.04664183406021
0.0055769046623552,5.0517830872636
0.00601060954819029,5.05685612861512
0.00646396809896063,5.06186509815908
0.00694143039630142,5.0668134749048
0.00744767820862393,5.07170355538744
0.00798778246778161,5.0765366461176
0.00856731268494695,5.08131295719667
0.00919245156477146,5.08603171437975
0.00987010036280479,5.09069131640742
0.010613494267686,5.09532240838118
0.0114455936329352,5.09998921357512
0.0123828065889408,5.10468916432519
0.0134500860278831,5.10944384821342
0.0146841599630013,5.11429810215885
0.0161500696043634,5.11936110604762
0.0180047501913592,5.12495478671753
0.0204362625747533,5.13137299793
0.0220001469436764,5.13518331523139
0.0235965143289104,5.13899363253277
0.0249874714050183,5.14240691361279
0.0261605717696214,5.14553930455343
0.0271279795768175,5.14855972888523
0.0278400257789164,5.15144534655972
0.0282855663868309,5.15426017290301
0.0284521583924139,5.15713500866391
0.0282843537531502,5.16027457981537
0.0275456231413289,5.16433941270863
0.0266968942137853,5.16725543906989
0.0256335535757756,5.17017146543115
0.0245575794684415,5.17274520087751
0.0234844933440268,5.17511468750448
0.0224103312375836,5.1773765251759
0.0213365609861189,5.17957918268864
0.0202665747364105,5.18175104784359
0.0192040905945586,5.18391122644478
0.0181527007515876,5.18607384294377
0.0171157480748691,5.18825008312665
0.0160962972134207,5.19044931095817
0.0150971358971074,5.19267974244644
0.0141207868729163,5.19494888304856
0.013169517277513,5.19726384492301
0.0122453531142736,5.19963157644843
0.0113500889770505,5.20205905694078
0.0104852948975751,5.20455347495085
0.00965233403438532,5.20712236479351
0.00885236406773974,5.20977378870838
0.00808357747957828,5.21252683535838
0.00732884872352895,5.21546676079711
0.00659209674555132,5.21861486222372
0.00587717120865238,5.22199680414918
0.00518811431062234,5.22564223120728
0.00452911493687681,5.22958549761004
0.00390441879817608,5.23386669667196
0.00331818807996771,5.23853321528349
0.00277429787211664,5.24364234894906
0.00227603671383382,5.24926643407265
0.00182591215462095,5.25550048958555
0.0014279053681339,5.26242800473726
0.00109419008494617,5.26989683711635
0.000829347285826642,5.27801720515401
0.000652943800096205,5.28562344902639
0.000498678626909892,5.29462681477685
0.000380480680792221,5.3042147279498
0.000293815602929818,5.3142147279498
0.000234144592767548,5.3242147279498
0.000193674597970797,5.3342147279498
0.000166696352682626,5.3442147279498
0.000149135926056253,5.3542147279498
0.00013818138293669,5.3642147279498
0.000131935217594434,5.3742147279498
0.000129130245778681,5.3842147279498
0.000128925931598772,5.3942147279498
0.000130773960667516,5.4042147279498
0.000134332194452396,5.4142147279498
0.000139409350083151,5.4242147279498
0.000145929250671091,5.4342147279498
0.000153908558593039,5.4442147279498
0.000163444816072427,5.4542147279498
0.000174713175849529,5.4642147279498
0.000187971243860527,5.4742147279498
0.000203572464001703,5.4842147279498
0.000221989715488267,5.4942147279498
0.000243852513434087,5.5042147279498
0.000270003811268226,5.5142147279498
0.000301586660656736,5.5242147279498
0.000340178345891822,5.5342147279498
0.000385729178153727,5.54378130063664
0.000437932945394765,5.55264873008242
0.000497607113831908,5.56085634718699
0.000565759834727952,5.56845205652334
0.000643549619593094,5.57548108062352
0.000732292801807451,5.58198571549725
0.000833480279888235,5.58800549558856
0.000948798722968195,5.59357736007332
0.00108015517843965,5.59873580754739
0.00122970493113455,5.6035130429247
0.00139988353859083,5.60793912082663
0.00159344414564188,5.61204208624716
0.00181350151177837,5.61584811084353
0.00206358423913314,5.61938162662961
0.00234769843704488,5.62266546072326
0.00267040578036073,5.62572097297893
0.00303692171451995,5.62856819787555
0.00345324125215313,5.63122599570392
0.00392630427266995,5.63371222076413
0.0044642192417316,5.63604391631632
0.0050765758884844,5.63823755466727
0.00577490012414157,5.64030935477165
0.00654617621077015,5.64221446523693
0.00739626293109528,5.64397718710658
0.00833645142060547,5.64562684599845
0.00938309404141734,5.64719215043344
0.0105618570734253,5.6487046806431
0.0119395741535559,5.65022841544945
0.0136831001022402,5.65189027329063
0.0163323103884952,5.65404573449704
0.0180967266410126,5.65532890550238
0.0199563832148742,5.65661207650773
0.0216546172118407,5.65776540766194
0.0231776354166859,5.65882484429454
0.02454992411968,5.65984427941089
0.0257689333882214,5.66086197013116
0.0268132157480551,5.66191567596156
0.0276394074011351,5.66305892472293
0.0281555070632707,5.66440463489226
0.027996297365879,5.66646171699185
0.0272922148756836,5.66788426381204
0.0262177178561258,5.66930681063224
0.0249686139283036,5.6706388642209
0.0235478242547629,5.67198688425175
0.0219634873384673,5.67339936891603
0.0202225340163657,5.67491499802083
0.0188933826675945,5.67607628090988
0.0176020245341894,5.67723756379894
0.0160958247477659,5.67867310224487
0.0132875173368007,5.68165544018416
0.0108458552560689,5.68469696238732
0.00897758617362895,5.68743774935508
0.00750117983128326,5.68996787316774
0.00625657924021927,5.6924502972576
0.00516854861068899,5.6949831986768
0.00421366192670035,5.6975928009693
0.003374692991709,5.70030192928875
0.00264724382368037,5.70309354134847
0.00206997648704793,5.70571741590718
0.00159702500190504,5.70823731018202
0.00119410108342144,5.71073748375626
0.000841486748394459,5.7132784253612
0.000536621300400385,5.71582193918785
0.000284957911162021,5.71823173935262
7.99552176976847e-05,5.72045280507195
-9.03963398087618e-05,5.72251075914255
-0.000235864357722457,5.7244462784131
-0.000362967126996721,5.72629029733486
-0.000476330680080592,5.72806875624008
-0.000579622199983938,5.72980891530897
-0.00067627874020573,5.73154796090893
-0.000770577771736,5.73335310128779
-0.000871344822946191,5.73540461023289
-0.000950002418461008,5.7370951662831
-0.00102527815263235,5.73878572233331
-0.00108665157499014,5.74021540561664
-0.00114014575374808,5.74149782159555
-0.0011909408428531,5.74274544579766
-0.00124225561109954,5.74403388894905
-0.00129769658744931,5.74545562458599
-0.00136472395458532,5.74721231945751
-0.00148517457289976,5.75046001214816
-0.00160268686276303,5.75372150670242
-0.00170782116083783,5.75670412527185
-0.00182019090070085,5.75995311741348
-0.00197693869001343,5.76458635176654
-0.00216942824440182,5.77046117028741
-0.00233224013642833,5.77585880722062
-0.00244619802991233,5.78052620158019
-0.00250821277184203,5.78473619107117
-0.00251002480821929,5.78865956984764
-0.00244098024884518,5.79223297469356
-0.00229713378642584,5.79540492242469
-0.00207710274346353,5.79822317445323
-0.00177800397713992,5.80075993164052
-0.00139285791904666,5.80309085962264
-0.00090689039020314,5.80529527916853
-0.000286385297249159,5.80747943122936
0.000561745949201947,5.80985154772311
0.00172373080730767,5.81250878464212
0.00283710122435023,5.81473410154761
0.00383429056465856,5.81659675302624
0.00495160154234179,5.81860663191323
0.00617004908336212,5.82072663943862
0.00744666656456826,5.822846646964
0.00862312734523567,5.82466721769877
0.00980712587371385,5.8263408724008
0.0110754747101193,5.82794830245647
0.012458909544848,5.82949603489154
0.0140142145584498,5.83101401461806
0.0157531439314183,5.83248212177205
0.017716114723247,5.83390856556395
0.019929783041632,5.83528906296291
0.0224128425651551,5.83661648712193
0.0251966975887969,5.83789232216052
0.0283188413653145,5.83911960778827
0.0318180965398911,5.84030026493569
0.0357396097357686,5.84143689460668
0.0401337645045353,5.84253193173851
0.0450642877327626,5.84358919424158
0.0506038004072478,5.84461201381207
0.056837738720149,5.84560375110283
0.0638674252991218,5.84656783688897
0.0718137833318756,5.8475077878537
0.0808229447863534,5.84842731789382
0.091072910298164,5.84933036893466
0.102783336024748,5.85022123503464
0.11622929413104,5.85110471950159
0.131761228810827,5.85198635554856
0.149835679263281,5.852872771883
0.171065573815025,5.85377232911814
0.196290100595025,5.85469565965219
0.225441129731855,5.85561998522119
0.259230156639227,5.85655376062906
0.298617172442059,5.8575101334342
0.345122027425566,5.85851458888475
0.383138053534864,5.8592708826301
0.422803384959331,5.86002717637546
0.457945273817274,5.86069375266356
0.488662654900144,5.86129792438782
0.515660034897659,5.86187395316513
0.538993542056492,5.86244630519406
0.558220244891216,5.86303892501616
0.572242268954212,5.86368553838186
0.578327491414842,5.86443402756419
0.572883695002372,5.86520071680377
0.554787329757456,5.86600730496897
0.522202683109737,5.86687317364006
0.476209770984518,5.86775302704415
0.415160067934902,5.86867428952166
0.364781288880107,5.86932517694278
0.309355391516158,5.86997606436389
0.261083569916113,5.87051138006918
0.220541464134087,5.87095183221477
0.185366131502901,5.87133603634123
0.154093564829914,5.87168621736044
0.12588236195219,5.87201550229833
0.100176344379406,5.87233313241326
0.0765357381531776,5.87264720087819
0.0545126603608237,5.87296717668642
0.0334110047940859,5.87330976561574
0.0108653911889352,5.87373492000423
0.00102221812742618,5.87394874879781
-0.00786532239948616,5.87416257759139
-0.0145202446949828,5.87433924450043
-0.0206399733127269,5.87451759371733
-0.0268113786295496,5.87471699479169
-0.0327778533736949,5.8749339681561
-0.0383746647664426,5.87516638598763
-0.0435097590722352,5.87541348170088
-0.0481348817482786,5.87567539855793
-0.0522283121255101,5.87595293577745
-0.0557846593838992,5.87624742678809
-0.0588086090473139,5.87656069928919
-0.0613355357671902,5.87690034262175
-0.0632818378720685,5.87725577226205
-0.0647303950633812,5.87763841571388
-0.0656964934348242,5.87805276929724
-0.0661926857157619,5.87850433868921
-0.0662276520581525,5.87900011548583
-0.0658039918600247,5.87954917617898
-0.0649128853728016,5.88016490281264
-0.0635292653811784,5.88086519913067
-0.0616010315758913,5.88167701237625
-0.0590185093670698,5.88264706864117
-0.0554987859510161,5.88388196904811
-0.0513331813594842,5.88529736329258
-0.0472835072352969,5.8866675791425
-0.0434051620813919,5.88799806564487
-0.0397263661650726,5.88929105348026
-0.0362622010025259,5.89054728220611
-0.0330202525101321,5.89176674367322
-0.030003050302711,5.8929490760823
-0.0272093278647511,5.89409377215876
-0.0246348240730917,5.89520028729222
-0.0222728962228794,5.89626809166312
-0.02011504666741,5.89729668916795
-0.0181513981367604,5.89828561534746
-0.0163711262746676,5.89923442106537
-0.0147628487561813,5.9001426456586
-0.013218135191837,5.90106968946554
-0.0117347912955331,5.90202069912977
-0.0103169143271661,5.90299755680886
-0.00896838360546203,5.90400249757784
-0.00769286519633897,5.90503815548855
-0.00649376136913927,5.9061076639391
-0.00537415833774891,5.90721478880829
-0.00433677202338823,5.90836410925545
-0.00338370357652744,5.90956126934182
-0.00251655105220457,5.91081333848511
-0.00173656603316427,5.91212934595964
-0.00104438061323744,5.91352110746738
-0.000439921405039146,5.91500457196789
7.76961478573565e-05,5.91660216850069
0.00048887563936923,5.91824756297566
0.000807294227948467,5.91994742989066
0.00104817610381911,5.92172039109481
0.00122555315021501,5.92359025972248
0.00135268831347525,5.9255895660605
0.0014425315353921,5.92776589275097
0.00150844680277351,5.93019582686204
0.00156580024062859,5.93302269627898
0.00163755926728948,5.9366066822622
0.00173008741822791,5.94039521241568
0.00185914003455391,5.94461923994715
0.00203748727095581,5.94955910329384
0.00224621311036856,5.9548262500839
0.00250841009907801,5.96122545497276
0.00273681537244575,5.9667425200121
0.00293183038463424,5.97146446378484
0.00311197678391537,5.97582668122884
0.00329003068459203,5.98011230466101
0.00347895482496918,5.98460050062292
0.0036956757306016,5.989638216918
0.00391261995554256,5.99451667077706
0.00414265705585133,5.99949073605538
0.00435160835271754,6.00380813226461
0.00455151095685675,6.00776159570974
0.00475277569251728,6.01156814831956
0.00496112397775323,6.01532847691143
0.00518085445281438,6.01910308411388
0.00541593385230088,6.02293579442006
0.00567045929249177,6.02686232730337
0.00594895481005794,6.03091438831761
0.00625666745991609,6.0351225379063
0.00659987619292896,6.03951769754116
0.00698631095444499,6.04413242462585
0.00742581753831799,6.04900227538325
0.00790697272449638,6.05392502724256
0.00842245239500812,6.05878023407098
0.00897831319657617,6.06358519513191
0.00957781820576509,6.06832104394596
0.0102270042088245,6.07298562453399
0.0109385001400923,6.07761126103907
0.0117344193703205,6.08226366507884
0.0126309187666278,6.08694274578
0.0136519822972384,6.09166998771396
0.0148317486277207,6.09648533977181
0.0162277449039536,6.1014809886968
0.0179674951581719,6.10691114634241
0.0203773171803207,6.1134485841843
0.021969838908709,6.11738988073119
0.0236127953839828,6.12133117727808
0.0250464824877863,6.12482945798215
0.0262543831321332,6.128000255475
0.0272566241423591,6.13103024557866
0.0280148748548316,6.13393876505283
0.0285068665137447,6.13675435467478
0.0287247956084541,6.13960259603241
0.0286246085658205,6.14266418171879
0.0280370137143572,6.14642203114367
0.0272135376570322,6.14949814278004
0.0261365434149944,6.15257425441642
0.0250540840682434,6.15521704904219
0.0239800811349665,6.15761516348743
0.0229060665103899,6.15988960511312
0.021832327717982,6.16209643708296
0.0207620242286598,6.16426693327745
0.0196988672623121,6.16642154865274
0.0186465036340449,6.16857509597598
0.0176083514423234,6.17073909571538
0.0165875526420494,6.17292303729939
0.0155869762830889,6.17513510258548
0.0146092193632641,6.17738265419786
0.0136566244302587,6.17967254636966
0.0127312885227332,6.18201136827033
0.0118350687952283,6.18440564470563
0.0109695987119864,6.1868619792324
0.0101362933615047,6.18938720817918
0.00933635748776253,6.19198854454562
0.00856620379539259,6.19469048031964
0.00780961225156586,6.19757358311241
0.00707051220168346,6.20065847366447
0.00635280409537593,6.20396998306354
0.00566061669324493,6.20753684567251
0.00499827586405615,6.21139245484437
0.0043702397905626,6.21557591001049
0.00378099429012921,6.22013357401371
0.00323489345517744,6.22512169541787
0.00273594196379881,6.23061127484595
0.00228763667259872,6.23669627936317
0.00189400242468341,6.2434871790476
0.00157155406389666,6.25079124778669
0.00136274762778743,6.25704992927771
0.0012182029035281,6.26330861076873
0.00109142414609546,6.27175046091646
0.00101826557829792,6.2807017072271
0.000994561025422067,6.29017169741481
0.00102092415632863,6.30017169741481
0.00109567645477274,6.31012788986088
0.00120952528578272,6.31943013472493
0.00135772984973176,6.32812591981138
0.00153910262928383,6.33628213764427
0.00175494145611127,6.34396671119353
0.00200852948094052,6.35125115974817
0.00229882878562865,6.35808089768689
0.00261867664963238,6.36435301431024
0.00296390104285507,6.37011438015964
0.00332830874902835,6.37541188546903
0.00370334351540437,6.38028963717032
0.00407800688410957,6.38478710546703
0.00443938367010662,6.38894020538835
0.00477362796581536,6.3927824153567
0.00506709544386937,6.39634408813086
0.00530773749682112,6.39965391335101
0.00548610952860277,6.40273838618109
0.00559607138639551,6.40562289867608
0.00563483999585002,6.40833181264443
0.00560254154426816,6.41088931670196
0.00550131361607165,6.41332043859922
0.00533407218809091,6.4156525629151
0.00510288266285855,6.41791879740048
0.00480645096497456,6.42016503922669
0.0044344717614992,6.4224702569652
0.00394575945140645,6.42503214179796
0.00376750967290635,6.42588192495472
0.00358347971980929,6.42673170811147
0.00341499106777347,6.42753187829071
0.00300339023804641,6.42960917198333
0.00266963285684915,6.43143023198625
0.00238884186159473,6.43306327444146
0.00213067566309654,6.43464990888934
0.00187728751258454,6.43628928009995
0.00161083246065987,6.43810345297567
0.00129638965243028,6.44036671981804
0.000783289265525367,6.44435492126754
0.000356949238554422,6.44797680440273
1.46771460400809e-05,6.45112369391629
-0.000324632342885733,6.45451296105744
-0.000688341461225599,6.45857899214319
-0.000985068418859404,6.4624661078588
-0.00121321653122868,6.46617472575281
-0.00137466409184793,6.46978843875254
-0.00146677065757233,6.47342788432338
-0.00147609569501732,6.4772753966367
-0.00138282419763396,6.48110797735703
-0.0011925952554684,6.48464516651113
-0.000913636060809675,6.48791543671854
-0.000553476303680152,6.49093100875721
-0.000110634148677644,6.49375771967084
0.000430940473036808,6.49649929176256
0.00110050952870332,6.49926606221046
0.00193639632067451,6.50217191583525
0.00274358822439134,6.50466047094173
0.00360458356948872,6.50714902604821
0.00442907266334557,6.50947600415628
0.00536285765557371,6.51211438037668
0.00621818247568986,6.51453413912315
0.00709172998505097,6.51695389786961
0.00788123567642062,6.51902181302435
0.00867701223081099,6.52093765551317
0.00953935620862702,6.52280057340307
0.0104918310907262,6.52461201096884
0.0115751621568903,6.52640097850883
0.0127972815624155,6.52813741348703
0.0141865276407927,6.52982780561527
0.0157516087613873,6.53145509771409
0.0175141553609268,6.53302080348876
0.0194922279457117,6.53452296769265
0.0217070777274732,6.53596245784588
0.0241854862472032,6.53734272656355
0.0269567058203741,6.53866675914227
0.0300565330100142,6.53993869919693
0.0335258381601665,6.54116239149139
0.0374119984089294,6.54234161801511
0.0417710905595315,6.5434803398597
0.0466686486443355,6.54458239078029
0.0521820261788051,6.54565160232225
0.0584040105374912,6.54669198992565
0.0654463901095333,6.54770772049176
0.0734459250903529,6.54870328189491
0.0825729776821112,6.54968369050592
0.093044392175035,6.55065477326068
0.105143661556009,6.55162359944938
0.119255181973067,6.55259925388146
0.135927266474288,6.553594295205
0.155699887997009,6.55461334991729
0.178632974597838,6.55563786539694
0.205374097343536,6.55668065612358
0.236826735922809,6.55776059444637
0.274407267039638,6.55890990628755
0.315953644772875,6.56006695222301
0.352604210800497,6.56103439662853
0.384083857388408,6.56185746672544
0.411652264991939,6.56260046873816
0.435735062210618,6.56329870408748
0.45630343464556,6.56397591737178
0.473002371990852,6.56465242605232
0.485090482670071,6.56534978473651
0.491187036380107,6.56609638216016
0.488612946891296,6.56693065937135
0.475244397529446,6.56777629534149
0.44990404259686,6.56864740616582
0.411141635551508,6.56955460588741
0.357355694961221,6.57050816671655
0.317327218534943,6.57110782985843
0.273373201915193,6.5717074930003
0.233735071531945,6.57221853040518
0.199167818028188,6.57265451389595
0.168438353328422,6.5730433860911
0.140705543710256,6.57340247216727
0.115436859975997,6.57374290826253
0.0922494195714118,6.57407307063328
0.0708166537951342,6.57440066396764
0.0507811974349179,6.57473500648953
0.0315564851670176,6.57509274791198
0.0111401811706099,6.57553237087078
0.00177730012339664,6.57576413875006
-0.00666102504346611,6.57599590662934
-0.0130305060623842,6.57618941134185
-0.018875582023248,6.57638495901522
-0.0247071839306504,6.57660196511168
-0.0303012151466492,6.57683701273682
-0.0355162592757104,6.57708808005065
-0.0402749731114328,6.57735452916202
-0.0445365961709579,6.57763663986738
-0.0486009056495201,6.57796473480385
-0.0517338435010705,6.57828079900105
-0.0543499041786151,6.57861646895743
-0.0564650227165052,6.57897472849558
-0.0580924558476269,6.57935871173131
-0.0592459513439948,6.57977226581206
-0.0599382871450823,6.58022014055421
-0.0601798006160884,6.58070826035997
-0.0599767379887559,6.58124413290946
-0.0593283439402634,6.58183804943999
-0.0582220319624254,6.58250428463743
-0.0566295535194368,6.58326205232157
-0.0544944144382309,6.5841408428969
-0.0516978337944091,6.5851929705559
-0.0479186573220753,6.58654484110259
-0.0440134052959731,6.58791693787104
-0.0402635891226003,6.58924330736143
-0.0367071521073199,6.59052806056217
-0.033362062529793,6.5917733282646
-0.0302366342827001,6.59297994029479
-0.0273332161285769,6.59414806261592
-0.0246499958163718,6.59527753703072
-0.0221820665033576,6.59636805922749
-0.0199221752877413,6.59741926881795
-0.0178613183776796,6.59843078913478
-0.0159892471996167,6.59940223667911
-0.0142949094978468,6.60033321099013
-0.0127250508866863,6.60124837723262
-0.0112137446860803,6.60218685849928
-0.00976571494159202,6.60315009305898
-0.00838494442643893,6.60414014490592
-0.00707522955594388,6.60515943016626
-0.00584012732274548,6.60621080683752
-0.00468290464832292,6.60729768903636
-0.0036064855573369,6.60842420031081
-0.00261339624609467,6.60959538406647
-0.00170570776877983,6.6108175001592
-0.000884975512268912,6.612098456283
-0.000152173687228829,6.61344845957341
0.000492378666050538,6.61488104756952
0.0010491071014581,6.61641481764862
0.00151012672364105,6.61803938795783
0.0018691282029322,6.6197083865376
0.00214268608867908,6.62144013181791
0.00234543511855398,6.6232552025906
0.00249106590483085,6.62518094442461
0.00259271701116817,6.6272558156459
0.00266354878198309,6.62953836292285
0.00271779589911969,6.63212867481224
0.00277356318830502,6.63523542913041
0.00285233387983765,6.6389696374897
0.00296142828430651,6.64289722744466
0.00309358869480988,6.64670951301022
0.00324518212364553,6.65048724938998
0.00341250706274883,6.65428770657078
0.00359303476088345,6.65815326171098
0.0037857571340843,6.66211909536235
0.00399112383623849,6.66621715670835
0.0042108529679136,6.6704785108038
0.00444773739735051,6.67493496972006
0.00470552422080291,6.67962047625172
0.00498896322706422,6.6845726015187
0.00530411626724923,6.68983387248597
0.00564179562985996,6.69518389260581
0.00599254516497964,6.70042815941598
0.00636142028236708,6.70560612910279
0.00674999449562428,6.71069591697669
0.00716246683298388,6.71570793882313
0.0076031905018502,6.72064805454733
0.00807712891034176,6.72552317951293
0.00858960725292266,6.73033749650431
0.0091464385186346,6.73509319022622
0.0097539920868773,6.73979046042287
0.0104193265844406,6.74442816043544
0.0111622217418095,6.74907519646509
0.0120002085181936,6.75375243249065
0.0129531067492494,6.75846824961704
0.0140483262202594,6.76324854736047
0.0153284440834342,6.76815210301721
0.0168749762016053,6.77332721331084
0.0189199693860446,6.77927272691499
0.0207290828445965,6.78396768242717
0.0226601157123697,6.78866263793936
0.0242468542369851,6.79247600312764
0.0255587636316915,6.79577710818632
0.0266581773249342,6.79885388593446
0.0275454122273966,6.80184994230469
0.028162484345792,6.80469632887782
0.0285119593012884,6.80751302568985
0.0285707098439422,6.81044536827314
0.0282530490171198,6.81376656748588
0.0272611906446626,6.81812902859676
0.0263679382230747,6.82083613145892
0.0253092562373359,6.82354323432108
0.0242361378244196,6.82600841964638
0.0231620824259757,6.82832202639384
0.0220872544977433,6.83055182427077
0.0210143350646873,6.83273555100723
0.019946937723538,6.8348968961035
0.0188887452962779,6.83705249264245
0.0178432459973377,6.8392150020356
0.0168136619185893,6.84139467881469
0.0158029362580315,6.84360026439638
0.0148137382278911,6.84583954760303
0.0138484758504091,6.84811973768556
0.0129093056225163,6.85044774254176
0.011998143458559,6.85283038323394
0.0111166776174535,6.85527456697242
0.0102663728216034,6.85778746544825
0.00944848676793314,6.86037665375923
0.00866407343777002,6.86305029224612
0.0078998294626422,6.86587180541616
0.00715128180800131,6.86888806108999
0.00642228804538051,6.87212232779266
0.0057168098051995,6.87560195125464
0.00503899553223174,6.8793586461574
0.00439312266999018,6.88342939882348
0.00378350069450396,6.88785774348117
0.00321430979009947,6.89269587416222
0.00268938676218717,6.8980082525079
0.00221193440845516,6.90387862378617
0.0017844405019986,6.91041995171668
0.00141981637783502,6.91754284904295
0.00119808551731294,6.92343751606241
0.000984907805839884,6.93118955929916
0.000827253182142867,6.93917447381591
0.000704746466905726,6.94804798115921
0.000618165775388773,6.95804798115921
0.000574195102169788,6.96804798115921
0.000563785351338351,6.97804798115921
0.000581307632153321,6.98804798115921
0.000624242944888708,6.99804798115921
0.000687529722418397,7.00733997824979
0.000768131986616738,7.01588743779244
0.000865228261108439,7.02375134129671
0.000979225525622423,7.03099076112035
0.00111130970815062,7.03765969946655
0.00126324041775784,7.04380764368803
0.00143726748612832,7.04948012520924
0.00163610960825384,7.05471916291372
0.00186297082185041,7.0595636313068
0.00212158272438789,7.06404960839511
0.00241627761716996,7.06821071124885
0.00275208953541966,7.07207841919828
0.00313489605149825,7.07568240136101
0.00357161940987951,7.07905090308526
0.00407051594732292,7.0822112307524
0.00464161601026509,7.08519039384773
0.00529742161260546,7.08801606196742
0.00604426793302821,7.09068605746617
0.00688502018440813,7.09319869700296
0.00784545876474455,7.09561889827175
0.00897754265496508,7.09804210308097
0.0104291980715211,7.10069266252509
0.0117330364098534,7.10278791199886
0.0131509106343703,7.10488316147262
0.0143971844987292,7.10665057112583
0.0154715326730966,7.10818140504892
0.0164207830717723,7.10959962638556
0.0172537476611768,7.11096891146115
0.0179612557399189,7.11233427643037
0.0185212434985883,7.11374171556597
0.0188933901289489,7.11525701297638
0.0189926212039823,7.11701873896266
0.0184910794732012,7.11959560757935
0.0177673423229137,7.12132466548452
0.0167992461062279,7.12305372338969
0.0157425058946417,7.1246530653954
0.014601231925602,7.12622740169985
0.0133832794513026,7.12782695084105
0.0127161594733583,7.12868835876835
0.0120575155841683,7.12954976669565
0.011277755619861,7.1306149445643
0.00953843031146984,7.13321184085345
0.00801885352315759,7.13580402979328
0.00672318822599121,7.13834127473447
0.00557918032705774,7.14092309395452
0.00456455678896165,7.14357767866807
0.00372243349739194,7.14613353766118
0.00311435522364074,7.14824187573742
0.00261343721402529,7.15019007009093
0.00216570402740983,7.15213178307212
0.00174023878650693,7.15419224683218
0.00130477789999373,7.15656964543695
0.000778779768238608,7.15990302664404
0.00028405774459245,7.16364700919623
-9.36315312376159e-05,7.16703464850543
-0.000419379520999539,7.17043438376209
-0.000736492474591268,7.17428681649339
-0.00106680051290679,7.17905256101142
-0.00136704850059853,7.18440577636959
-0.0015678427043407,7.18914004156584
-0.00168629137905375,7.1934852458603
-0.00171969698895031,7.19744867621144
-0.00166400383310167,7.20108384736337
-0.00151365156092997,7.20444472354566
-0.00126140491341102,7.20759272864536
-0.000895061830562263,7.21060622058337
-0.000390754317800891,7.21358895488878
0.000306026619970457,7.21671434671837
0.00123936648950003,7.22002749925641
0.00244807537321871,7.22356992496528
0.00395143422259298,7.22732966517304
0.00497958222730022,7.22960942967184
0.00611613204429104,7.23188919417063
0.00725580962356398,7.23393509600299
0.00845506917558522,7.23584740697983
0.00972843330356589,7.23763665462959
0.0111227146609458,7.23935140858991
0.0126600973765568,7.2409963556853
0.0143680176660909,7.24257933934198
0.0162683859198385,7.24410056572522
0.018389735488649,7.24556452574662
0.0207530859021439,7.24696922588746
0.0233933557379048,7.24832034253739
0.0263438748488741,7.24962018290424
0.0296414874286411,7.25087105189896
0.0333310336157904,7.25207648369017
0.0374658911770706,7.25324044932478
0.0421069859347321,7.25436651508615
0.0473262661319806,7.2554583911974
0.0532084325739383,7.25651977748024
0.0598577550661249,7.25755499633197
0.067400320258488,7.25856848953566
0.0759925852173692,7.25956520163001
0.0858327080220389,7.26055083269703
0.097178925511,7.2615322971605
0.11038007386604,7.26251845511192
0.125930640049928,7.26352144394546
0.144481683092969,7.26455425521291
0.165985424437728,7.26559088380018
0.191042866947853,7.26664401831482
0.220492797566379,7.26773234294875
0.255633975226309,7.26888698372931
0.294714860148499,7.27005244306013
0.330946882624347,7.27106974602767
0.36235205398712,7.27193589757482
0.389980038420361,7.2727143320517
0.414221822078284,7.2734411972488
0.435060606155491,7.27414034267201
0.452199079692193,7.27483139679176
0.465024077912315,7.27553383136077
0.472441187432498,7.27627083940122
0.472449051645482,7.27707592148274
0.462461954892226,7.2779259904151
0.441218452897933,7.27879341020647
0.407437107563734,7.2796894521474
0.359680235396174,7.28062440342743
0.320346212624183,7.28126162174999
0.276343979118884,7.28189884007254
0.236486841558188,7.28243696976969
0.201843557027743,7.28289043676434
0.171100119165692,7.2832915535534
0.143370370572284,7.28365975562656
0.11810992394097,7.28400710197973
0.0949385733338287,7.284342324031
0.0735439400202269,7.28467304967071
0.0536056433431627,7.28500781877943
0.0346565973642032,7.28536018689758
0.0154616712113885,7.28576739364408
0.00753563053193492,7.28595637973028
0.000216127915550801,7.28614536581649
-0.0073038480585392,7.28635759804675
-0.0136616471847117,7.28655501510454
-0.0194144747338301,7.28675165342973
-0.0251740882131626,7.28697041105015
-0.0307115161475596,7.28720768108699
-0.0358807238965876,7.287461261291
-0.0406017509499228,7.28773041141052
-0.044830124724445,7.28801535199673
-0.0487558383011334,7.28833682764068
-0.051878866746224,7.28865498424523
-0.0544904340570508,7.28899284616368
-0.0566042966551425,7.28935322049974
-0.0582331871555425,7.28973918725097
-0.0593904758915395,7.29015452498928
-0.0600887053762804,7.29060388938247
-0.0603381537737839,7.29109307081943
-0.0601452517031661,7.29162937970714
-0.0595098963670612,7.29222274075321
-0.0584206912232756,7.29288699215849
-0.0568517609690567,7.29364046347402
-0.0547516654889069,7.29451086677137
-0.0520145294523432,7.29554603141771
-0.0483702488253939,7.29685439515459
-0.0444758705955817,7.29822567492237
-0.0407355676878016,7.29954994473453
-0.0371891649564186,7.30083158514416
-0.0338548658128003,7.30207304801731
-0.0307408781029289,7.30327536237886
-0.0278493155925415,7.3044388231391
-0.0251780927573632,7.30556335982913
-0.0227220372702407,7.30664873001805
-0.0204736628402416,7.30769461765168
-0.018423776443384,7.3087006773886
-0.0165619892235437,7.30966654651006
-0.0148771577019416,7.31059183604787
-0.0133004817722733,7.31151050364004
-0.0117829189611848,7.31245263362726
-0.010329018181568,7.3134197880531
-0.0089427229663171,7.31441407965657
-0.00762777736175549,7.31543798506077
-0.00638767292349842,7.31649443730835
-0.00522559661796205,7.31758694503816
-0.00414437610270376,7.3187197528767
-0.00314642222556348,7.31989806235893
-0.00223366807092394,7.32112834462469
-0.00140750305660406,7.32241879753176
-0.000668699127000336,7.32378004038299
-1.73233009879222e-05,7.32522622159389
0.000547374959785447,7.32677689522557
0.00101378893279652,7.32840703147671
0.00138093096704108,7.33008425813741
0.00166520477829148,7.33182691297928
0.00188132149523751,7.33365639356623
0.00204316169928227,7.33560133035068
0.00216423335777567,7.33770239586995
0.0022583824649396,7.34002238190042
0.00234120939696688,7.34267102686676
0.00243420654140414,7.34588706561623
0.00255515600373239,7.34962703168034
0.00271068591859916,7.35363284325071
0.00290049147429822,7.35781525865703
0.00312026983249359,7.36217587998966
0.00336522469699238,7.36674734185461
0.00363179074125356,7.37156488113444
0.00391902323272368,7.37666798454717
0.00422913548325578,7.38210188863619
0.00455854813977975,7.38776080215625
0.00488762920610085,7.39324373642645
0.00522568107910738,7.3986533991096
0.00557363824269464,7.40394787916672
0.00593621209569843,7.40915007821003
0.00631717057262037,7.41426775719584
0.00672064086825015,7.41931197728162
0.00715073385335498,7.42428974372983
0.00761178574598532,7.42920596386924
0.00810845529781675,7.43406344071331
0.00864586453618431,7.43886339863557
0.00922970540733435,7.44360564403447
0.00986635626365064,7.44828888514953
0.0105630168504498,7.45291124443143
0.0113458530294705,7.45757275581633
0.0122286784795756,7.46226190557572
0.0132339026646804,7.46699679271155
0.0143929383772795,7.47181107547446
0.0157579483981812,7.47678506767387
0.017439584228087,7.48213441287762
0.01985102699605,7.48878061531726
0.02148342608622,7.49285390995273
0.0231802287461654,7.49692720458819
0.0246515334311853,7.50049338508235
0.0258890767631109,7.50369467310766
0.0269205231664722,7.50673424662994
0.0277175655479711,7.50966624490032
0.0282476626734614,7.51248920711058
0.0285062542059888,7.51532589045516
0.0284564712392895,7.51834352452705
0.0279625218194804,7.52193956111592
0.0271579217038045,7.52514946493596
0.0260679137783762,7.528359368756
0.0249799503348221,7.53105690250019
0.0239049053109981,7.53347931274737
0.022830256497396,7.53576774804818
0.0217553444282938,7.53798385495572
0.0206831352064498,7.54016096073226
0.0196172995872187,7.54232054967784
0.0185614795594231,7.544478062051
0.0175190940328071,7.54664546351629
0.0164932877645328,7.54883259327817
0.015486926611406,7.55104795031326
0.014502605534156,7.55329919665543
0.0135426585890046,7.55559350793174
0.0126091748744467,7.55793782058411
0.0117040031149197,7.56033905283208
0.0108287650217044,7.56280427513368
0.00998486731457967,7.56534086778996
0.00917350708085538,7.56795669583948
0.00839568514158439,7.5706602696381
0.00763413526554906,7.57353204148658
0.0068891489994959,7.5766042652672
0.00616454762914391,7.57990131773366
0.00546430727175547,7.58345157630253
0.00479257214410599,7.58728794663949
0.0041535820812059,7.59144882035414
0.00355155680974741,7.59597945274133
0.00299051629195441,7.6009342330317
0.00247400990129242,7.60638099742638
0.00200486531939137,7.61240819019097
0.00158511192167465,7.61913498497522
0.00123615668915581,7.6264040255899
0.00103160498710475,7.63223558925508
0.000817199180889307,7.64028031684642
0.00065002603147298,7.64880858539128
0.000517058326082201,7.65826762315844
0.000421319947172857,7.66826762315844
0.000359235363190049,7.67826762315844
0.000321347792636515,7.68826762315844
0.000300867267878416,7.69826762315844
0.000293127704030794,7.70826762315844
0.000295089813167282,7.71826762315844
0.000304907868911304,7.72826762315844
0.000321612091648409,7.73826762315844
0.000344916556858158,7.74826762315844
0.000375136385136619,7.75826762315844
0.000413199558617136,7.76826762315844
0.000460756741355361,7.77826762315844
0.000515982737961746,7.7875831547804
0.000579154649678399,7.79619552521443
0.000651114476734554,7.80415545289449
0.000732958115633746,7.81151259939274
0.000825985897417871,7.81831316431209
0.000931695561096244,7.82460010240407
0.00105179530284953,7.83041338788435
0.00118822593964368,7.83579024025157
0.00134318883924157,7.84076532056326
0.00151917814417869,7.84537091376325
0.00171902008075904,7.84963710128058
0.00194591879553663,7.85359192470029
0.00220351254637847,7.85726154143022
0.00249594177948372,7.86067037983784
0.00282793423242137,7.86384129885436
0.00320491331357428,7.86679575352015
0.00363313829570803,7.86955397274173
0.0041198922484882,7.87213516164762
0.00467374107384321,7.87455774363007
0.00530490385454353,7.87683966871393
0.00602090955195213,7.87898545266106
0.00681119607369426,7.88096075428647
0.00768523047053396,7.88279821323251
0.00865729893220406,7.88453051273368
0.00974932249519343,7.88619195772776
0.0109991895203947,7.88782562150207
0.0125250581425254,7.88954421648
0.014676724747832,7.89162216449731
0.016349241520125,7.89305689252524
0.0181410460165047,7.89449162055318
0.0198103773546334,7.89578572812474
0.0212892871118719,7.89694213286955
0.0226174488084037,7.89803328719717
0.0238017439292555,7.89910457245653
0.0248283167607136,7.90019358993156
0.0256653522544809,7.90134546477382
0.026250628443798,7.90263797597182
0.0264213731414714,7.90429397634288
0.0259592060776294,7.9059873453696
0.0249620446452492,7.90768071439633
0.0238156659925201,7.90910160551243
0.0225230579635071,7.91047658218401
0.0210827558601641,7.91188562072826
0.0195031864438079,7.91337008692803
0.0177900078541274,7.91496899301192
0.0159738398132171,7.91673407922029
0.0142124873440415,7.91859640228452
0.0117147142233187,7.92158392718212
0.00970064927645261,7.92440657179326
0.00811583437681442,7.92700195509212
0.00681109634809036,7.92948685293217
0.00567242199339436,7.93201173013188
0.00467314407407427,7.93460596386351
0.00379477715945698,7.93729274032774
0.00302244429259123,7.94009538445271
0.00234362180593809,7.94303899634374
0.00180110075644676,7.94584635703905
0.00135752519908673,7.94855800246645
0.000982859504577907,7.95124345815924
0.000661447498165274,7.95392977786328
0.000387380227247658,7.95658336290806
0.000153613924692152,7.95918226525945
-5.19349939502842e-05,7.96178361914091
-0.000245689094253143,7.96456362950697
-0.000418130556447008,7.96735405442254
-0.000536405894405248,7.96946399028482
-0.00064594153645042,7.9715739261471
-0.000737053714791715,7.97345024816666
-0.000818100770087317,7.97521562806053
-0.000895522056654752,7.97698879193559
-0.000974392132548734,7.97888340085055
-0.00106197277306653,7.98109198179336
-0.00118216329620044,7.98430142974336
-0.00131700270820502,7.98814854977697
-0.00142260833080089,7.99135380846624
-0.00152116404822158,7.99451827459125
-0.00162638716939055,7.99813232588434
-0.00174480862156838,8.00266367455624
-0.00185412761947047,8.00794884224136
-0.00190495667412427,8.01254523524204
-0.00189121538925682,8.01667187451592
-0.00180347797395595,8.02040059235122
-0.00163147294684543,8.02383484532317
-0.00136513104213344,8.02702899261788
-0.000998708710163022,8.0299951391793
-0.000528685722452733,8.03275369317099
5.15611003709261e-05,8.03534611322149
0.000756002578425233,8.03782708234726
0.0016133830585777,8.04026856890785
0.00267024410267235,8.04274731672926
0.00399661742479485,8.04534397409058
0.00562376465041636,8.04803228143061
0.00739928323831691,8.05054199357381
0.00915766967127342,8.0527011057062
0.0108984875521337,8.05457753076644
0.0127075136910398,8.05629410550241
0.0146135062123171,8.05788330631145
0.0166861568843739,8.05939687457895
0.0189406558406437,8.06083315759327
0.0214309972416948,8.06221279423943
0.0241881786023052,8.0635372521775
0.0272570894519612,8.06481290714211
0.0306817904287193,8.06604288146609
0.0345090040414917,8.06722941191851
0.0387982237114279,8.06837671183418
0.0436138799625011,8.06948778436407
0.0490305832908576,8.07056573101537
0.0551412992733154,8.07161473088895
0.0620551511661571,8.07263872048278
0.069905451921411,8.07364205293387
0.0788563769071687,8.07462948698876
0.0891201979627354,8.07560699122117
0.100972293612151,8.07658159564568
0.114785837724978,8.07756235434828
0.131092785672789,8.07856178516695
0.15045495307578,8.07958639027851
0.172910642645128,8.08061614188447
0.199093949085387,8.08166391174261
0.229891204048912,8.08274870866081
0.26669120568779,8.08390286268722
0.307331877712133,8.08506288431112
0.343672603884332,8.08604460765249
0.37501077754159,8.08688139902031
0.402505604797086,8.08763636108837
0.426555212921607,8.08834464393471
0.447128374653471,8.08902986265059
0.463886010050184,8.08971200433534
0.476128444691787,8.09041179663728
0.482576108284962,8.09115557395787
0.480758648815052,8.09198504541398
0.46837370816309,8.09283269385006
0.444262093600169,8.09370299704855
0.407035734944952,8.09460674150878
0.355154639146648,8.09555431347336
0.315531916864141,8.09616257481433
0.271822452752609,8.0967708361553
0.232341257591614,8.09728828250159
0.197911443961425,8.09772870046502
0.167300387590524,8.09812089559002
0.139668524147601,8.09848260982864
0.114487306068079,8.0988251628301
0.0913788425655761,8.09915699520044
0.0700234765461613,8.09948577161846
0.0500769896832311,8.09982057606601
0.0309919565374423,8.1001771245263
0.0110344607627597,8.10060672979058
0.000730134919200316,8.1008618992852
-0.00642952461502449,8.10105784177075
-0.0129634053569154,8.10125378425629
-0.0187135042428155,8.10144321822133
-0.0245371720746431,8.10165568620222
-0.0301807535947952,8.10188723270025
-0.0354782103476784,8.10213528552636
-0.0403377219711263,8.10239886192728
-0.0447113997072959,8.10267801367948
-0.0488737192770132,8.10299982404207
-0.052128650696642,8.10331196891268
-0.0548659103920607,8.10364318247561
-0.057100090047285,8.10399626397249
-0.0588437860943595,8.1043741670792
-0.0601105415959816,8.10478051699586
-0.0609133419180128,8.10521977892251
-0.0612631608273565,8.10569749915503
-0.0611673966780877,8.10622066439893
-0.0606277353249373,8.10679841480871
-0.0596348839258324,8.10744411469381
-0.0581659028517781,8.10817494645234
-0.0561746371603759,8.10901650250902
-0.0535673794991406,8.11001174132436
-0.0501177914628464,8.11125210765711
-0.0461632751505234,8.11263793037044
-0.0423488896913657,8.11397555804182
-0.0387216283765741,8.11527018148702
-0.0353032963054713,8.1165246099443
-0.0321042626820369,8.11774003457577
-0.0291281473433234,8.11891681427091
-0.0263740053185237,8.12005489365273
-0.0238375526147331,8.12115402261614
-0.0215119880249787,8.12221386921835
-0.0193886259890079,8.12323407266487
-0.0174574258195666,8.12421426076645
-0.0157074498317604,8.12515404497129
-0.0141078841930656,8.12606436323964
-0.0125655297973217,8.12699776273875
-0.0110853644814033,8.12795550163292
-0.00967138740164974,8.12893957814227
-0.00832741927798527,8.12995232531283
-0.00705704702245505,8.13099649707245
-0.005863572477412,8.13207537570777
-0.004749958520586,8.13319291544396
-0.00371877249677451,8.13435393847341
-0.00277212650807641,8.1355644095546
-0.00191161340219556,8.13683183249377
-0.00113823611129151,8.13816584373803
-0.00045232578990411,8.13957914130302
0.000146560239826019,8.14108902138775
0.000655961949141253,8.14270632501927
0.00105939139535406,8.14436418551525
0.00137427623114803,8.14608102401808
0.00161570968279871,8.14787631382917
0.00179782383657514,8.14977568933159
0.00193418822764053,8.15181469894302
0.00203840334050025,8.15404642924267
0.00212516248631608,8.15655900414846
0.00221290799709291,8.15952647855663
0.00232904024522901,8.1632655817336
0.0024703889991211,8.16711895472633
0.00263336947744348,8.17090502507669
0.00281600091139913,8.17468806788621
0.00301502575406024,8.17851606588511
0.00322784347276204,8.18242680315816
0.00345323138232549,8.18645312589908
0.00369145932289798,8.19062585883347
0.00394416911962941,8.19497573698057
0.00421419710703579,8.19953479037867
0.0045054713775307,8.20433772514644
0.00482309329763725,8.209423265089
0.00517372746553157,8.2148353771631
0.00553212080646283,8.22012477519407
0.00590565706122607,8.2253651455528
0.00629447178463188,8.23051305129996
0.00670279655200308,8.23558000050924
0.00713471550995573,8.24056995764089
0.00759509788564136,8.24549133902363
0.00808907687597613,8.25034959250713
0.00862220445829569,8.25514827277415
0.00920049807345776,8.25988874115479
0.00983055787545829,8.26457061808295
0.0105197094410966,8.26919243793984
0.0112932235323311,8.27385008474671
0.0121652471866115,8.27853539311098
0.0131575772441764,8.28326477099949
0.0143005815132035,8.28806950763934
0.0156438480084357,8.29302385608108
0.0172895928574504,8.29832371115161
0.0195900842153094,8.30474801998256
0.0212625847649036,8.30896162415503
0.0230130086096608,8.31317522832749
0.0245159660127099,8.3168059976295
0.0257761094713848,8.32003496145578
0.0268289711490637,8.32308402806771
0.0276542501577543,8.32603362439156
0.0282119213763842,8.32886159125182
0.0284997438941043,8.33168924721205
0.0284856268404767,8.33467542719673
0.0280531540699507,8.33816861351545
0.0272621938943902,8.3414804537976
0.0261604239205543,8.34479229407976
0.0250680947446488,8.34752632205585
0.0239929159515209,8.34996175443462
0.0229188587094291,8.35225576445508
0.0218445124308184,8.35447396175183
0.0207727152840479,8.35665096084366
0.0197071305295449,8.35880880488324
0.0186514219740524,8.36096320385118
0.0176090382526195,8.36312624577947
0.0165831558544557,8.36530780166262
0.0155766729649671,8.36751633606111
0.0145922151315734,8.36975942516005
0.0136321473456659,8.37204410546801
0.0126985865371115,8.37437712719895
0.011793408166382,8.37676516516474
0.0109182602500344,8.37921497786738
0.0100745695390846,8.38173356873528
0.00926355259224338,8.38432832875705
0.00848622303968431,8.38700719412993
0.00772323419921584,8.38985733665238
0.00697648216251864,8.39290514325092
0.00624975103919016,8.3961746134132
0.00554700832682192,8.39969355206879
0.00487239436503067,8.4034941625327
0.00423015439224403,8.40761394898633
0.00362452696569641,8.41209701112242
0.00305956983392277,8.41699616055815
0.00253890227098572,8.42237685369136
0.00206544274547389,8.42832391364548
0.00164131418951418,8.43495102289867
0.00127934241767141,8.44215466143459
0.000981813216646057,8.44995448299078
