time,ecg
0,0
0.00047930143873713,0.000363032943065808
0.00174925752985637,0.00122310367309585
0.00310017667914387,0.00199208146456449
0.00450298916290612,0.00265351814620528
0.0059382450695514,0.00320883771860971
0.00741247519556105,0.00367497741443722
0.00893336588560343,0.00406901575990269
0.0105105243593096,0.00440857498557112
0.0121554472012669,0.00471212776049833
0.0138813358838824,0.00499958990154452
0.0157022898151207,0.00529314057127796
0.0176308824907352,0.00561806940970956
0.0188154412453676,0.00583464070629459
0.02,0.0060700914972935
0.0221311624095133,0.00655547326152997
0.0243268299951745,0.00716054831209918
0.026489886858912,0.00788726395732282
0.0285484486059818,0.00872618005404918
0.0304654783024137,0.00966373364825124
0.0322349140037351,0.0106900825807106
0.0338979728011887,0.0118237464442477
0.0354852936907488,0.0130889403332144
0.0370020488269539,0.0144985194474451
0.0384527569983734,0.0160672807284696
0.0392263784991867,0.0170070733401044
0.04,0.0180286809541635
0.0413056260812367,0.0199642386351422
0.0425761838776037,0.0221466421161327
0.0437964589259335,0.0245767230717773
0.0449687896565165,0.0272826487636463
0.0460959110319585,0.0302973404175771
0.047180434509193,0.0336581596463059
0.0482248615906564,0.0374075449562955
0.0491124307953282,0.0410654459319256
0.05,0.0452366915608459
0.0509424553904295,0.0503309529025368
0.0518563844250531,0.0560500705577248
0.0527413585900414,0.0624619301310145
0.0535995003992185,0.0696596784556485
0.0544329933555699,0.0777518231551775
0.055244010358359,0.0868645940045258
0.0560347140797859,0.0971452765026724
0.0568072575983429,0.108766211968432
0.0575637849631898,0.121929588263859
0.0583064378559778,0.136873289986641
0.059037384915155,0.153878480228554
0.0595186924575775,0.166507071086876
0.06,0.180417051383861
0.0607091755477175,0.203539168900925
0.0614207528266,0.230324847426422
0.0621380282551524,0.261502533294958
0.0628761815215138,0.298556780227377
0.0636249762218833,0.341830576506712
0.0643899631540837,0.392187559216963
0.065003318450846,0.436704598263087
0.0656166737476082,0.483889866538286
0.0661430171675075,0.525120888889052
0.0666168378008233,0.561335484239719
0.0670708968831745,0.593769757990772
0.0675273251160554,0.622684404436333
0.0680093326600644,0.647780547080071
0.0685556424661972,0.668115658681575
0.0691891908968399,0.680021789646831
0.0695945954484199,0.681148320291575
0.07,0.677533770192078
0.0706482611970212,0.662882276086462
0.0712839347586722,0.639320666840439
0.0719525769631264,0.606186780081447
0.0726904619723035,0.560983196423072
0.0735414969413067,0.498696906321956
0.0745109482249971,0.415502904783699
0.0750777695380883,0.361506633720654
0.0756445908511794,0.304513722278768
0.0761206695375921,0.255385291625361
0.076519976292501,0.214240615149523
0.0768741270150746,0.178550764768973
0.0772014770654128,0.146828615351368
0.077513406430614,0.118207466366069
0.0778187295151613,0.0920846602350004
0.0781265641840212,0.0679280809172462
0.0784509269143787,0.0450484497175254
0.0788317414532734,0.0216710699104533
0.079117020969009,0.00659416139604784
0.0792836854586484,-0.00128667243150756
0.0794503499482878,-0.00851511040461799
0.0796095115969638,-0.0148365445976299
0.0797862065196464,-0.0212239181912352
0.0799817229668953,-0.0275666598843921
0.0801931618866732,-0.0336329089321912
0.0804190880593692,-0.0392842697087039
0.0806591452132638,-0.0444437452464101
0.080913725501329,-0.0490718683082219
0.0811837934449333,-0.0531523800815179
0.0814708083911987,-0.0566835243988737
0.0817767118556205,-0.0596725523904159
0.0821039642120275,-0.0621320754020274
0.0824556270946105,-0.0640774823186551
0.0828354972793004,-0.0655249464942662
0.0832483080227812,-0.0664897050243414
0.0837000288144786,-0.0669843568376084
0.0841983213908964,-0.0670169124448461
0.0847532654105003,-0.0665882095778975
0.0853799270847823,-0.0656856982510046
0.0860989076598058,-0.0642730881529773
0.0870157261178097,-0.06208258801325
0.0880525554324454,-0.0592956291451795
0.0890262777162227,-0.0565168561102904
0.09,-0.0536654488908561
0.0913946365381832,-0.0495539644678862
0.0927566221269498,-0.0455656892039751
0.0940825261336059,-0.0417568476443579
0.0953730222173957,-0.0381491510745123
0.0966280379942997,-0.0347547799385523
0.0978470996676431,-0.0315800450444927
0.0989235498338216,-0.0288859774684283
0.1,-0.0263021631436135
0.101110032104941,-0.0237592982679881
0.1021847650571,-0.0214195547304432
0.103220649708869,-0.0192818786384598
0.104217044775304,-0.0173370187264506
0.105173470680637,-0.0155744143007073
0.106089455311049,-0.0139828665550561
0.107011810879338,-0.0124759534241736
0.107957917200691,-0.0110297152975172
0.108929491820388,-0.0096484789493699
0.109928700996595,-0.00833618963950061
0.110958093022724,-0.00709659952525737
0.112020694288458,-0.00593321770119383
0.113120135045353,-0.00484926049230629
0.114260819504018,-0.00384760054490868
0.115448161395705,-0.0029307150302457
0.116688919436304,-0.00210063311558836
0.117991691238368,-0.00135888263471181
0.118995845619184,-0.000870243005970459
0.12,-0.000447691449294695
0.121507848670877,7.52448839060519e-05
0.123124283566761,0.000506533403766525
0.124781223142176,0.000832774884185441
0.126497086106167,0.00107077589274786
0.12829129976275,0.0012351104594504
0.130189440652054,0.00133932854919703
0.132226971254913,0.001396308396355
0.134249257370379,0.00141775694097725
0.136151240080616,0.0014208169197895
0.137938995762439,0.00141791724482737
0.13896949788122,0.00141620308246488
0.14,0.00141562924319812
0.141549942035378,0.00141842818720142
0.14303340627926,0.00142658190372179
0.144442766531247,0.00144024574264962
0.145787214645297,0.00145918358613772
0.147077131081753,0.00148305322111461
0.148324353974749,0.00151158520462746
0.149162176987374,0.00153380048323515
0.15,0.00155848436708451
0.151219401547788,0.00159884514508921
0.152482592321814,0.0016462370050022
0.153908646041684,0.00170665056606878
0.15517334233263,0.00176648787948584
0.156438038623576,0.00183239179475253
0.157464049257425,0.00189048645612991
0.158380161111894,0.00194601516879545
0.159270478476342,0.0020034380017305
0.160187536658568,0.00206633031405734
0.161193561351013,0.00213995453762886
0.16241713463215,0.00223651562279816
0.164559504775722,0.00242633072653066
0.166791675008551,0.00265717194694492
0.168395837504276,0.00284827071944734
0.17,0.0030647549187849
0.172157256774066,0.00340467068633645
0.174197454324358,0.00379075414554856
0.176114222085743,0.00422674000162603
0.177925045081532,0.00472148056918029
0.179645233193945,0.00528534501196387
0.181282379057254,0.00592828468175421
0.18283771252722,0.0066589427124139
0.184290980368355,0.0074731421009196
0.185623752980304,0.00835811864464272
0.18685607232625,0.00932058741812096
0.188009445853646,0.010372984405269
0.189100309763284,0.0115288120749959
0.190169353879148,0.0128388790092736
0.191254646366833,0.0143759486503752
0.192391544166591,0.0162389087719157
0.19367107614242,0.0186731855260151
0.194860981861468,0.0212618714805854
0.196050887580517,0.0241231399746628
0.197019468006915,0.0265819978683994
0.197855836493084,0.0287212929635509
0.198638370427518,0.0306605605832529
0.199319185213759,0.0322381211087539
0.2,0.0336604500469019
0.200815453549371,0.0350962717387127
0.201715117433359,0.0362758782859587
0.202819922099904,0.0370909719574258
0.20424557998314,0.0371452780569448
0.205383293286671,0.0364962228161992
0.206521006590201,0.0353844535122246
0.207606327072988,0.0340181571887847
0.208729075580634,0.03240214777778
0.209933886247048,0.0305395960782161
0.211261728928801,0.0284277142178202
0.212767278846124,0.0260488764031383
0.214544467510448,0.023350357440366
0.216347608080047,0.0207924387293399
0.218150748649646,0.0184601263863336
0.22,0.0163110228974654
0.222741108504754,0.0135499580327841
0.225273692682088,0.0114092123321023
0.227572657247508,0.00976795941021611
0.229722772525382,0.00846159167730936
0.2318860895864,0.00734229632478012
0.234103255489978,0.00637151058106804
0.236394393341629,0.00552947347486619
0.238778935279048,0.00480063896626632
0.241277502647741,0.00417187088362527
0.243913069540417,0.00363136930169232
0.246712205855485,0.00316760997139846
0.25,0.00273308444689247
0.253262558108492,0.00238358371842261
0.256274120188421,0.00210522459901284
0.259551471764764,0.00183804798254304
0.262118058020355,0.00166702711592999
0.264684644275946,0.00154850569462688
0.267538243801879,0.00148113138380001
0.271350762846505,0.00147050392514926
0.275406821875291,0.00151987659590231
0.280309594035797,0.00161665032442348
0.285439372848189,0.00173759668289613
0.291320212646917,0.00188686693884267
0.295660106323459,0.00200263851735554
0.3,0.00212164713249456
0.306291357748823,0.00229949547753474
0.311681279490717,0.00246004919975694
0.317333671023011,0.00263595912445056
0.322725582073616,0.00281303030964712
0.328080604865299,0.00299901671927843
0.333318368645442,0.00319229923360357
0.33847834380994,0.0033951759272827
0.34355720760272,0.00360847916880739
0.34857036379414,0.00383377819081763
0.353506296412607,0.00407173808977902
0.358308351445278,0.00432119732881666
0.363048878384885,0.00458740419353673
0.367753822716424,0.0048734554176378
0.372403732473491,0.00517988088062714
0.376997496814106,0.00550847102933834
0.381539902601123,0.00586180570739957
0.386034265026533,0.00624280845216158
0.390485097270895,0.00665498276483483
0.394896691890518,0.00710236713275209
0.399274164466934,0.00758970773173654
0.403623537369431,0.00812257087681353
0.407954010821176,0.0087077532594149
0.412368976162328,0.00936772664594927
0.416891532950086,0.0101182907341873
0.42158500606484,0.0109855153365678
0.426580925880033,0.0120148633980337
0.432250061042197,0.013315934503571
0.438520765487039,0.0148899665008154
0.442536746077695,0.015930370904186
0.44655272666835,0.0169374751776862
0.450155923549952,0.0177521948853902
0.453515933460494,0.0183750852230922
0.456808043444267,0.0187989651864549
0.460159855492754,0.0189870872406385
0.463499115094178,0.0188902739790618
0.467021640587263,0.0184614496057111
0.470770595271629,0.0176501562243592
0.474367726888068,0.0165743664216774
0.477811611308354,0.0153347818257163
0.481055457777496,0.0140409319722822
0.484203650414927,0.0127211027702774
0.487224695094096,0.0114366252367465
0.49021159074214,0.0101812928160269
0.493224498480192,0.00895421637988293
0.496308747631997,0.00775740369693981
0.499504046039438,0.00659425927900746
0.502655397787166,0.00553155094442051
0.505769026711607,0.00456731018038022
0.508893741140708,0.00368541791013783
0.512065634110405,0.00287578439383318
0.512877765080092,0.00268189160530431
0.513689896049778,0.00249882375713461
0.514527982535196,0.00233662981903371
0.516149392355235,0.00209157611915762
0.517900408870589,0.00190618963256181
0.519830074185025,0.00176939406073561
0.522017150539584,0.00167074007824292
0.5246237882377,0.00159933000711469
0.52786320301489,0.00154539781679554
0.531186353442854,0.00150816401708564
0.534893829115117,0.00147807234916547
0.538539885079939,0.00146193876558233
0.542330646277382,0.00146487109013493
0.546381161929533,0.00149651556881838
0.550797201610899,0.00156904904325788
0.555584180568529,0.00169352128779615
0.56059720063597,0.00187262756530529
0.565642765093984,0.00209936995606054
0.57062772961848,0.00237074994999947
0.575540356937236,0.00268448961311989
0.580385118675522,0.00303582113960407
0.585168347809548,0.00342401612515312
0.58989407290738,0.0038511744825855
0.594556753488694,0.00432078941951679
0.599148796094166,0.00483774663698552
0.603658916041573,0.00540769856191864
0.608076977070999,0.00603723194718758
0.612392752957573,0.00673341786757208
0.616603910092087,0.00750489961833475
0.620712136081085,0.00836149127467718
0.624733432664221,0.0093168071104921
0.628698856431499,0.0103902399732764
0.632740833576866,0.0116376182933462
0.637075674566411,0.0131666204190753
0.642234168837956,0.0152584963063936
0.645952375396172,0.0169390532718124
0.649670581954388,0.0187230821091665
0.652763674723154,0.0202286093251064
0.655406861865616,0.0214685192097767
0.657788581007125,0.0224877991773946
0.66000429359415,0.0232920736070547
0.66211047387747,0.0238676322197907
0.664150266244743,0.0241898067258625
0.666162247327096,0.0242226036402383
0.668190329027332,0.0239138471347568
0.670307675547234,0.0231747454046992
0.672644465676706,0.0218242979253361
0.675631387345316,0.0192757650365268
0.677809572361021,0.0168801127245921
0.679987757376726,0.014118893704612
0.681731751039325,0.0117152863852219
0.683262087285894,0.00951883530418148
0.684673329484427,0.00746018521492298
0.686046765872466,0.0054579423467623
0.687465973464096,0.00341936443845468
0.688968450374191,0.00132302137506418
0.690606269108023,-0.000861734028473419
0.690827928948889,-0.00114814327641653
0.691049588789755,-0.00143098702485179
0.691268129010737,-0.00169288117650398
0.692015885764219,-0.00244731123012578
0.692778666188844,-0.00301073243439512
0.69355840700524,-0.00339757066719132
0.694360505043467,-0.00362211281967235
0.695190313069424,-0.00369547201126142
0.696053439525027,-0.0036264530445025
0.696956054735391,-0.00342206919223747
0.697905244110156,-0.00308781480229581
0.698909479747369,-0.00262773530563599
0.699979321796477,-0.002044273227873
0.701128558458735,-0.00133778800195332
0.702376231686938,-0.000505482872890162
0.703750644000512,0.000460945929958527
0.705298549735329,0.00158098170772929
0.707007215138713,0.00282632576387589
0.708738229607415,0.0040746796794499
0.710524032256076,0.00533316663112017
0.712391190449595,0.00660854448074921
0.71437080019383,0.00791279540981876
0.716503747777253,0.00926523827096486
0.718850155309647,0.0106969584439177
0.721360325539545,0.0121741011903714
0.723982559321839,0.0136673310506135
0.726808967552477,0.0152262092639229
0.729940512164032,0.0168893061666835
0.732993244850298,0.0184298777415623
0.735992671796237,0.0198397778087671
0.739007473685373,0.0211210940745623
0.742139482244725,0.0222737720376027
0.745354860327805,0.0232399578430602
0.748693131253101,0.0239990187207057
0.751912685062263,0.0245103678881234
0.755011065519556,0.0248356354708527
0.75803773160738,0.0250482736134884
0.761068226484497,0.0252180750789018
0.764177765373868,0.0254083905174987
0.767223344093592,0.0256497645168615
0.769101856285256,0.0258253852844607
0.77098036847692,0.0260056000954734
0.772687582181876,0.0261503639410099
0.774273095954748,0.0262416904053581
0.775797952912993,0.0262619926222392
0.777308289666994,0.0261878837604691
0.778849699122325,0.025986782733996
0.780483547768214,0.0256078202666018
0.782327229867162,0.0249518678559055
0.784794908860577,0.0236874669955139
0.786724661769661,0.0224157399224899
0.788654414678746,0.02094467063351
0.790354141718017,0.0195286417845716
0.791972883893801,0.01811414710593
0.793577506390491,0.0166813683253815
0.79439101754527,0.0159523562841063
0.795036339661963,0.0153765911513949
0.795681661778656,0.0148155027762909
0.797866955080301,0.0130394776448603
0.800139680042206,0.0113828210758283
0.802475684435288,0.00986371897934972
0.80489440730334,0.00846646915160368
0.807417011732187,0.00717741093135038
0.810066306851014,0.00598485083338556
0.812868003594609,0.00487834626848448
0.815852178005036,0.00384818807386454
0.819055141561004,0.00288497974226528
0.822522037724877,0.00197922937325515
0.826310679096997,0.00112088679087486
0.83049754815508,0.000298774229028181
0.834832669123867,-0.000443314216154767
0.838782044778351,-0.0010435332014112
0.842983863716068,-0.00161824595118507
0.848018363609596,-0.00223301411050299
0.853096845964897,-0.00277548800264009
0.857244223580357,-0.00315571717975947
0.860897037181882,-0.00343674424206853
0.864351728004731,-0.0036499203190866
0.867815085387806,-0.00380782943585562
0.871542358382132,-0.00391334864826309
0.875538109337622,-0.00395468205088348
0.879401934138308,-0.00393109634642675
0.883290454814916,-0.00385458408650182
0.886588433700926,-0.00375684009441037
0.889651561056464,-0.00364553615308041
0.892614245219332,-0.00352403977896454
0.895541354583775,-0.00339466786974157
0.898472956588621,-0.00325916523883834
0.901437828602784,-0.00311893081292588
0.904459004828901,-0.00297514117914767
0.907512680360911,-0.00283088178137179
0.910454342435663,-0.00269441284506504
0.913334263523631,-0.00256424680310097
0.916235732591555,-0.00243734212856204
0.919333998497742,-0.00230719282324108
0.923035874925924,-0.00215965607060742
0.92536599721171,-0.0020714945749756
0.927696119497496,-0.00198707699724048
0.929811665080053,-0.00191371153235545
0.931816059078195,-0.00184707972753122
0.933841371097888,-0.00178257322729447
0.936023450240493,-0.00171619181780674
0.938610300935913,-0.00164156983346091
0.942688078421052,-0.0015324805894642
0.946751119468624,-0.00143348683454343
0.950164798926435,-0.00135727171917743
0.953672396876857,-0.00128513407481465
0.956597702021646,-0.00122472155411423
0.959523007166435,-0.00114847335820215
0.963691609810126,-0.000995897755684195
0.96814308844821,-0.000808606267355708
0.973292614851186,-0.000589062589986462
0.979157927983799,-0.000347229734109423
0.984666281379849,-0.000124008102480514
0.990131594797111,0.000102919921932577
0.995388405855098,0.000337930176549177
1.00031194039909,0.000585242662966696
1.0048476293306,0.00084934346210406
1.00900566093631,0.00113583801871793
1.01283906855164,0.00145217709159917
1.01641215275364,0.00180716012307956
1.0198085341101,0.00221303935531845
1.02315269128511,0.00269079240159794
1.02655155933066,0.00326331198336122
1.03019786025093,0.00396833061985175
1.03334356249706,0.00462960767942357
1.03648926474319,0.0053065007083728
1.03955198867627,0.00595286740053044
1.04373165598746,0.00680034795872651
1.04645967783129,0.00734838854689842
1.04918769967511,0.0079219137339868
1.05165494208511,0.00849134080456073
1.05400421611719,0.00910621812017556
1.05628564495485,0.00979799254666845
1.0584707142453,0.0105743431743118
1.06058504801773,0.0114584915386926
1.06263678324775,0.0124701807604438
1.0646171625815,0.0136215929350109
1.06651712992852,0.0149221492450164
1.06833661991616,0.0163853339596076
1.07007853944588,0.0180274844548123
1.07174537302469,0.0198659646451564
1.07334342074699,0.0219246789504878
1.07487751401684,0.0242298200472735
1.07635214861405,0.0268112459478592
1.0777730614734,0.029706216931258
1.07914522513142,0.0329573375380953
1.08047367307059,0.0366151416970732
1.0817634365949,0.0407396298309034
1.08302027906922,0.0454050754369636
1.08425031790161,0.0507027564634899
1.08546063961898,0.0567485894345732
1.08665990924546,0.0636945844365835
1.08785974461741,0.0717509708551653
1.08907710801972,0.081228579220283
1.09034051908871,0.0926414690806604
1.09161299917344,0.105936409264231
1.09291611742812,0.121546188991861
1.09429515365781,0.140247578859281
1.09539771293651,0.156623730761635
1.09650027221521,0.173895994926655
1.09748638057194,0.189630656400268
1.09838719078548,0.203720104191033
1.09923562836454,0.216203286209627
1.1000506695787,0.226921204064632
1.10084494528432,0.235595741364991
1.10162844249201,0.24186090123955
1.10241066254282,0.245261960360017
1.10320288049092,0.245222060847471
1.10402250649993,0.240931890158726
1.10491150493612,0.230876496130023
1.10583402269036,0.214204127467215
1.10678899827887,0.190454767144265
1.10739400401161,0.172401727731915
1.10799900974436,0.152514886217673
1.10854090992504,0.133620257991032
1.10903352243393,0.115987231872476
1.10949411842948,0.0994720985224758
1.10993410941284,0.0839783449540722
1.11036193102192,0.0694355717293322
1.11078494584742,0.0557751960178895
1.11121098328193,0.0429109182800296
1.1116507959594,0.0307038017716872
1.11212546287047,0.0188467362624324
1.11271419359954,0.00608935599668034
1.11304525599876,-0.000151412320290623
1.11337631839798,-0.00574894408830765
1.11368502020655,-0.0104168962880253
1.11398530650762,-0.0144762239874228
1.11431025508081,-0.0183693802466124
1.11465728060065,-0.0219974461759691
1.11502492244464,-0.0252974879045748
1.11541313059595,-0.0282366709219086
1.11582279536852,-0.0307997057629743
1.1162555019521,-0.0329566234973599
1.11673941539023,-0.0347587503259006
1.11720315233894,-0.035975679104337
1.11769620847247,-0.0368153478198013
1.11822266548571,-0.0372871798617289
1.11878692571415,-0.037399493305486
1.11939424535039,-0.0371600458434643
1.12005200443067,-0.036574289058094
1.12076918814415,-0.0356440822273384
1.12155610495258,-0.0343688575356198
1.12242606523614,-0.0327443028418622
1.12339704597296,-0.0307601329566183
1.1244951459351,-0.0283951617367936
1.12576330752738,-0.0256036735665947
1.12697443752419,-0.0229484628778068
1.12812544979209,-0.0204805166835555
1.12922285812649,-0.0182050212951415
1.13027074429705,-0.016119415163223
1.13127159215375,-0.0142172370279563
1.13222691678429,-0.0124897563403058
1.13315904337578,-0.0108911997139045
1.13411312958301,-0.00934651363923628
1.13509081208518,-0.00786109095094187
1.13609440449994,-0.00643926349264668
1.13712653878034,-0.00508504706250145
1.13819026597802,-0.00380210077041473
1.13928917911052,-0.00259368433520389
1.14042757469945,-0.0014626066964776
1.14161067189747,-0.000411165578725652
1.14284491941256,0.00055892382629615
1.14413844065077,0.0014466157761623
1.14550170565835,0.00225164442968449
1.14694859520046,0.00297467324957425
1.14849818954784,0.00361751613181784
1.1501431999757,0.00417299305278594
1.15183273105489,0.00463089979791782
1.15358624131044,0.00500966906495774
1.15542531432076,0.0053258978196347
1.15737862139111,0.00559585292828846
1.1594866360475,0.00583635680495674
1.1618114707769,0.00606634910537661
1.164460858358,0.00631032931331044
1.16766602331268,0.00660893517261929
1.17144424917979,0.00699266134015382
1.17547344225974,0.00745563332713244
1.18011876266307,0.00806463239255397
1.18452904570664,0.00871954178182971
1.18894060745843,0.00945317771042736
1.19328445075341,0.0102619073577009
1.19757698171903,0.0111611811877423
1.20164813196834,0.0121269528842241
1.20546841640529,0.0131567788769962
1.20907062090379,0.0142626955133009
1.21249075341379,0.0154604227437824
1.21576882710845,0.0167709712712788
1.21895383064322,0.0182247403359946
1.22211544636532,0.0198710319494358
1.22537906646898,0.0218060803162706
1.22820569716952,0.0236811135988451
1.23034531588201,0.0252126336963027
1.2324849345945,0.0268174375118354
1.23433625634683,0.0282361340284553
1.23602006618272,0.029519589491563
1.23761754192637,0.0306997166737887
1.23918038830987,0.0317870070283616
1.24075337310248,0.03278189751389
1.24238916947226,0.0336782706400068
1.24417305623436,0.0344630758334
1.24631837221246,0.0351100573350899
1.24856095269299,0.0354301961591313
1.25080353317353,0.035407356942079
1.25263457078057,0.0351638259366562
1.25431244892154,0.0347890350363326
1.25594821536072,0.0343045424783344
1.25759860147371,0.0337137032481826
1.25896244457003,0.0331904953390127
1.26119451476268,0.0323228836204126
1.2635059645631,0.0313802338351356
1.26589263693856,0.0303317996985443
1.26837473423894,0.0291422235539526
1.2709743057095,0.0277821349004863
1.27371580061981,0.0262300004017918
1.27662742328947,0.0244733348074977
1.27928490223729,0.0228016333315892
1.28172159416314,0.0212365809801012
1.28404354829506,0.0197364102377375
1.28630616764298,0.0182821340131936
1.28854141202145,0.0168655207521368
1.29077059640337,0.0154828380053391
1.29300945017124,0.0141325043937654
1.29527048622105,0.0128140721726873
1.29756426263013,0.0115277466571964
1.29990015011891,0.0102741473665865
1.30228682660663,0.00905421982503161
1.30457749837582,0.00794243269167899
1.30675510249352,0.00693962968212382
1.30884426775921,0.00602724407740682
1.31087492151455,0.00518704619736134
1.3128871115166,0.00439981863079444
1.31494769857358,0.00364044128840038
1.31721671267138,0.00285910661884577
1.31933737541286,0.00218095015607043
1.32102075189727,0.0016785196529572
1.32270412838167,0.00120784055511893
1.32421406004414,0.000812588760477875
1.32564853705426,0.000460539085007616
1.32709949435115,0.000127474105755102
1.32866066282244,-0.000205373564477467
1.33049940462491,-0.000564160411195733
1.33326463392562,-0.0010383428148279
1.33642701690788,-0.00148982520085307
1.33913768620922,-0.00180586397571326
1.34185913614119,-0.00206363575332509
1.34503352674963,-0.00229752102516554
1.34817335371024,-0.00246777544283687
1.35110176274497,-0.00258044759119048
1.35394760895166,-0.00265444452701036
1.35680449545405,-0.00269939118098104
1.35911242742721,-0.00270211626844758
1.362119552576,-0.0026672509908049
1.36524574955633,-0.0025990622797842
1.36850584196702,-0.00250502863370701
1.37191801836702,-0.00238975854593261
1.37550074701105,-0.00225530666561233
1.37927586128333,-0.00210129240066311
1.38326905561728,-0.00192492133195165
1.38751078442311,-0.00172065567664838
1.39173804260641,-0.00149590327995588
1.39554489281732,-0.00127044360423005
1.39907389566662,-0.00103646371294234
1.40236282742381,-0.000790260046004968
1.4054256153804,-0.000528743271442781
1.40828251571968,-0.000247585360794641
1.41095966377815,5.89345358391753e-05
1.41348792660114,0.000398041898724107
1.41590749901598,0.000779468211603974
1.41827150751034,0.00121686083961665
1.42066013789612,0.00173182662312728
1.42323646543097,0.00236945729369583
1.42537335716176,0.00294802846557838
1.42751024889255,0.0035435385460932
1.42944890612962,0.00406953041426802
1.4313995468162,0.00455916971125017
1.43362225967215,0.00504753395762801
1.43651865754094,0.00556369635686264
1.43885376518361,0.00589609607684149
1.44118887282629,0.00618277155439518
1.44338896317796,0.00643977969597404
1.44560656023642,0.00671310953294776
1.4479470163276,0.0070431379492445
1.45038961764432,0.00745842627868923
1.45291818844027,0.00798924959930734
1.45547390921338,0.00865445942429535
1.45795597561073,0.00944887632334259
1.4602901917855,0.0103544452519553
1.46250909627711,0.0113846173616249
1.46461306140695,0.0125434782063643
1.46660772797891,0.0138385610293887
1.46850286857694,0.0152824034443089
1.47030831071366,0.0168913908682244
1.47203201175205,0.0186844203005851
1.47368170313232,0.0206844262072128
1.47526367345636,0.0229172924747127
1.47678409829646,0.0254136841537008
1.4782484179045,0.0282087346258263
1.4796621459281,0.0313441355672223
1.48103061076244,0.0348689212518287
1.48235927270814,0.0388417712778378
1.48365403095663,0.0433343623664863
1.48492135675025,0.0484354813527236
1.48616881039789,0.0542583834952528
1.48740585508883,0.0609532505355283
1.48864522186065,0.0687294225933294
1.48990600552996,0.0779024417063215
1.4912133288156,0.0889366506264929
1.49253084678905,0.101785669881833
1.49388737641841,0.116924051914761
1.49534057193467,0.135218543655618
1.49641393788275,0.149885273712148
1.49748730383082,0.165162222697027
1.49845671547669,0.179037453019425
1.49934952120333,0.191393001347916
1.50019417406151,0.202203445318513
1.50100811267688,0.211293519444434
1.50180365826294,0.218388790986565
1.50259121131488,0.22313285597791
1.50338152706126,0.225075524861534
1.50418877553909,0.223617889349164
1.50503963577803,0.21781364118145
1.5059667778112,0.20608839576094
1.50691227929828,0.188239039240196
1.50759728127123,0.171832563171601
1.50828228324418,0.152948028148057
1.50888369076796,0.134808016324221
1.50941833789936,0.11790178737905
1.50991139806149,0.102037625544123
1.51037778446564,0.0871093667719574
1.51082743996844,0.0730568580818037
1.51126822508664,0.0598301325854135
1.51170756335826,0.0473712841286385
1.51215415008439,0.0355947802260873
1.51262150156549,0.0243403920513435
1.51314146899502,0.0131797517281465
1.51359013739526,0.00471426218714495
1.51394405384367,-0.00121889641493589
1.51429797029207,-0.00652224671895727
1.51462481928478,-0.0108888571420167
1.51494498859592,-0.0147011894869176
1.51528999349588,-0.018329074812032
1.51565755276949,-0.0216891338765421
1.51604647760929,-0.0247288553883585
1.51645691554224,-0.0274210815272761
1.51688991722995,-0.0297535166020884
1.51734721214163,-0.0317029278035963
1.5178433861462,-0.0332585417148095
1.51833956015076,-0.0343211667881087
1.51885405559704,-0.0349921137693745
1.51940311244462,-0.0353119912428721
1.51999127207387,-0.0352890763951021
1.52062383842772,-0.034931127560578
1.52130907485456,-0.0342427753408845
1.52205539541683,-0.0332267244073095
1.52287312785494,-0.0318838213887718
1.52377556592157,-0.0302120069333021
1.52478063209019,-0.0282044239720385
1.52591439217793,-0.0258449667073662
1.52715452421609,-0.0232327140011281
1.52832896920904,-0.0207863189653175
1.52944373203443,-0.0185255131411258
1.53050493705128,-0.0164506476538472
1.53151636227407,-0.0145567066323148
1.53248033912614,-0.0128358013264768
1.53341823424179,-0.0112455264272769
1.53437758154029,-0.00970815407512767
1.53536009209077,-0.00822938739100656
1.53636817337647,-0.00681376537286464
1.53740453599929,-0.00546547956920704
1.53847229931363,-0.00418834164519332
1.53957511781187,-0.00298574797329675
1.54071734575042,-0.00186063518759795
1.54190425928197,-0.000815426345060391
1.54314236669533,0.000148033294851815
1.54443985772862,0.00102855450641792
1.54580728144436,0.00182570290588604
1.54725861973479,0.00253993204917858
1.54881309274184,0.00317277793132238
1.55046481205294,0.00371730156181089
1.55216101250594,0.00416280728416106
1.55392154343742,0.00452757136809994
1.5557683103164,0.00482787424163082
1.55773040559595,0.00507949086270375
1.55984894051771,0.00529849133645207
1.56218715864956,0.00550261476526272
1.56485524125713,0.00571425786318142
1.56809181828744,0.00596968116312565
1.57188514826567,0.00629323276654153
1.5759431971335,0.0066827926902321
1.58036261350682,0.00716161259588476
1.5846289424547,0.00767613535821251
1.58888307442299,0.00823851082584031
1.59309060191494,0.00884439803090685
1.59726219965357,0.00949823383294464
1.60139875579492,0.0102058426928358
1.60550554016573,0.0109757990644428
1.60968406876811,0.0118391408095209
1.61394374469084,0.0128152495257227
1.61832423192677,0.0139349961203293
1.62290250680157,0.0152472185391453
1.62787433824238,0.0168521063125689
1.63386824843021,0.0190382201709574
1.63789622831078,0.0206370928449835
1.64192420819135,0.0222845288997034
1.64538250736213,0.0236708753054239
1.6484869060815,0.024823626810536
1.65144127685044,0.0257725403830359
1.65437415793684,0.0265064484483172
1.65720515240359,0.0269640109870274
1.66005988238372,0.0271367071605601
1.663123247667,0.0269792094615644
1.66688518186258,0.0263136758410512
1.67049359845343,0.0252480931418783
1.67360509717523,0.0240662911771138
1.67622400934818,0.0229357513786657
1.67863481778044,0.0218219442366093
1.68094568720571,0.0207156275904748
1.68320590777217,0.0196182863829864
1.68544445812723,0.0185337988056182
1.68768110716049,0.0174665045303561
1.68993071038521,0.0164206805808855
1.69220517734498,0.0154004178910141
1.6945146630951,0.0144095372965224
1.69686814761163,0.0134516194211179
1.69927398523664,0.0125299606403341
1.70174009538665,0.011647629949403
1.70427431529749,0.0108074360699216
1.70688449973785,0.0100119782993325
1.70957872590256,0.00926365395802012
1.7123655077982,0.00856467380473386
1.71525383391066,0.00791713219983747
1.71825345217349,0.00732302379661876
1.7213750544498,0.00678430826050634
1.72463036972543,0.0063030009302463
1.72809594184221,0.00587410861441847
1.7318266147358,0.00550074520858425
1.73585506501515,0.00519115572055603
1.74021995116095,0.00495436175517421
1.74496609636251,0.00479969053182881
1.75014550796975,0.00473479770895785
1.75581798690715,0.00476008721562997
1.76127148524192,0.00484129670240884
1.76577087058813,0.00491331304350387
1.76974493887808,0.00494828566981755
1.77344558957787,0.00492816792225025
1.7770334707036,0.00483409984914236
1.78065526961898,0.00464073861905672
1.7845109529654,0.00430916315060554
1.78877166574271,0.00378082380909472
1.79343678823206,0.0030032191123772
1.79459475740787,0.00278012777347685
1.79575272658367,0.00255537234742268
1.79714256697298,0.00230105838736846
1.80016971604713,0.00179844373983667
1.80345113046002,0.00131478325345125
1.80700310166726,0.000841663735912283
1.8108842900165,0.000365660528513681
1.81458517394217,-6.03325673458319e-05
1.81803759854428,-0.000438841093026686
1.82125912072785,-0.000777051933101046
1.82426951414096,-0.00107920276689244
1.82708800677464,-0.00134801065227561
1.82973360423238,-0.00158564488575528
1.83222549199785,-0.00179421766185859
1.83458351875772,-0.00197597795629329
1.83682876677685,-0.00213332582677911
1.83898489736167,-0.00226876648321708
1.84108077849439,-0.00238484516195874
1.84315642050102,-0.00248411690893152
1.84527959027489,-0.00256925018574679
1.84761226218408,-0.00264371222888016
1.84978348596527,-0.00269548271590044
1.85195470974645,-0.00273102763338333
1.85369581167368,-0.00274840791729666
1.85522270329498,-0.002755960174932
1.85669584767742,-0.00275682230393882
1.85820864179635,-0.00275153474403761
1.85986784440748,-0.00273902399409615
1.86189628452299,-0.00271495402701321
1.86552411418256,-0.00265071102265181
1.86897701644048,-0.00256816958250298
1.87194637600034,-0.00248349486412143
1.87508229777699,-0.00238288919840135
1.87845028354913,-0.00226471754136198
1.88168091306157,-0.00214402440100471
1.88487064124064,-0.0020199632725925
1.88817717592801,-0.00188796025412694
1.8917183292001,-0.00174409419592907
1.89555909889669,-0.00158602020936727
1.89973809953021,-0.00141190505022507
1.90427554014682,-0.00121976879073165
1.90919730349781,-0.00100574317609067
1.91444784091739,-0.000766650513946794
1.91930970945972,-0.000528483931145161
1.92378085131333,-0.000287078498838754
1.92789034646103,-3.67064912375376e-05
1.93166778643191,0.000228972557678339
1.93514573797179,0.000519547989269119
1.93835609357803,0.000840809895659009
1.94133638723073,0.00119987063863724
1.94412610997903,0.00160584116455063
1.94677393254888,0.00207106897094766
1.94934219825585,0.00261299851571513
1.95192082065965,0.00325876568153143
1.95467610572169,0.00406037986417091
1.95686516025472,0.00476304699557174
1.95905421478775,0.00549592425340772
1.96111173050129,0.00618491419561706
1.96331829225544,0.00690028021324918
1.96644544419515,0.00785742201856893
1.96861019635447,0.0084936923924444
1.97077494851379,0.00913556133992989
1.97272740378826,0.00974701935143886
1.97461895691613,0.0103964956947713
1.97650018769488,0.011125918648097
1.97836226147429,0.0119587985952611
1.98021652597783,0.0129287626489084
1.9820285085666,0.0140455816957419
1.98379262530581,0.0153298864400154
1.98549272911987,0.0167914877893097
1.98712529352299,0.018445796325106
1.98868876427525,0.0203087181237363
1.99018531799023,0.0224004459769644
1.99161818806878,0.0247445657891887
1.99299174018821,0.0273697829620806
1.99431011399784,0.0303089834220983
1.99557784043705,0.033601492839841
1.99679916992316,0.0372928530563194
1.99797822046061,0.0414362376653986
1.99911920654232,0.0460947778583343
2.00022629645621,0.0513431574808941
2.00130376780364,0.0572708312416615
2.00235616558151,0.0639864968010006
2.00338846763512,0.0716243205194515
2.00440631899308,0.0803531136606287
2.00541644794319,0.0903910431784623
2.00642733519923,0.102029939859857
2.00745050377997,0.115679902251982
2.00850308564585,0.131958347454932
2.00956833025763,0.151019761347756
2.0106466944508,0.173213729558544
2.01175699002525,0.199275322140197
2.01293021601238,0.230340724748862
2.01412730293043,0.265415656709824
2.01520326846244,0.299132272645047
2.01612643535403,0.328834080524193
2.01695953747355,0.355326651441671
2.0177364520857,0.378819594806148
2.01847872267722,0.399201404248785
2.01920368335612,0.416172841357452
2.01992758511099,0.429227236806026
2.02066770168381,0.43755629768888
2.02144482005903,0.439859832505832
2.0222875448802,0.43394913950156
2.02315897924778,0.417875642285873
2.02404625405821,0.390654116890033
2.02496053876775,0.351117822977615
2.02563971756576,0.314576737567324
2.02631889636378,0.27268881941259
2.02688597462482,0.234544132130377
2.02735927026677,0.201351601492877
2.02777592631672,0.171808410829061
2.02815717241969,0.145078777721626
2.02851575716307,0.120667270433681
2.02886066301605,0.098234246612459
2.02919944499818,0.0775056749283368
2.02954004802232,0.0582108986205812
2.02989386016849,0.0399873277335267
2.03028672897819,0.0220409528121788
2.03062028574023,0.00870746689082123
2.03084008987301,0.0008532129669421
2.0310598940058,-0.00628972793297016
2.03126520399402,-0.0123473834836742
2.03147614421821,-0.0179853506271176
2.03170865566451,-0.0235537884627375
2.03195942108562,-0.0288525373904447
2.03226823100866,-0.0344456002236265
2.0325512316049,-0.0387607109290387
2.03284967701189,-0.0425716087377835
2.03316559809833,-0.0458826484470316
2.03350068351956,-0.0486945449306754
2.03385711312672,-0.0510143462894825
2.03423760819614,-0.0528528047615841
2.03464551230785,-0.0542223543921268
2.03508492194526,-0.0551355327654086
2.03556088108043,-0.0556036032775859
2.03607966769424,-0.055635183561306
2.03664922472512,-0.0552346751961415
2.03728117553635,-0.0543980866323835
2.03799016844976,-0.0531106193751685
2.0387967429788,-0.051341614974892
2.03973276541696,-0.0490310480202912
2.04085609614486,-0.0460516346534658
2.04224838109148,-0.0422234137918835
2.04358503658267,-0.0385231549429349
2.04487460020687,-0.0350037925648526
2.04612132767802,-0.0316898729717224
2.0473272510479,-0.0285925352669871
2.04849324996231,-0.0257153447991843
2.04961960867062,-0.0230569713415567
2.05070630784728,-0.020612649027271
2.05175317636649,-0.0183751159733775
2.05275996576585,-0.0163353060150646
2.05372637974298,-0.0144829045491919
2.05465207587681,-0.0128068138991845
2.05557141616531,-0.0112379794369554
2.05651418944959,-0.00972823216143853
2.05748196960769,-0.0082821140293364
2.05847687860239,-0.00690356163118618
2.0595014021145,-0.00559630618400239
2.06055848248024,-0.00436382058947492
2.06165163834118,-0.00320926699556911
2.06278512562575,-0.00213544134655577
2.06396415926647,-0.0011447145613055
2.06519522704903,-0.000238969637347171
2.06648654850381,0.00058046764815667
2.06784877255488,0.00131290779602733
2.06929609032777,0.00195839298824182
2.07084812148725,0.00251782409401632
2.07247916388573,0.00297975179209363
2.07415744096642,0.00334371401452371
2.07590132599074,0.00362627499618137
2.0777322903695,0.00384239516706431
2.07967907392889,0.00400632705845398
2.08178253112543,0.00413215595680529
2.08410579735627,0.00423468105449294
2.08675939226782,0.00433124996826599
2.08998453617076,0.00444726611959972
2.0937264154728,0.00460372618142861
2.09773855176798,0.00480911302613759
2.10202338445489,0.00507129762404253
2.10651063158116,0.0053865641129335
2.11123942431265,0.0057561021711775
2.11581340539666,0.00614613042668704
2.1203628096663,0.00656506338759441
2.12485607617904,0.00701147887610055
2.12931255590839,0.00749024018599953
2.13373534472479,0.00800580862282642
2.13812769795325,0.00856337319326887
2.14248388523728,0.00916760685863274
2.14680002711206,0.00982395545690593
2.15107534184406,0.010539072958618
2.15530643915847,0.0113201194795909
2.15951451996142,0.0121804786495872
2.16377441720003,0.0131497012143805
2.16809151304062,0.0142488946082375
2.17250809979001,0.0155142065097193
2.17711000367301,0.0170057978139214
2.18211824280429,0.0188531042791346
2.18746099501565,0.0210938793602093
2.19155228836071,0.0229832216429828
2.19564358170578,0.0249755087282
2.19911165119649,0.0266823242606623
2.20221633304841,0.0281573504672557
2.20516821104831,0.0294470534786491
2.20809966304068,0.0305530338789151
2.21092722247015,0.0313970971199599
2.21377574231089,0.0319797835314915
2.21682739865175,0.0322712311293119
2.21990916678928,0.0321997140391182
2.22264247535809,0.0318290395357127
2.22516974974233,0.0312364512269003
2.22759950443576,0.0304490103899932
2.23001971590817,0.0294618135973377
2.23241465216827,0.0282962190462791
2.23472050947194,0.0270090236943361
2.23697636440248,0.0256083069742007
2.23921058283557,0.0241016303045117
2.24144284458976,0.0224995565652544
2.2436879640287,0.0208157150848928
2.24595786676227,0.0190663919310639
2.24711029822642,0.0181688494024173
2.24826272969056,0.0172888640556806
2.25058800511867,0.0156139366520347
2.25298837370774,0.0140164177937817
2.2554497125195,0.0125051865127021
2.25797966227241,0.0110737850325875
2.26058643100159,0.00971624212924272
2.26327858924108,0.00842712593976491
2.2660652794927,0.00720141269714925
2.26895640202485,0.0060344765091118
2.27196290475787,0.00492217020702764
2.27509708311005,0.00386108734328244
2.2783729249417,0.00284904458442586
2.28158610989092,0.00194481582341315
2.2846100781449,0.0011691743624862
2.28745064860198,0.000504945561972189
2.29012170927611,-6.34283173641878e-05
2.29264106827213,-0.000549572711903178
2.29502955601755,-0.00096551569274276
2.29731087442776,-0.00132191369213978
2.29951286228009,-0.00162827985117806
2.30167141538415,-0.00189330122021577
2.30384105206414,-0.00212543672618483
2.30612997417815,-0.00233463717888824
2.30891052689755,-0.0025424088779425
2.3107557302468,-0.00265421880440535
2.31260093359606,-0.0027468591303705
2.31425957475034,-0.00281497878517103
2.31580079263533,-0.00286639255023335
2.31733235867229,-0.00290351142698342
2.31894875352092,-0.00292748517096896
2.32079299122446,-0.00293862891575426
2.3232788634578,-0.00293118525439568
2.32638706251922,-0.00289342530425485
2.32916838815211,-0.00283906396247373
2.33186116997843,-0.00277225734615922
2.33485987493746,-0.00268506077829882
2.33800362963723,-0.0025823757089946
2.34108512895844,-0.0024732128006191
2.34415295701054,-0.00235833849462742
2.34731901994103,-0.00223506177798416
2.35067950366583,-0.00210039893170571
2.3543286050925,-0.00195086032733932
2.3583143488192,-0.00178436637038024
2.36265949364429,-0.0015993170897963
2.36739530854723,-0.00139267058902828
2.37255660767071,-0.00115905804040256
2.3772538859913,-0.000934165256870509
2.3815993713862,-0.000710358318971459
2.38563006256328,-0.000482844118650892
2.38937344850156,-0.000245292286138491
2.39285126206906,8.74444928689839e-06
2.3960837510945,0.000282782853865022
2.39909912694092,0.00058204079893245
2.40192874408824,0.000913297397856315
2.40460933622459,0.00128518470001383
2.40718943723979,0.00170950353693398
2.40973499200963,0.00220311620514785
2.41235710481721,0.00279489978602988
2.41530857809932,0.00355051661202052
2.41797245693608,0.00427907030478196
2.42010822550652,0.00485972653963145
2.42221644230097,0.0054018337602755
2.42463875813524,0.0059654146068075
2.4278188333378,0.00660479553147111
2.43067882701951,0.00711166819743736
2.43297824127883,0.00750766415697129
2.43516767240411,0.00790563873515054
2.43737596567273,0.00835494771244076
2.4395890043004,0.00887954909751483
2.44180193454151,0.00950401066350837
2.44398878001555,0.0102446945695452
2.44613054910693,0.0111156419332303
2.44820787873007,0.012126421957175
2.45020360859891,0.0132826750689593
2.45210938758663,0.014590563190879
2.45392530685901,0.0160598677890787
2.45565692700627,0.0177055249781025
2.45730961272316,0.019544931894375
2.45889003290596,0.0216003007300823
2.46040398529248,0.0238971200105882
2.46185702726741,0.026465299091392
2.46325453967701,0.0293400032138558
2.46460146375646,0.0325619363273269
2.46590269450567,0.0361791065024349
2.46716314994722,0.0402485295061307
2.46838781171584,0.0448383389415633
2.469581909702,0.0500311039935224
2.47075132479539,0.0559295586548962
2.47190278645332,0.0626637961433277
2.47304453193393,0.0704043715408104
2.47418739551345,0.0793852697681229
2.47534706993399,0.0899498603173677
2.47654943200661,0.102657131712085
2.4777601784587,0.117456972376771
2.47899718495623,0.134801674721659
2.48029776525896,0.155478057217899
2.48141304151472,0.175021049657608
2.48252831777048,0.195835681944821
2.48351820885505,0.214840627871135
2.48441939116309,0.231984534180952
2.48526716169722,0.247361768116617
2.48608083122885,0.260803021252676
2.4868727806495,0.271994166237358
2.48765246606426,0.280522512104008
2.48842842903483,0.285882759529306
2.4892099190949,0.28745401793356
2.49000936896095,0.284427520469924
2.49085175952604,0.275539458300519
2.49175485058278,0.259007624374069
2.49267460482921,0.234603280552526
2.49332862503169,0.212891910099921
2.49398264523417,0.188100377391403
2.49455194336561,0.164615458855178
2.49505093165879,0.143127872837067
2.49550608987406,0.123258691784319
2.49593307542974,0.104775918122595
2.496342107472,0.0875383930739448
2.49674106973106,0.0714366730057984
2.4971372276222,0.0563633392898851
2.49753892372739,0.0421844112624466
2.49795903197493,0.0286764126539688
2.49842840670082,0.0152673816633809
2.49881289178733,0.00561674937958518
2.49910678429044,-0.000969741013619209
2.49940067679355,-0.00689906365166177
2.49967341418029,-0.0118419474100928
2.49994951458643,-0.0163283079790134
2.50024879678358,-0.020642004519499
2.50056857244694,-0.0246682854372421
2.50090751094785,-0.0283376812999133
2.50126560169012,-0.0316142319977754
2.50164372021223,-0.034468503770783
2.50211968108241,-0.0372612258243497
2.50253429589434,-0.0390745335720611
2.50297384878931,-0.0404714561182849
2.50344246279055,-0.0414651831328766
2.50394397120152,-0.0420648648710421
2.50448297413566,-0.0422793584412176
2.50506502975283,-0.0421164130938872
2.50569747504124,-0.0415812539497414
2.50639024256181,-0.0406739001460287
2.50715468499128,-0.0393901978124851
2.50800581303216,-0.0377197830092942
2.50896455468758,-0.0356421883760214
2.51006271891658,-0.033118009545405
2.51135677944713,-0.0300629728630693
2.51260622344283,-0.0271146305614188
2.51379855801382,-0.0243565089369925
2.51493971345265,-0.0217995148348193
2.51603338449216,-0.0194443880957949
2.51708173958731,-0.0172867756134082
2.51808605585696,-0.015319232019736
2.51904706123098,-0.0135324054764142
2.51996511388967,-0.0119158323095429
2.52090305040435,-0.0103572091574712
2.52186434773083,-0.00885806010779083
2.52285106940877,-0.00742267699734704
2.52386560190392,-0.00605507695643264
2.52491072290696,-0.00475898988483243
2.52598970822039,-0.00353781389930751
2.52710647207457,-0.00239456534442681
2.52826575652517,-0.00133182274832018
2.52947339440356,-0.00035166462229022
2.53073668602402,0.000544401601873246
2.53206495884029,0.00135552374196007
2.53347043589444,0.00208160948001403
2.53496965797875,0.00272346808534266
2.53658597897176,0.00328302213595998
2.53824632017568,0.00373774442321789
2.53996290975944,0.00410384079250683
2.54175508100754,0.00439749730015332
2.54364779925612,0.00463403507280298
2.54567534652443,0.00482853124650153
2.54788832784366,0.00499670795336692
2.55036940511282,0.00515661562632134
2.55327739051727,0.00533291018455532
2.55703682417415,0.00557423204545181
2.56087886206718,0.0058552163514788
2.56522811087042,0.0062221727662754
2.56970737388538,0.00665165525513651
2.574090650462,0.00711788912863908
2.57845099371008,0.00762398213733716
2.58277398392969,0.0081680385111436
2.58706885276246,0.00875380836053134
2.59133637819116,0.00938627427360577
2.59557665576705,0.0100718548099536
2.59978693073041,0.0108176428442965
2.603989725911,0.0116367933181484
2.60825425522271,0.0125561130069653
2.61257953376725,0.0135933482283714
2.61700688645455,0.0147807783687961
2.62162977903665,0.0161744921039379
2.62669360950975,0.017898812803755
2.63256914383691,0.0201592654499864
2.63643461575195,0.0217719825771944
2.64030008766699,0.0234300108831864
2.64368156596968,0.0248532217012651
2.64675130802182,0.0260556482962037
2.64969330647034,0.0270620325583679
2.65259979641226,0.0278535844557159
2.65542143601116,0.0283785757233162
2.65828716369752,0.02863099763393
2.66139782258893,0.0285694679438176
2.66536262246017,0.0280108124030863
2.66886325611074,0.0271415484725018
2.67184644378879,0.0261949817178404
2.6744151423,0.0252791235959484
2.67680121612209,0.0243805104887713
2.67909716362121,0.0234989748086836
2.68134760967279,0.0226396828633996
2.68357958805624,0.0218084157433443
2.6858118658429,0.0210103066913121
2.68805869992254,0.020249247421923
2.69033165081349,0.0195273323304781
2.69264063461739,0.0188441348351002
2.69499452131526,0.0181957896341235
2.69740159349564,0.017573848755739
2.69986980503952,0.0169640652463892
2.70240706502328,0.0163453272290286
2.70489169078069,0.01572270227022
2.7073640845258,0.0150615248049697
2.7099265626593,0.0143081767317145
2.71275114490418,0.013375075977555
2.71573596933922,0.0122589549394644
2.71884444531448,0.0109592866612867
2.72192220163656,0.00955873568900849
2.72352129430029,0.0087984608519246
2.72440990765489,0.00836939864649728
2.72529852100949,0.0079470526224817
2.72788513430724,0.00681173249782242
2.73056680410514,0.00576482055005734
2.73339900366726,0.00477971377043514
2.73641277572905,0.00384461483968936
2.7396445186501,0.00294867329129446
2.7431393195136,0.00208114471782014
2.74687096757076,0.00124881770453336
2.75038546931056,0.000537466389313285
2.75368531173116,-7.64316941857075e-05
2.75678484645613,-0.00061063449356716
2.7596972074988,-0.00107716838087804
2.7624359472639,-0.00148468353096617
2.76501649329804,-0.0018400079599264
2.76745673148999,-0.00214658282734938
2.76977716730224,-0.00240531464300741
2.77200147967868,-0.00262398007280928
2.77415857363343,-0.00280942043849879
2.7762879452476,-0.00296731974750425
2.77845433356749,-0.00310283865997764
2.78080409069494,-0.00322193705615599
2.7831449686387,-0.00331280765569815
2.78494935119466,-0.00336482540124331
2.78675373375062,-0.00340200696812414
2.78835991624799,-0.00342333505532448
2.78987449591781,-0.00343391542670578
2.79139802094643,-0.00343582575458507
2.79302741638655,-0.00342886034565557
2.79492732779279,-0.0034099469147549
2.79767769349999,-0.0033642253572361
2.80085243501964,-0.00328833629159798
2.80361004456373,-0.0032057021180872
2.8063597185984,-0.00311064370597657
2.80947812416175,-0.00299053808106403
2.81255278724173,-0.00286222779732999
2.81556860559516,-0.00272946310664399
2.81859606257773,-0.0025915245347974
2.82173592760363,-0.00244537406580879
2.82506802119782,-0.00228832080636374
2.82866958968169,-0.00211740987706395
2.8325729580766,-0.00193144339161008
2.83679519051904,-0.00172936059725655
2.84136291224846,-0.00150854296060599
2.8463097734032,-0.00126397883757361
2.85109307415635,-0.00101708972567806
2.85551978047649,-0.000773110206658008
2.85961644749141,-0.000526640915595597
2.86340849787868,-0.000272196985602029
2.86692175486853,-2.80077430818021e-06
2.87018182514524,0.000289304213074058
2.87321547761389,0.000609457282397287
2.87605746369377,0.000964932598574056
2.87874725040258,0.00136516517348039
2.88133408618535,0.00182283439688623
2.88388779141797,0.00235672911061058
2.88652541638862,0.00299927867665783
2.88951101107332,0.00382412411095329
2.89205555304056,0.00457359630323699
2.89415689634718,0.00519034755607862
2.89628036993001,0.0057846867432979
2.89881748929516,0.00643657787860485
2.90140844065146,0.00703751578053095
2.90399939200775,0.00759726786794321
2.90623692362376,0.00807925669755898
2.90834310951185,0.00856167179464826
2.91040293452102,0.00908743951844893
2.9124616823827,0.00969229557722448
2.914504128626,0.0103966977252068
2.91653434588348,0.0112268579233029
2.91853319857592,0.0121997544195158
2.92047435652398,0.0133239318323989
2.92233988742891,0.0146055666092712
2.92412547139862,0.0160552286706637
2.9258304397423,0.0176850238926096
2.9274584781123,0.0195115378501307
2.92901452822404,0.0215551350934189
2.93050400532564,0.0238403433875007
2.93193202635443,0.0263956588998183
2.93330382616338,0.0292549847499948
2.93462416355409,0.0324574120017422
2.93589775725969,0.0360489974781872
2.9371292162406,0.0400839357484835
2.9383231176255,0.0446264103951214
2.93948416994805,0.0497533904417697
2.9406174310627,0.0555587892399731
2.9417284417741,0.062158812334849
2.9428235941462,0.0697008449113335
2.9439106956095,0.078377869155456
2.94499998408782,0.0884539829705378
2.94610606833303,0.100313392420342
2.94725252144711,0.11457144165908
2.94840464626145,0.131141030009472
2.94957973740813,0.15052902133206
2.95080845681015,0.173540324925706
2.95215285126708,0.201688120131306
2.95330468080391,0.227715552406449
2.95428349994322,0.250542747323655
2.9551748855753,0.271200117734836
2.95601442214533,0.289827957858965
2.95682016506425,0.306212157524785
2.95760419559637,0.319988460388472
2.95837639997917,0.330688614186971
2.95914613537134,0.337732166145004
2.95992335145191,0.340385452637199
2.96072015351659,0.337678670164399
2.96155716797953,0.328171756708246
2.96245068862503,0.309845454811241
2.96335657110069,0.282359010505458
2.96405868647809,0.255107092639323
2.96476080185549,0.223292918397085
2.96534306851505,0.194208462350255
2.9658375006336,0.168278520498876
2.96628003415032,0.144676508843328
2.96668983872213,0.122955024163941
2.96707855261947,0.102858901220087
2.96745462373968,0.0842068093029298
2.96782535637424,0.0668410259886975
2.9681985478527,0.0505910572780752
2.96858525814251,0.0352116211851499
2.96900916691415,0.0201650163427351
2.96942026949307,0.00740812358453867
2.96968284253612,0.000186346447043451
2.96994541557917,-0.00634237587049463
2.97018950633814,-0.0118182781991705
2.97043554291321,-0.0167906874513803
2.97070430731162,-0.0216341557118374
2.97099271735558,-0.0261991384839848
2.9712991008766,-0.0303938779164434
2.97162317879189,-0.034157767977966
2.97197510261673,-0.0375338656990385
2.97233006991361,-0.040284502967529
2.97270590955534,-0.0425808913971615
2.97310518813753,-0.0444310673929121
2.97353079588274,-0.0458439947481904
2.97398624452696,-0.0468298797271584
2.97447579069841,-0.0473989216252295
2.97500461386255,-0.0475602249838407
2.97557907453434,-0.0473207506486653
2.97620792837395,-0.0466831131087236
2.97690251720468,-0.0456430138335628
2.97767689907009,-0.0441889219065665
2.97855060304707,-0.0422977090641221
2.97955295973243,-0.0399254862996231
2.98073449419369,-0.0369828850639091
2.98205814340305,-0.0336219681923148
2.98332480462717,-0.0304245881683327
2.98454024055806,-0.0274252686995381
2.98570898148721,-0.0246349925114305
2.98683352280467,-0.0220558575105418
2.98791522560967,-0.0196847440305116
2.98895481385942,-0.0175151792723986
2.98995263641964,-0.0155384796746178
2.99090880237402,-0.0137445379596396
2.9918232445701,-0.0121224088567073
2.99275486659652,-0.0105648031730937
2.99371012105276,-0.00906743455006454
2.99469094896027,-0.00763451211220988
2.99569964713745,-0.00626996385325227
2.99673890484955,-0.00497746587290935
2.99781190650723,-0.00376039364387198
2.99892246693611,-0.0026217696128428
3.00007521442267,-0.00156420645967173
3.00127584495554,-0.000589845545353962
3.00253148607757,0.000299711647452851
3.00385123625639,0.00110348162694752
3.00524699911373,0.00182119369049217
3.00673484343475,0.00245341293978601
3.00833737500846,0.00300171784381099
3.00998861964402,0.00344563142614967
3.01169454309297,0.00379900442724237
3.01347406600371,0.00407785529279595
3.01535132865289,0.00429720171696793
3.01735932635073,0.00447165943067942
3.01954640451091,0.00461619312203449
3.02199062458132,0.00474748294222449
3.02483892850177,0.00488723963281984
3.02846563669579,0.00507474419198292
3.03227205884437,0.00530232770580954
3.0365312963173,0.00560174283977218
3.04119054892804,0.00597988798633459
3.04565210451892,0.0063855801087348
3.05011057884896,0.0068288650781548
3.0545156436343,0.0073031668837126
3.05888926279024,0.0078118930403582
3.06323152505205,0.00835853382106586
3.06754670068678,0.00894853325407584
3.07183417007906,0.00958774361424051
3.07608928865984,0.0102821953020163
3.08030282930547,0.0110377935395706
3.08452633071328,0.0118734871757646
3.08880020909621,0.0128114378075812
3.09314470171228,0.0138747382245434
3.0976128166356,0.0151006349605989
3.10232181144048,0.0165559506495035
3.10761217731094,0.0184062697383968
3.11332915715505,0.0206514790809906
3.11697845312951,0.022183424721567
3.12062774910396,0.0237358134064689
3.12389626309302,0.0250798200313798
3.12691661768647,0.0262159145131457
3.1298477140508,0.0271555212009587
3.13271999230314,0.0278608047888079
3.13553891476618,0.0282984334080059
3.13844320490204,0.0284545834970504
3.14167746926928,0.0282675693878521
3.14567229520314,0.0275513787963476
3.14903722296949,0.0266070868986365
3.15187756082464,0.0256337655878797
3.15438787908639,0.0246850495216927
3.15674645096447,0.0237508403373733
3.15902827795006,0.0228325788262972
3.1612722213831,0.0219355400881583
3.16350278661736,0.0210654923201637
3.16573742202793,0.0202277779541093
3.167989608202,0.0194269096925165
3.17027044633181,0.0186661920308525
3.17258955851219,0.0179472399181955
3.17495565522462,0.017269318397676
3.17737693057198,0.0166284647512433
3.17986132746682,0.0160164090360055
3.18241679563484,0.0154193625956787
3.18505144771978,0.0148169436344836
3.18769085378006,0.0142014651523549
3.19031690487092,0.013551082895395
3.19304104939724,0.0128110789639688
3.19605343858233,0.0118919696896946
3.19920356586006,0.0108042806082757
3.20249443869225,0.00953471796209507
3.20570280343441,0.0081896123027827
3.20710156536503,0.00757883839692795
3.20850032729565,0.00697837216314448
3.21001541362011,0.00636923862757937
3.21269359106201,0.00538767386582013
3.21554956329427,0.00445523289695273
3.21859190892026,0.00356873982323314
3.2218573556246,0.00271714585890552
3.22539231607032,0.00188940493051031
3.22902653482476,0.00112066598736366
3.23243789243697,0.000461275460999381
3.23563444368385,-0.000109978999907772
3.2386333151718,-0.00060887968451877
3.24145106392181,-0.00104636507303862
3.24410457748419,-0.00143045519983659
3.24661197417833,-0.00176336761660021
3.24899327351546,-0.00204757678511786
3.25127131992022,-0.00229140478198656
3.25347372009669,-0.00250162079698886
3.25563706408273,-0.00268384319490962
3.25781853710542,-0.00284327383715044
3.26013626561173,-0.00298603126024214
3.26303695424811,-0.00312667457111045
3.26484157841121,-0.00319348925823987
3.26664620257432,-0.00324510828082021
3.2682821968979,-0.00327936414789432
3.2698200735571,-0.00330125006008522
3.27136154558413,-0.00331371783958136
3.27300360841486,-0.00331722609933772
3.27490564453065,-0.00330962516409575
3.27759531945707,-0.00327962526795494
3.28086923394005,-0.0032167657306662
3.28369639469758,-0.0031429535067396
3.28647591925555,-0.00305586272310429
3.2896033372644,-0.00294393021846354
3.29267915562509,-0.00282258249486742
3.29569796443105,-0.00269544311368539
3.29872926190545,-0.00256214360289673
3.30186891139109,-0.00242011367357358
3.30518661242723,-0.00226726306343675
3.30875519964784,-0.00210092027440342
3.31260488177834,-0.00191999780270978
3.31675242609666,-0.00172348301743813
3.32122291188479,-0.00150896728475892
3.32604854128653,-0.00127184880263148
3.33090211710292,-0.00102285060865194
3.33539673830635,-0.000776385211107094
3.3395460768276,-0.000527687471646301
3.34338059866003,-0.000270978105956255
3.34692960607599,-2.38428228297899e-07
3.35021932029684,0.000292297465308027
3.35328204543386,0.000614639674992532
3.35615187504457,0.000973772336220446
3.3588692358299,0.00137902569591023
3.36148711354217,0.00184355180203896
3.36407777023386,0.00238655594076403
3.3667638267426,0.00304155044156165
3.36983935286974,0.00388922400760714
3.37235617876801,0.00462425598507021
3.37447923110265,0.00523913588583709
3.37666424004746,0.00584088598763804
3.37935509560183,0.00651970078264393
3.38182275400744,0.0070859470944268
3.38429041241305,0.00762197811925653
3.3865198360767,0.00811037321477992
3.38863695009928,0.00860704446648631
3.39070599958836,0.00915042241346555
3.392762324298,0.00977326954620695
3.39480646828457,0.0105003569588849
3.39683277401121,0.0113546142593836
3.39882128676693,0.0123515418607421
3.40074996441433,0.0135006626360658
3.40260205758026,0.0148082634853816
3.40437416331156,0.0162853799220995
3.40606660927248,0.0179451254500328
3.4076830663903,0.0198045681337244
3.40922863169297,0.0218848932145362
3.41070857365034,0.0242112057527646
3.41212801241088,0.0268128693594896
3.41349209032126,0.0297246225220046
3.41480551231882,0.0329865600530068
3.41607300691946,0.0366460850284578
3.41729916785457,0.0407589331357451
3.41848858409115,0.0453912356750374
3.41964604557195,0.0506226702352213
3.42077669077158,0.0565505956353703
3.42188621343079,0.0632960639135278
3.42298124170904,0.0710134128872153
3.42407001059554,0.0799065530456105
3.42516345908615,0.0902573592106807
3.42627756172706,0.102482844925391
3.42742705500383,0.117106459139295
3.42858435997943,0.134108641602274
3.4297696731736,0.154048145283482
3.43101788666884,0.177819295597618
3.43236580838344,0.206362836499906
3.43347080153956,0.231387457169593
3.43442605302854,0.253515962376479
3.43530435267521,0.273571319678161
3.43613570689324,0.291584098540901
3.43693631656982,0.307299671889277
3.43771752798652,0.320330731527697
3.43848892515602,0.330188059937676
3.43925980335279,0.336265727828828
3.44004031461348,0.337794291639857
3.44084335836767,0.333744337927494
3.44169349103286,0.322511809335799
3.44258869421805,0.302382512479039
3.4435001775324,0.272975893716642
3.44415310627599,0.246684518248946
3.44480603501958,0.216646498867179
3.44536717733596,0.188544519265031
3.44585143096009,0.16324521647311
3.44628823435935,0.140135021199214
3.44669470943261,0.118832005807995
3.44708171446249,0.0991043298461513
3.44745737872511,0.080780588615416
3.44782896531557,0.063706082393824
3.44820456335646,0.0477058591365927
3.44859633164577,0.032512283183486
3.44903281026865,0.0174795666659553
3.44939609153348,0.00650168300108518
3.44965806652956,-0.000570939211455757
3.44992004152565,-0.00696454705395299
3.45016377201651,-0.0123314404070385
3.45041342216893,-0.0172796237429027
3.45068545655136,-0.0220793584150257
3.45097692677512,-0.0265885561032425
3.45128633940943,-0.0307218073040602
3.45161353207073,-0.0344208997380198
3.45196181143545,-0.0376708608682385
3.45231959166861,-0.0403658458221195
3.45269857545117,-0.0426091740463921
3.45310128719082,-0.0444083491359947
3.45353067002119,-0.0457724427094434
3.45399029790931,-0.0467116499146778
3.45448450185083,-0.0472360627695483
3.45501855291484,-0.0473545997669487
3.45559892788762,-0.047073964340833
3.45623472925366,-0.046396147379074
3.45693739187921,-0.0453163718455686
3.45772132399253,-0.0438224740121033
3.45860663214713,-0.0418903114258415
3.45962374827359,-0.0394740293819765
3.46082587430976,-0.0364791560313254
3.46214207365047,-0.0331457385573142
3.46340201773032,-0.0299801600274618
3.46461113628115,-0.0270141630919264
3.4657737340617,-0.0242574620871495
3.46689219387449,-0.0217113968583456
3.46796782035662,-0.019372351449966
3.46900130870556,-0.0172335167702492
3.46999299190195,-0.015285984804503
3.4709429678192,-0.0135195091668907
3.47185566586907,-0.0119153799868754
3.47279100198088,-0.0103669199831368
3.47375020043712,-0.00887940303599989
3.47473529511673,-0.00745693412412244
3.47574863938184,-0.00610341032242675
3.47679299326611,-0.00482246831061186
3.47787163019246,-0.00361743574162041
3.47898847854672,-0.00249127847704239
3.48014831396017,-0.00144654317741142
3.48135702752037,-0.000485295066885405
3.48262201154077,0.000390951640846769
3.48395273486065,0.00118131374706299
3.48536163921689,0.00188563686025176
3.48686561420269,0.00250462424827816
3.4884853680785,0.00303908164188496
3.49014399034285,0.00346742583124581
3.4918602986975,0.00380788226784538
3.49365356991375,0.00407618419578376
3.49554907433357,0.00428724157929611
3.49758167766682,0.00445565296640038
3.49980313508628,0.0045965161149581
3.50229863696277,0.00472695877999263
3.50523399399474,0.00487005989089523
3.50898856138728,0.00506687532817085
3.51283778671961,0.00530209515005093
3.51720798636476,0.00561564742421436
3.52180740755199,0.00599461141472225
3.52626899725947,0.00640411542542969
3.53071474762902,0.0068490420748307
3.53511639093031,0.00732535444442036
3.53948928743825,0.00783618807549656
3.54383410244936,0.00838530092943806
3.54815222752203,0.00897788645240119
3.55244022321369,0.00961944220623478
3.5566908590053,0.0103155933623447
3.56089445383461,0.0110721210620136
3.56513127751271,0.0119139055230878
3.56941656852708,0.0128591263272121
3.57378232460324,0.0139340793254499
3.57829212297513,0.0151800222536147
3.58309405266229,0.0166754662982265
3.58866816444889,0.0186412082431699
3.59424052182906,0.020828438274328
3.5977280718787,0.0222664177369819
3.60121562192834,0.0236973772154153
3.60438454383632,0.0249271229124047
3.6073623455037,0.0259545528842577
3.61029243493551,0.0267785047346806
3.61313556198012,0.0273434776980312
3.61596327412401,0.0276329106739762
3.61893265469781,0.0276182529784949
3.62237500320915,0.0271927405614252
3.62628301685079,0.0262312356381076
3.62952753006573,0.0251227056809967
3.63223625468611,0.0240411075989682
3.63468657140624,0.0229807458402292
3.63701513799531,0.0219303904702424
3.63928146022469,0.0208911626416886
3.64151861090436,0.0198674317202382
3.6437483743771,0.018864242764383
3.64598671534633,0.0178866672817356
3.64824622595073,0.0169396389432921
3.65053745995821,0.0160278953603454
3.65286968679046,0.0151559746888574
3.65525140759052,0.0143282007862528
3.65769069131076,0.0135486675117536
3.66019543802515,0.0128211903876339
3.66277360497948,0.012149208545876
3.66543336957723,0.011535618981485
3.66818334814654,0.0109824673521472
3.67103274759616,0.0104904556884524
3.67399158338644,0.0100581288879557
3.67707092964281,0.00968061159178546
3.68028314885369,0.00934774305538554
3.68367158881382,0.0090389214058962
3.68700746217714,0.00874681313817427
3.69016264444723,0.00845056841626663
3.69325660582039,0.00811219948201904
3.6964161533271,0.00769088476895631
3.69983115140925,0.00712494948434688
3.70383144073082,0.00629722079645421
3.70834928197185,0.00515271292803208
3.71026303810709,0.0046091990964611
3.71091646703497,0.00441703062618936
3.71156989596285,0.00422877441418052
3.71430524233259,0.00350026872504334
3.71724406777777,0.00280769174968915
3.72038436100189,0.00214794378963098
3.72376596494521,0.00150860124176374
3.7272563332386,0.000911702009028578
3.730523372877,0.00040675936946488
3.73357793860987,-2.98298845568466e-05
3.73644168085175,-0.000414641082538754
3.73913601288506,-0.000757861715424663
3.74168250287881,-0.0010661146671261
3.74410379363541,-0.00134411796222429
3.74642501270579,-0.00159564877666684
3.74867644990484,-0.00182415355248598
3.75089953300114,-0.00203327733387118
3.75316289040949,-0.0022277334732083
3.75562367713831,-0.00241628258126852
3.75801889586855,-0.00257549499076881
3.75989540941574,-0.0026828452164461
3.76177192296293,-0.00277468533355173
3.76344196717284,-0.00284339551572068
3.76501859622864,-0.00289715720642683
3.76660639714404,-0.00294065194937396
3.76830728626378,-0.00297578070951872
3.77029683737043,-0.00300251204483222
3.7732145434305,-0.00301568226490918
3.77669561745262,-0.00299518878652471
3.77964328943138,-0.00295121536148306
3.78256617299659,-0.00288727202482133
3.78581673098189,-0.00279647937191415
3.78894855579519,-0.00269329337003056
3.79200887394305,-0.00258098985077726
3.79509031667041,-0.00245930184600456
3.79827672258166,-0.00232676516127375
3.80161585783263,-0.00218252474086495
3.80515730759033,-0.00202510411290216
3.80892011591855,-0.00185389207027016
3.81292088201143,-0.00166780867816521
3.81718273519079,-0.0014645333512904
3.82173491477555,-0.00123981560012116
3.82661325342123,-0.000986124375202214
3.83119379994175,-0.000728872951862263
3.83541052069027,-0.000467242475823232
3.83929493496691,-0.000195209454486338
3.84287811367033,9.35945992312725e-05
3.84619598703092,0.0004063964259591
3.84928471686076,0.000751188220060416
3.8521844233876,0.00113732896156355
3.85494480492536,0.00157816220482712
3.8576291579648,0.00209042317284686
3.86032993834103,0.00269855760713626
3.8632166685192,0.00344894764689425
3.86556169519635,0.00411779809364651
3.86790672187349,0.00481079008741241
3.87009535162632,0.00545130684704463
3.87243462190808,0.00610529541953987
3.87562619829892,0.00693157762344951
3.87792469416464,0.00749194557020739
3.88022319003036,0.00804921133224154
3.88237765015656,0.00859722519735872
3.8844416635278,0.00917357304173614
3.88644888683432,0.00980884071387824
3.88844811957242,0.0105413897398117
3.89043174320859,0.0113944298660446
3.89237982296442,0.0123842965258557
3.89427793382351,0.0135261797434027
3.89610705104638,0.0148277493274357
3.89786126958364,0.0163005554766556
3.89953978671532,0.017958568849835
3.90114422136623,0.0198181157575573
3.90267913961298,0.0219005374250966
3.90414892739653,0.0242301933896426
3.90555869783204,0.026836652765506
3.90691322581882,0.0297541019221802
3.90821713591784,0.0330224268508522
3.90947506927143,0.036688714795057
3.91069147716308,0.0408080793884369
3.91187087713122,0.0454460708263332
3.91301793874648,0.0506814136036873
3.91413758857373,0.0566097340816434
3.91523522977469,0.0633492537428673
3.91631713940472,0.0710500582063455
3.91739091020116,0.0799079507179598
3.91846640375151,0.0901894915704761
3.91955756324073,0.102279744743208
3.9206865789358,0.116788296527605
3.92182326487118,0.133682596058563
3.92298068337153,0.153429704043943
3.92418680388393,0.17681255424822
3.9254958255565,0.205241883274556
3.92667910108982,0.233136092904048
3.92767377732359,0.257505341369306
3.92857255755906,0.279523209160092
3.92941519735851,0.299422722277209
3.93022120573671,0.31701749524595
3.93100349786153,0.331956789398511
3.93177268296443,0.343781763091407
3.93253881516851,0.351914986321024
3.93331244203836,0.355613736351076
3.93410588605357,0.353884105746738
3.9349377706792,0.345280810163401
3.93582864731123,0.327658413291158
3.93672979827271,0.300602785198413
3.93766101065777,0.263153933465507
3.9382302811178,0.236043934246442
3.93879955157782,0.206411887460927
3.93930085925513,0.17889006187188
3.93974667918013,0.153889589084995
3.94015649303261,0.130973241340317
3.94054296728741,0.10983481454876
3.94091505465961,0.0902605140248723
3.94128019114298,0.0720734589818264
3.94164592418279,0.0550944437477569
3.94202228475168,0.0390858533175496
3.94242883346478,0.0235802634796857
3.9429434851669,0.00666701634652571
3.94319439780054,-0.000500215462416835
3.94344531043419,-0.00699203514028559
3.94368058284976,-0.0124936594586639
3.94392223306739,-0.0175865192653866
3.94418606130018,-0.0225421445610588
3.9444690383403,-0.027208556174024
3.94476961195076,-0.0314930432038643
3.94518989591647,-0.0364215742350104
3.94552689047832,-0.039587377642493
3.94588164464301,-0.042272723645556
3.9462578805635,-0.0444989195296017
3.94665812187892,-0.0462736964417648
3.94708543963965,-0.0476069461020203
3.94754356736025,-0.0485093782251391
3.94803704300043,-0.04899128251205
3.94857141609161,-0.0490614155681139
3.949153550289,-0.0487258688782723
3.94979331639921,-0.047985019321047
3.95050283303043,-0.0468318834733487
3.95129791376611,-0.045250502037024
3.95220115284844,-0.043209909912035
3.9532480831399,-0.0406504980035187
3.95450544933522,-0.0374424928846378
3.95582061740969,-0.0340456788179011
3.95708210153215,-0.0308229955628065
3.95829489902464,-0.0278027330055698
3.95946262902484,-0.0249940975855673
3.960587244907,-0.0223983767215117
3.96166977429936,-0.0200120564466898
3.9627107271211,-0.0178284675784573
3.96371031034346,-0.0158388245855469
3.96466853709584,-0.0140329602218309
3.96558527509398,-0.0123998840945336
3.96651414997438,-0.0108404046357572
3.96746661931058,-0.00934096833166058
3.96844454330553,-0.00790585358935623
3.96945017913261,-0.00653899065995518
3.97048617016082,-0.00524406892768643
3.9715556464014,-0.00402448733014571
3.9726623562214,-0.00288330211775917
3.97381084436004,-0.00182317065994972
3.97500669873288,-0.000846290824766273
3.97625690279577,4.56659297972482e-05
3.97757035630982,0.000851629749613981
3.97895867774299,0.00157122210913614
3.980437506084,0.00220487058641221
3.98202875685269,0.00275397087882704
3.98367531298924,0.00319999707142708
3.98537490435695,0.00355379282361197
3.98714629008553,0.00383144842712471
3.98901298930997,0.00404791896956595
3.99100699422691,0.00421766908213145
3.99317485837838,0.00435535977052769
3.99559099033983,0.00447706302723447
3.99839305571557,0.00460310428126254
4.00191835845826,0.00476822311098131
4.00570513743886,0.00497386461320163
4.0099016518943,0.00524416614976642
4.014617806054,0.00559783779113872
4.01909853081799,0.00597632894245049
4.02359648198527,0.00639211635324194
4.02804420779998,0.0068367192270549
4.03246928770173,0.00731318057232263
4.03686720263381,0.0078238440265204
4.04123793876423,0.00837295986707381
4.04557491585145,0.00896494489116662
4.04986900624355,0.00960450888470978
4.05410946526767,0.0102966392877574
4.0583056629039,0.0110504608125434
4.06254956466954,0.0118939576765783
4.06684744623707,0.0128447335275784
4.07124064305302,0.0139324218727214
4.07580734010826,0.0152041654112095
4.08074185124791,0.0167565494069193
4.08674345288824,0.0188986422097796
4.09080183020724,0.020481922342074
4.09486020752625,0.0221184575289982
4.09832898485688,0.0234924122352636
4.10143510268252,0.0246335671802532
4.10438693424208,0.0255724420031516
4.10731936353859,0.0262992289587893
4.11014646155265,0.0267510782889388
4.11299272728367,0.0269195903678577
4.11603887529169,0.0267605238716401
4.11974893942922,0.026104081467887
4.12338652982422,0.0250273418133242
4.12652590240638,0.0238267699151651
4.12915090931711,0.022683461494607
4.13156128564657,0.0215586244387454
4.13386917528211,0.0204414135059664
4.13612486556925,0.0193327720461366
4.13835768724967,0.0182362650983039
4.14058756704381,0.0171559734181764
4.14282941975567,0.0160959329468017
4.14509519817291,0.015059974047794
4.14739505292732,0.0140516501736379
4.14973799281428,0.0130742290399254
4.15213236119315,0.0121306750730107
4.15458613017437,0.0112236593854753
4.15710716814018,0.010355552797551
4.15970342872433,0.0095284356017823
4.16238313711241,0.00874410249844364
4.1651549827025,0.00800406805044267
4.16802827679201,0.00730958782633426
4.17101317846611,0.00666166994645585
4.17412091620588,0.0060611019583667
4.17736403402342,0.00550848594673728
4.18081168737867,0.00499668575389811
4.18452321402692,0.00452434677146794
4.18853148780406,0.00409591089249154
4.192875622435,0.00371594479079367
4.19760135997239,0.00338928296903352
4.20276232766094,0.00312103640903145
4.20842116878642,0.00291648927494727
4.21465068981836,0.00278057627298815
4.22153643885967,0.00271618299245643
4.22812662183192,0.00273026113350227
4.23418328551785,0.0027946373994765
4.23974678209062,0.00286027749735429
4.24486437489219,0.00290064495013333
4.24957931736503,0.00290129163566818
4.25393097887519,0.0028543941989171
4.25795540979738,0.00275698503344147
4.26168589292756,0.00261006580875621
4.26515335212524,0.00241766368018771
4.26838681842253,0.00218573901939694
4.27141410463221,0.00192108581228596
4.27426227976153,0.00163040673371904
4.27695876425795,0.00135445874190345
4.27953276741068,0.00112063324334073
4.28201797279416,0.000915176322100591
4.28445839783191,0.000727380121947852
4.28692301774895,0.000547617968239587
4.2895582838859,0.000362959236304725
4.29298419268908,0.000130545997662122
4.29495361632808,-1.41664139547046e-07
4.29692303996708,-0.000129040629942722
4.29872310142856,-0.000245243514042505
4.30043901068144,-0.000354402712146858
4.30217999299949,-0.000463264842085113
4.30406286948662,-0.000578417636941118
4.30630614457635,-0.000711323283764271
4.30989077302497,-0.000911369018961513
4.31354330073416,-0.00109509255408138
4.31665273452042,-0.00123180118247298
4.31985241400391,-0.00135078819823953
4.3236079572453,-0.00146002349505116
4.32832311058503,-0.00154926723695363
4.33320889160813,-0.00158686386414758
4.33821159539987,-0.00157177529500097
4.34351111898022,-0.00150296357645898
4.34814446998543,-0.00140299747858296
4.3525264904464,-0.00127758337547301
4.35682571548371,-0.00112685442573163
4.36113025932719,-0.000948130956283986
4.36549971366552,-0.000735592618931218
4.36998039747375,-0.000478963569823274
4.37415853449226,-0.000194404599253055
4.37800644238679,0.000118947471224536
4.38156308733917,0.000467142680256678
4.38487411863192,0.000858448377732739
4.38795427291044,0.00129792362608006
4.3908984073227,0.00180282602685567
4.39382062204597,0.00240049318696275
4.39680604565844,0.00311780076419676
4.40008620521785,0.0040188371181722
4.40314779113783,0.00493135769014313
4.405711316275,0.00571406263222397
4.40852192315123,0.00656640796778162
4.41106050725192,0.00732974982463883
4.4135990913526,0.00810614114658735
4.41589791121443,0.00884978253866702
4.41793791723678,0.00957151743989631
4.41988746918167,0.0103438153487323
4.42181308969151,0.0112146732729551
4.42369064108567,0.0121977013975679
4.42553265099418,0.0133235985621005
4.42731151204483,0.0145985902689719
4.42903252706075,0.0160468331807591
4.43068583512763,0.0176800299551143
4.43227044873472,0.0195152839347648
4.4337900410257,0.0215755237146809
4.43524664318094,0.0238838162070893
4.4366439445746,0.026468278999297
4.43798664982154,0.0293632166169274
4.43927891162655,0.0326075092857633
4.44052469933646,0.0362459827394154
4.44172854391139,0.0403329686690448
4.44289472560711,0.0449319518877624
4.44402762229214,0.0501186681126201
4.44513179954994,0.0559844158562194
4.44621225162724,0.062641396052972
4.44727461319803,0.0702300788909024
4.44832548040525,0.0789303900001709
4.44937307433836,0.0889809873163735
4.45042838517919,0.100713420118676
4.45150760556672,0.114621456266169
4.45261272039957,0.131118835842667
4.45372763206615,0.150308479865919
4.45487150432419,0.17281878347727
4.45607642561961,0.199632621147904
4.45734160953102,0.230901561933009
4.4584479558308,0.260225055515616
4.45940273136501,0.286254575245896
4.46027406737622,0.309800519471266
4.46109319599639,0.330937186223614
4.46187788636283,0.349433328390096
4.46264159334165,0.364920423017651
4.4633964734393,0.376906352346733
4.46415474553974,0.384729619184148
4.46492973561656,0.387471778217909
4.46573744635812,0.383809371175691
4.46660358836736,0.371653324868895
4.46749255102318,0.349679804436469
4.46839835531947,0.317150165525941
4.4690979443643,0.285285041070809
4.46979753340913,0.248247725363279
4.47037429824692,0.214677484434749
4.47085842219363,0.185158967678455
4.47128775468029,0.158592692882365
4.47168272882814,0.134349083605989
4.47205559100498,0.112064036597236
4.47241506658479,0.0914842276294095
4.47276856168881,0.0723988557381365
4.4731238644413,0.0545924334021202
4.47349195043256,0.0377702214263123
4.47389654004504,0.0213008734335442
4.47427453994535,0.00784852917984998
4.47451444357778,0.00025911261427696
4.47475434721021,-0.00662311837275418
4.47497776892058,-0.0124248595718805
4.47520471700791,-0.0177498937253735
4.47545383882221,-0.0229764426755606
4.47572188890439,-0.0279296815310125
4.47600708074703,-0.0324918974659433
4.47630693501702,-0.0365690996651309
4.47662100806957,-0.0401379783142389
4.47695320872476,-0.0432291857455441
4.47730527477808,-0.0458431985054333
4.47767940923752,-0.0479861005754623
4.47807835559201,-0.0496674906679185
4.47850547179354,-0.0508985916918414
4.47896485107277,-0.0516907889376739
4.47946150190045,-0.0520543772520846
4.48000161108344,-0.0519973457067363
4.48059298370142,-0.0515239759801801
4.48124723779502,-0.0506304651740176
4.48197820125001,-0.0493044194579591
4.48280519487393,-0.0475202964389658
4.48375741402996,-0.0452290419897437
4.48488546831083,-0.0423304902807567
4.4862526796878,-0.0387055685497597
4.48756218195976,-0.0352229205478601
4.48882176703892,-0.031929322751494
4.49003619452177,-0.0288438965449055
4.49120791299834,-0.0259740083312197
4.4923381421328,-0.023320284455575
4.49342744362341,-0.0208790136505225
4.49447602053346,-0.0186435203785973
4.49548387295396,-0.0166050730859829
4.49645087399515,-0.0147535532826869
4.49737679908888,-0.0130779829575254
4.49829829637513,-0.01150573536699
4.49924317375318,-0.00999246255612855
4.50021305191026,-0.00854270888375953
4.50121008268702,-0.00716042983729237
4.50223678285354,-0.00584936405782062
4.50329612845904,-0.0046129812998673
4.50439167637146,-0.00345443051660842
4.50552772774757,-0.00237648456400667
4.5067095532461,-0.00138148078834774
4.50794371207695,-0.000471257025096039
4.50923851906156,0.000352919778547118
4.5106047558701,0.00109043596388439
4.51205680795175,0.00174143319056953
4.51361459724255,0.00230694635175552
4.51524869886201,0.00277449249045806
4.51693076779991,0.00314484753015108
4.51867927487132,0.00343460346578011
4.52051599461725,0.0036588080314953
4.52247012885162,0.00383184752739373
4.52458331615425,0.00396802402702523
4.52692019478283,0.0040825126134513
4.5295947491304,0.0041933993189685
4.53285944467792,0.00432796915627924
4.53660783661299,0.00450469509644133
4.54064583513144,0.00473281160510442
4.54537216750096,0.00504845620612613
4.54996263182981,0.00539801747414287
4.55455790040644,0.0057827331516823
4.55912029699712,0.00619514345294544
4.56366182491978,0.00663527101605356
4.56817097538538,0.00710375174037079
4.5726386756845,0.00760308487148868
4.57705501828823,0.00813668588559726
4.58141276443004,0.00870894159493281
4.58570596780901,0.00932496758040414
4.58993622085656,0.00999156375863655
4.59411825377124,0.0107186498252897
4.59835362777869,0.0115354031803062
4.60264523984229,0.0124591948569284
4.60703123221785,0.0135186872246898
4.61158345970947,0.0147582484888902
4.61647899229208,0.0162667656210666
4.62236569657361,0.0183281551239502
4.62655156817814,0.0199378012647593
4.63073743978268,0.021612002510328
4.6342580745046,0.0230021223513104
4.6373847351207,0.0241525539719261
4.64034249934919,0.0251002909650093
4.64327494348775,0.0258392521950637
4.64610572704591,0.0263074523824842
4.64894286108561,0.0264939656781845
4.65195729203858,0.0263588990799207
4.65555489106125,0.025754679209688
4.65928099051783,0.0246775718514485
4.66247326238299,0.0234640085953625
4.66512882490664,0.0223055854457003
4.66755297075643,0.0211680342575618
4.66986748385727,0.0200383592973047
4.67212596368691,0.0189167344910326
4.67435907280912,0.0178064347248912
4.67658739794239,0.0167113804287728
4.67882621225242,0.0156354913752569
4.68108767810452,0.0145824909295067
4.68338205888267,0.0135558272359069
4.68571842249856,0.0125586521795639
4.68810512197066,0.0115938041207803
4.69055011013161,0.0106638085583578
4.69306119957223,0.00977087091998276
4.69564625985708,0.00891687808170871
4.69831339905029,0.00810339804194954
4.7010711436297,0.00733167959776462
4.70392860123808,0.00660266015518823
4.70689566039368,0.00591696885513629
4.70998319300695,0.00527493792002458
4.71320328499,0.00467661654933196
4.71661978079648,0.0041140091192749
4.72029536252328,0.00358318471720244
4.72426153751976,0.00308698835820675
4.72855558525298,0.00262792817219288
4.7332205117233,0.00220823731442862
4.73830577294918,0.00182978995207165
4.74386741677713,0.00149403598648788
4.74996741860361,0.0012019245245138
4.75667256823376,0.000953785648638686
4.76227703763586,0.00079294498334774
4.76788150703797,0.000677057796745726
4.77480514057397,0.000587269081315149
4.78172877410997,0.00053013379387193
4.79108653601808,0.000483437825084614
4.80067869689495,0.000464971674219853
4.81067869689495,0.000471044249432106
4.82067869689495,0.000499183675842176
4.83067869689495,0.000547588506230034
4.84033701559349,0.000614117726649133
4.84922894048722,0.000695056815679024
4.85740476863472,0.000789959440117153
4.86492736107763,0.000899581576758915
4.87185443317877,0.00102537116241775
4.87823869047363,0.00116925862877335
4.88412851782191,0.00133359060291299
4.88956853639112,0.00152113130018052
4.89460002573204,0.00173509720149287
4.89926132470804,0.00197921445701235
4.9035882346124,0.00225780418639976
4.90761443431266,0.00257589900621854
4.91137189166604,0.00293940558367159
4.91489136711708,0.0033553324611858
4.91820310765424,0.00383213530568395
4.9213378549403,0.00438026025429466
4.92432845081095,0.00501305452790985
4.9272127981754,0.00574845774627769
4.93001321605872,0.00660359938548178
4.93282224422126,0.00762307201622409
4.93584150611045,0.00891492738145142
4.93797358877227,0.00994541248560271
4.94010567143408,0.0110525219449943
4.94194663140399,0.0120389514836416
4.94356145789002,0.0128930938648482
4.94506130069592,0.0136427281177159
4.94650753083519,0.0142914843303399
4.94794453728836,0.0148299266567261
4.94941715613912,0.0152383318055132
4.95098760603267,0.0154820325096092
4.95278013159161,0.0154907552665716
4.95528480972071,0.0150138282816916
4.95709192584744,0.0143448913622031
4.95889904197416,0.0134560976780974
4.96052424941077,0.0125155877796613
4.96209140007416,0.0115231506108587
4.96365796439141,0.0104826100409504
4.96467528246843,0.00979530670741512
4.96542414816948,0.00929040535900417
4.96617301387054,0.00880370568702966
4.96825493003001,0.00755588798848512
4.97027719430942,0.00648237520248613
4.97228731920023,0.0055381032666588
4.97441024382025,0.0046600008178142
4.97684218444436,0.00378653052663137
4.97939042567848,0.00300225116302613
4.98207147744023,0.00229928515764337
4.98491175492929,0.00166796100841851
4.98794262250559,0.00109897822891257
4.99120223355283,0.000583105593307467
4.99473836398763,0.000110797101520507
4.99861266526133,-0.000328221989752607
5.00290741055873,-0.000745357958914691
5.00773689708344,-0.00115338586208257
5.01326831773253,-0.00156583647990223
5.01888111819296,-0.00193732448801227
5.02419074638306,-0.00224195349782439
5.02927350780362,-0.00247324938889913
5.0334417465626,-0.00259716675907871
5.03715658132452,-0.00263824923265484
5.04070496882841,-0.00259908607492802
5.04430301986649,-0.0024639790524044
5.04814884135796,-0.00219393675999941
5.05164391251099,-0.00181759160297151
5.05488747275893,-0.00134023932462529
5.05793107315355,-0.00076440321798082
5.06083246658392,-8.46006529417097e-05
5.06366737167027,0.000718157173225429
5.06653012754932,0.00168182543041074
5.06954388055835,0.00287454025459503
5.0725946484281,0.00427729352325619
5.07566542917767,0.00590051656847969
5.07827742559266,0.00747207060591459
5.08046616542857,0.00895639896930136
5.08240923104537,0.0104379819224319
5.08420553172886,0.0119832079933075
5.08589412794473,0.0136309266106259
5.08749999889894,0.0154182164387415
5.08903863227916,0.0173811473664483
5.09051335235783,0.0195463348401547
5.09193196412186,0.0219503517843485
5.09329617981839,0.0246243543434395
5.09460992815037,0.0276068315316888
5.09587662678602,0.0309402058762723
5.09709875186948,0.0346697216486453
5.09828054485516,0.0388524642824337
5.09942556171903,0.0435525627292761
5.10053742896258,0.0488450376739429
5.10162053343024,0.0548221625286571
5.10267941112509,0.0615951549051689
5.10371911930114,0.0693015988844251
5.10474546656641,0.0781151134844074
5.10576569895035,0.0882635204377727
5.10678906294236,0.100054751562758
5.10782843340049,0.113929159994658
5.10890299650296,0.130557555878131
5.10998119996021,0.149842905939667
5.11107746205722,0.172344355699015
5.11221401126406,0.198870856835134
5.11342989326167,0.230747965934735
5.11462970616859,0.265251776392034
5.11565119325092,0.296240708560781
5.11654902355081,0.323837703693057
5.11737324953132,0.348575982802259
5.1181502297497,0.370455917571771
5.11889815647559,0.389255083649155
5.11963254037488,0.404594159071572
5.12036845461354,0.415895803658451
5.12112218628661,0.422282619941562
5.12191331112313,0.422389122126333
5.12276850009923,0.413988190733781
5.12364671592345,0.395429230663844
5.12454087338528,0.365793500514236
5.12546388345648,0.323943848757532
5.12608435103249,0.289853209961392
5.1267048186085,0.251731318692479
5.12723590987798,0.216736782767505
5.12769071953642,0.185803494676067
5.12809772955134,0.158001719801188
5.12847424626832,0.132702958661011
5.12883133545166,0.109510346792443
5.12917726218529,0.0881351699220372
5.12951944981224,0.068328593964968
5.12986639829757,0.0498217309916201
5.1302317871678,0.0322038784651819
5.1306532354185,0.0143628080205828
5.13084539023978,0.00710883748808164
5.13103754506106,0.000392734242842315
5.1312662583271,-0.00692183070805338
5.13147865803523,-0.0130805289736662
5.13168936449837,-0.0186174417755209
5.13192256908543,-0.0241199517392733
5.13217472388468,-0.0293817198387229
5.13249691777744,-0.0351398720100158
5.13278251712393,-0.0394286538383776
5.13308340019105,-0.0432166207665983
5.13340179697261,-0.0465106628566156
5.13373935617534,-0.0493105338926256
5.13409821421784,-0.0516224935385906
5.13448104368517,-0.0534566726669086
5.13489112792318,-0.054825023736982
5.13533248390475,-0.0557397397026012
5.13581004601918,-0.056211894805532
5.13632993605712,-0.056250116005838
5.13689986685343,-0.055859092225257
5.13753104553588,-0.0550356667534366
5.13823759149737,-0.0537664683933719
5.13903899307088,-0.052023684993008
5.13996496318815,-0.0497533364709068
5.14106774100329,-0.0468438996550435
5.14245954201148,-0.0430311394198266
5.14379350315893,-0.0393474513977798
5.14507907038123,-0.0358458240332136
5.14632091426018,-0.0325506994836928
5.1475213178836,-0.0294729038813888
5.14868132411608,-0.0266156191310557
5.14980132917815,-0.0239771287158579
5.15088139332685,-0.0215523139596911
5.15192140272259,-0.0193336132181706
5.15292114940813,-0.0173117237625555
5.15388036380947,-0.0154761603450928
5.15479871799535,-0.013815718746506
5.15572264474893,-0.0122414153874932
5.15667019922042,-0.0107269794119107
5.15764311614215,-0.00927673465157408
5.15864358279047,-0.0078945740669123
5.15967416585967,-0.00658416988502824
5.16073790828354,-0.00534892095137892
5.16183845562795,-0.00419189884948001
5.16298022680033,-0.00311579079147789
5.16416865026461,-0.00212283815220822
5.16541050027873,-0.00121476992566528
5.16671439182627,-0.000392728104002863
5.16809153925329,0.000342820040964813
5.16955697885123,0.00099219217559252
5.17113166897743,0.00155664412419254
5.17277048167179,0.00201984474773821
5.17446004711736,0.00238832156930957
5.17621885991549,0.00267835522717164
5.17806953855749,0.00290491568933081
5.18004265132437,0.0030823898095616
5.18218225433392,0.00322520022261542
5.18455777340998,0.00334886425623734
5.1872946391045,0.0034723591251879
5.19068480456487,0.00362598205248794
5.1944456856953,0.00381864395363501
5.19855659663421,0.00406528718328487
5.20342740355082,0.00440305284850886
5.20806045482675,0.00476212425972436
5.21273556519777,0.00515370334189061
5.21736660845372,0.00556673188271613
5.22197994925334,0.00600260311412098
5.22655709265359,0.00646140257565497
5.23108967538713,0.00694562617491428
5.2355667824061,0.007458396731117
5.23997975469836,0.00800362674161419
5.2443232975238,0.00858608998997388
5.2486035254095,0.0092126414728768
5.25282913258331,0.00989141205779347
5.25701857541501,0.0106334530727105
5.26126252822451,0.0114667759071982
5.26556532003393,0.0124089277133115
5.26996648833861,0.0134892673972515
5.27454311170484,0.0147546303938376
5.27948947437808,0.0163013400925405
5.28549638728678,0.0184341463721306
5.28955291960281,0.0200090339511223
5.29360945191885,0.0216371037583236
5.29707774006612,0.0230044197176376
5.30018303374669,0.0241397695028869
5.30313320385516,0.0250732270497521
5.30606631424142,0.0257955771712825
5.30889269603696,0.0262429259461539
5.31173629819952,0.0264069639910818
5.31477610495586,0.0262436800719741
5.31846564573005,0.0255857296127821
5.32211569611908,0.0244982710830871
5.32526887614674,0.0232829980219124
5.32789773604408,0.0221281610606156
5.33030895717803,0.0209926385902906
5.33261651401243,0.0198646954108116
5.33487115362141,0.0187449611958618
5.33710235351263,0.0176368256857573
5.33933009287259,0.0165442300012967
5.34156928416329,0.0154710852759208
5.34383185420721,0.0144210942100255
5.3461278969546,0.0133976796687561
5.34846634931402,0.0124039649560844
5.35085545229308,0.0114427582556431
5.35330305523416,0.0105165529958466
5.35581686687802,0.00962752074010017
5.35840464281402,0.00877751330797368
5.36107436316602,0.00796806098797428
5.36383439879378,0.00720037370881114
5.36669366823831,0.00647534717403592
5.36966182285195,0.00579356627076843
5.37274942856209,0.00515531676441616
5.37596818020721,0.00456059713482396
5.37939889680384,0.00399870516636851
5.38308956458038,0.00346855290418071
5.38707188322191,0.00297286802363543
5.39138286371364,0.00251407151726677
5.39606492483962,0.00209428294823049
5.40116640862922,0.00171522469163031
5.4067413285513,0.00137814414878894
5.41284817496639,0.00108371316201762
5.41954824380097,0.000831871218021631
5.42690931716686,0.000621517466020189
5.43301444726816,0.000487798362243578
5.43911957736947,0.000398047299946019
5.44740831445387,0.000316044876865222
5.45628466921489,0.000256688710078762
5.46606317015862,0.000212946906444137
5.47606317015862,0.000185149433567827
5.48606317015862,0.000169560320988964
5.49606317015862,0.000162520843671781
5.50606317015862,0.000161348234969767
5.51606317015862,0.000164226848911874
5.52606317015862,0.000170050510521997
5.53606317015862,0.000178223744168642
5.54606317015862,0.000188492283427364
5.55606317015862,0.000200833004924569
5.56606317015862,0.000215398004282462
5.57606317015862,0.000232496871882426
5.58606317015862,0.000252605692411623
5.59606317015862,0.000276399463063883
5.60606317015862,0.000304812222996713
5.61606317015862,0.000339136718189913
5.62602458450787,0.000381009515691396
5.63526246516886,0.000428972619226776
5.6438043067395,0.00048370541097426
5.65170158190688,0.000546132648956031
5.65900308513358,0.000617336151691174
5.66575421405414,0.000698552079996463
5.67199721605024,0.00079118363141324
5.67777143053824,0.000896821754898257
5.68311349987141,0.00101726993826054
5.68805755633107,0.00115457244832245
5.69263539711964,0.00131104616332339
5.69687665140904,0.0014893179239502
5.70080893922497,0.00169236802159047
5.70445802310749,0.00192358237593246
5.70784795853108,0.00218681546127281
5.71100124778248,0.00248646802115439
5.71393899846257,0.00282758509242651
5.71668109211134,0.00321598173590533
5.71924637370758,0.00365840933392033
5.72165287483905,0.00416278238439696
5.72391809303757,0.00473849849540339
5.72605936997974,0.00539691002057764
5.72806078945531,0.00613838794684931
5.72991590734615,0.0069604505657128
5.73165759936901,0.00787588828042041
5.73332051960322,0.00890463885004816
5.73494655066821,0.0100805738496051
5.73660273484286,0.0114731555735844
5.7385441018248,0.0133742369525924
5.73999740639368,0.0149825642012466
5.74145071096256,0.0167206335694681
5.74274594061935,0.018332740531764
5.74388560172352,0.0197478031528013
5.74495046278342,0.0210139140508441
5.74598728463017,0.0221416361782517
5.74703159066826,0.0231198934089472
5.74812254759219,0.0239211566027951
5.7493214003687,0.0244932609426789
5.75077559937355,0.0247164600318054
5.75248880039015,0.0243330054391064
5.75420200140675,0.0233495014564268
5.75558244933731,0.0222244514222287
5.75688147652241,0.020979635757205
5.75819435493009,0.0196066019365381
5.75956307013544,0.018113060548822
5.76102262893837,0.0165063913708121
5.76209705147446,0.0153401952251662
5.76317147401055,0.0142140743885416
5.764335331229,0.013066886577457
5.7667732440744,0.0109060988983898
5.76916046010074,0.0090866921780706
5.77139349375845,0.00762417524803845
5.77359185826193,0.00638492146727121
5.77583557529226,0.00530015918928948
5.77814747062437,0.00434743393751368
5.78054766238839,0.00351001883571476
5.78305697387107,0.00277414558564236
5.78569823119892,0.00212802690961917
5.78847260917455,0.00156582385785951
5.79107458653895,0.00112698397613617
5.79354018706319,0.000775489188233141
5.79591734428334,0.000485247075914026
5.79823899227656,0.000239783367358517
5.80050649675997,3.00063178232415e-05
5.80269592597531,-0.000149270658625142
5.80479465132519,-0.00030328153061592
5.80681949243294,-0.000438070532188657
5.80881000323291,-0.00055953845150732
5.81083271522226,-0.000673629175694287
5.81303171601514,-0.000788856365198128
5.8151845183805,-0.000894433328496879
5.81686258078642,-0.000972693713766146
5.81854064319234,-0.001048060577633
5.82003577003212,-0.00111319209575783
5.82144717711674,-0.00117323503733316
5.82286739963637,-0.00123249216381997
5.82438598498721,-0.00129481811822225
5.82615457818008,-0.00136637473580753
5.82869792822387,-0.00146798099691771
5.83192180816094,-0.00159577692870111
5.83467641250549,-0.00170509072022972
5.83736973410424,-0.00181279378995831
5.8404781865052,-0.00193886224058365
5.84455662457821,-0.00210856558688551
5.85109355128158,-0.00239515960053727
5.85717846732385,-0.00267953684253252
5.86278276562907,-0.00294944640344072
5.86808565491636,-0.00319636073444841
5.87299254557677,-0.00339520093730967
5.87708598962836,-0.00351806371413437
5.88077973736538,-0.00357762949426992
5.88434044444029,-0.00357383185822771
5.88798690179453,-0.00349326545924484
5.89206268950925,-0.00329466185323371
5.89593804925415,-0.00298240444246299
5.89942446849333,-0.00258263340516471
5.90261619049804,-0.00210212805116698
5.90553643668192,-0.00154952368348798
5.90820313284946,-0.000931733885825311
5.91065648721154,-0.000247661966204426
5.91295202343986,0.000513778728696516
5.9151590785364,0.00137729536250949
5.91737082693742,0.00239148672728093
5.91974808785071,0.00366417837915702
5.9225581438421,0.00541878916717067
5.92558517025881,0.00759792735399866
5.9278046243129,0.0093827331773081
5.93002407836698,0.0113496129488293
5.93187358249339,0.0131696554039413
5.93354945117167,0.0150088601978834
5.93509056480876,0.0169097079059237
5.93656572656468,0.0189707946748361
5.93797864325319,0.0212243849715604
5.93933990484239,0.023717487527819
5.94065266174682,0.0264903762384531
5.9419203001597,0.029587824466155
5.94314219286456,0.0330481226000907
5.94432307199376,0.03692774829846
5.94546522578392,0.0412833113427075
5.94657041197408,0.0461757981573431
5.94764316867799,0.0516877115110328
5.94868713811289,0.0579120695707511
5.94970624735576,0.0649605597470915
5.95070488016764,0.0729699309123416
5.95168801692929,0.082110562389628
5.9526612975472,0.0925972666378111
5.95363193278305,0.104714407728717
5.95460911955136,0.118847459748166
5.95560548116964,0.135545674652255
5.95662615732166,0.155359651006267
5.95765224880291,0.178344687240578
5.95869667242713,0.205151033008276
5.95977853902104,0.236688293313059
5.9609307226865,0.274390838954218
5.9620869396999,0.315909638801892
5.96304801314055,0.352273954932965
5.9638675138979,0.38353735964967
5.9646087284389,0.410934630315927
5.96530620968553,0.434863951174982
5.96598338131383,0.455280257091517
5.96666043521623,0.471815383112426
5.96735892220177,0.483712866170456
5.96810735631095,0.489568652869053
5.96894196503257,0.486685302900797
5.9697881603528,0.472986983280548
5.9706599035369,0.447290824852923
5.9715676908475,0.408147828451222
5.97252196650848,0.353959752611962
5.97311533906783,0.314177750855173
5.97370871162718,0.270592479878802
5.97421543350816,0.231270506037765
5.97464882301955,0.196929663243256
5.97503604711314,0.166372329050775
5.97539403442209,0.138779273362059
5.97573373776145,0.113628697628298
5.97606345175423,0.0905430645022518
5.97639086873253,0.0691978989664741
5.97672539510606,0.0492340779542337
5.97708410995187,0.0300514257259249
5.97752920887478,0.00952137284895188
5.97775234273468,0.000568585200791564
5.97797547659458,-0.0075293611403794
5.97816851508672,-0.0138764647767011
5.97836515470128,-0.0197466645648888
5.97858313328458,-0.0255935873306192
5.97881904686719,-0.0311947666032763
5.97907092271604,-0.0364047374841277
5.97934029300356,-0.0411744321245989
5.97962062456292,-0.04535544024313
5.97991735429922,-0.04901876496786
5.98023205185413,-0.0521635279941699
5.98056669954898,-0.0547956180027854
5.98092379992954,-0.0569256777717047
5.98130644745129,-0.0585667587263471
5.98171844758005,-0.0597325247419689
5.98216449684252,-0.060435729118428
5.9826504489932,-0.0606867423475906
5.98318371453106,-0.0604919111517149
5.98377436709476,-0.0598507833450765
5.98443651062238,-0.0587511436841795
5.98518897449533,-0.0571654314987747
5.98606049890307,-0.0550386494590195
5.98710153672184,-0.0522561200539564
5.98843098832277,-0.0485148909207091
5.98980583384977,-0.0445719292538658
5.9911346519263,-0.0407832567388832
5.99242164489269,-0.0371884872369837
5.99366905533395,-0.0338061412843499
5.99487777208449,-0.030644798295876
5.99604799132916,-0.0277069519276474
5.9971795698332,-0.024990874651238
5.99827221021864,-0.0224917088016985
5.99932555502035,-0.0202022249823125
6.00033922883367,-0.0181134226433871
6.00131284921718,-0.0162150400311413
6.00224601752776,-0.0144959977062243
6.003159955423,-0.0129082715561034
6.00409714984486,-0.0113787035685609
6.00505899388258,-0.00991206023346944
6.00604753465908,-0.00851230108402841
6.00706516705197,-0.00718319722241763
6.00811472247177,-0.00592827195381736
6.00919958136652,-0.00475072026298935
6.0103238240254,-0.00365342563212505
6.0114924372871,-0.00263887134005931
6.01271160543899,-0.00170907213116856
6.01398913254029,-0.000865507906214248
6.0153350789013,-0.000109049810319878
6.01676276531064,0.000560127322494361
6.01829045162259,0.00114265675751437
6.01991312305791,0.0016318840812721
6.02157924660383,0.00201859952928187
6.0233071532529,0.00231981463811934
6.02511713494395,0.00255060516572605
6.02703609020504,0.00272522045368717
6.02910171254446,0.00285744970403425
6.0313711001214,0.00296139286423112
6.0339411181076,0.00305282303045809
6.03701083394364,0.00315287124547982
6.0407448440025,0.00328735696575425
6.04466435300773,0.00345730516567781
6.04891850843337,0.0036767365743057
6.05287033570436,0.00390823033551489
6.05668645000035,0.00415144281291989
6.06046207325394,0.00440715234525196
6.06425589243065,0.00467713609487815
6.0681106317757,0.00496441226318368
6.07206134830031,0.00527328660286605
6.0761394113752,0.00560942001156724
6.08037488434838,0.00598002332391537
6.08479804121655,0.00639425623567745
6.08925464279762,0.00684456599195226
6.09362152535412,0.00732319119290005
6.09794521493338,0.00783916313073453
6.10222114746786,0.00839688292821189
6.10645609007484,0.0090027050420085
6.110653205393,0.00966335623281192
6.11481677416359,0.0103866711767993
6.1190209657259,0.0111956800345913
6.1232945534332,0.0121107837611315
6.12766139577743,0.0131561623331239
6.13217805445446,0.0143702346361882
6.13698060221019,0.0158254381349729
6.14251165794676,0.0177217800801809
6.14812336713499,0.0198633839439838
6.15164941078082,0.0212782804037771
6.15517545442665,0.0226864718448536
6.15836812257177,0.0238911443038239
6.16135682617378,0.0248907846932078
6.16428805610709,0.0256845271229189
6.16713937216979,0.026220849140166
6.16996621791379,0.0264781605098499
6.17292095802026,0.0264271233366224
6.17631097896297,0.0259624592457921
6.180240611803,0.0249294058758406
6.18350988298023,0.023739973816133
6.18624880323367,0.0225728304762529
6.18871441471518,0.0214300673827596
6.19105164492419,0.020295976795316
6.19332330166971,0.0191693418253666
6.19556376940261,0.0180531098925845
6.19779543456106,0.0169511889079476
6.20003459172031,0.0158675625913032
6.20229398549329,0.0148060627202556
6.2045842411908,0.013770247480408
6.2069146063043,0.0127633938223137
6.20929350488163,0.0117884614909609
6.21172885294261,0.0108480999424995
6.21422831543025,0.00994464177642759
6.21679953848971,0.00908008819530847
6.21945024574328,0.00825613193016625
6.22218848529091,0.00747412509036188
6.2250226863837,0.00673510912542476
6.22796184046186,0.00603980646658019
6.23101571634555,0.00538861466175167
6.23419490673051,0.00478164424020086
6.23755488821125,0.00421172362583068
6.24116645199119,0.00367288157814399
6.24505933985584,0.00316802205599256
6.24926875875442,0.0026996846877686
6.2538352839566,0.00227011182596763
6.25880497256414,0.00188120529270926
6.26422988296139,0.00153439961055616
6.27016723413351,0.00123058960741971
6.27667846726851,0.00096998811064365
6.28383159350022,0.000751884846869175
6.29172070527036,0.00057426179078088
6.3005220839983,0.00043364089989914
6.3105220839983,0.000326433195679493
6.3205220839983,0.000266339104760051
6.32856677518801,0.00024369861799366
6.33856677518801,0.000230676563649888
6.34856677518801,0.000229835572455303
6.35856677518801,0.000238319674507875
6.36856677518801,0.000254850701654239
6.37856677518801,0.000278856813237068
6.38856677518801,0.000310370079983883
6.39856677518801,0.000350125140140956
6.40856677518801,0.000399694928364261
6.41849316575025,0.000461200019928134
6.42764462712252,0.000532231260074862
6.43606059344676,0.000613715716355312
6.44380382887988,0.000707025640991427
6.45093247970882,0.000813804068410966
6.4574997149109,0.000935950287075518
6.46355431732258,0.00107563692557177
6.46914119570795,0.00123534277831171
6.47430180850704,0.00141789590645803
6.47907453019742,0.00162652710895819
6.48349498853806,0.00186493579102225
6.4875963886995,0.00213737404783336
6.49140983477002,0.00244875485938376
6.49496467055636,0.00280479612865122
6.49828887494065,0.00321221959192998
6.50140955763313,0.00367903597823388
6.50435363366712,0.00421497518040552
6.50714884146434,0.00483217464945259
6.50982545308887,0.00554636783426698
6.51236442926996,0.0063598560841235
6.51482420703764,0.00729807472068341
6.51732367272549,0.00842437887759472
6.52013554487944,0.00991421371438487
6.52198160327029,0.0110135141885414
6.52382766166114,0.0121854751648514
6.52548545127392,0.0132664131303181
6.52695936948152,0.0142125519486002
6.52833810037095,0.0150468086803494
6.52967577141018,0.0157712868363629
6.53101400615463,0.0163744876044391
6.53239746605919,0.0168331071274642
6.53389258072679,0.017105278145996
6.53564615199592,0.0171001284768446
6.53820366218873,0.0164722903760756
6.5398429295172,0.0157262897932597
6.54148219684568,0.014773121649239
6.54300520438007,0.0137520378373583
6.54450377202913,0.0126647196680999
6.5460232587443,0.0115179168017678
6.54714335969852,0.0106634208073036
6.54802484372075,0.00999958100095755
6.54890632774299,0.00936554962061848
6.5510627268431,0.00794432830370649
6.55328413495045,0.00665996195090945
6.55554835963127,0.00551995425130338
6.557875709634,0.00450558734301341
6.5602868392832,0.00360115628568111
6.56280280390791,0.00279343119889892
6.56522225984553,0.00212760910778459
6.56749879895541,0.00158473929481018
6.56964911762775,0.00113481934069358
6.57169212670912,0.000755307774897175
6.57364752377194,0.000429323952153077
6.57553792816561,0.000143748283371461
6.57739166263072,-0.000112151855220898
6.57925052806346,-0.000348268605065561
6.58119311769535,-0.000576405206897005
6.58345186662165,-0.000821708611177427
6.58516679401426,-0.000996006552195132
6.58688172140687,-0.00116173424276414
6.58837314085455,-0.0012999557879272
6.58972863291336,-0.00142151691341927
6.59105620526215,-0.0015373512393718
6.59243573869028,-0.00165481840853684
6.59397149354469,-0.00178263818877815
6.5959075785145,-0.00194012896149286
6.59936094124916,-0.00221339861030731
6.60266246122926,-0.00246796350512472
6.60563521503896,-0.00269273442278558
6.60888558564248,-0.00293352831889836
6.6133107926951,-0.00325022317461763
6.61853274791905,-0.00359735397758129
6.6228857028676,-0.00385008610317149
6.62668418836789,-0.00402975108172132
6.63027946004692,-0.00415387214424437
6.63391944028006,-0.00422564562063199
6.63792755383045,-0.00423587944537695
6.64199671963248,-0.00417084587615723
6.6459833722987,-0.00403618107872805
6.64984462283734,-0.00384374425371415
6.65322937213472,-0.00362876173626414
6.65642195242283,-0.0033886239566632
6.65953951268756,-0.00311960915823234
6.66264411210601,-0.00281630281956869
6.66577682318052,-0.00247027761063126
6.66896920424933,-0.00206832669842055
6.67224802357993,-0.00158954773782885
6.67520887713856,-0.00108098765614693
6.6778912623814,-0.000537019834507097
6.68036039404659,5.50144474580333e-05
6.68269262686381,0.000715686183342062
6.68498944720303,0.0014823336040499
6.68744035537637,0.0024431179069869
6.69012703654036,0.00366475072419301
6.69214210455437,0.00467704688886293
6.69415717256837,0.0057435155721072
6.696199599775,0.00685491512517026
6.69886173404351,0.00833361901827003
6.70072452690467,0.0093998791000438
6.70258731976583,0.0105191138986424
6.70437568005171,0.011677388407004
6.70603228518688,0.0128605954023519
6.70765282547313,0.0141600013885281
6.7092221622871,0.015594057897051
6.71075362515539,0.0172056093334414
6.71223296564684,0.0190107469441121
6.71366606937944,0.0210462787611816
6.71504751617867,0.0233350117817958
6.7163736281906,0.0258990234054965
6.71764909246278,0.0287760802856206
6.71887568424192,0.0320021252061539
6.72005578478827,0.0356182068553865
6.72119217043487,0.0396716159364946
6.72228867769703,0.0442206656926344
6.72334873083235,0.0493319226138876
6.72437579488441,0.0550835938870912
6.72537344755516,0.0615685575492308
6.72634540408958,0.0688980006948808
6.72729553575896,0.0772059783892259
6.72822798477313,0.0866561666863525
6.72914732559687,0.0974515425114359
6.73005874290183,0.109847931847973
6.73096833110537,0.124174626307033
6.73188356814613,0.140866893625768
6.73281416865063,0.160521181368125
6.73376825978165,0.183853491595666
6.7347247131546,0.210853208324974
6.73569296412595,0.242205985399848
6.73668685930798,0.278830299775162
6.73773108368397,0.322126727229013
6.73856788532274,0.359988970756798
6.73940468696151,0.399809661765326
6.74013176793609,0.434863028738123
6.74078186872108,0.465328262619921
6.74139407405639,0.492023374165215
6.74199438221425,0.515087376300656
6.74260567171299,0.534178715883975
6.74325593568315,0.548413485309032
6.74399363197013,0.555828063496346
6.74477574338819,0.552831884306486
6.74558666624016,0.537867903728866
6.74644435981344,0.509404797016916
6.74736222633468,0.465369826274865
6.74832036392437,0.405395656166151
6.74896617810613,0.357605369094023
6.74961199228788,0.304822970369054
6.75014708446948,0.258368891883431
6.75059004728024,0.219013428353745
6.75097757988777,0.184693911638304
6.75133120533431,0.154090986359927
6.75166381836355,0.126430974058971
6.75198454677372,0.10119611873171
6.75230135216012,0.077974813348608
6.75262340257388,0.0563499527641657
6.75296634778198,0.0356898485662309
6.75338181400562,0.0140192005322626
6.75361945010187,0.00325294856786695
6.75380097510612,-0.00420491465387618
6.75398250011036,-0.0110275330341821
6.7541571257701,-0.0170191795554498
6.75435452460564,-0.0231543343312466
6.75457064884697,-0.0291458223059202
6.75480281190216,-0.0348033207649873
6.75504990844659,-0.0400200116767209
6.75531186865681,-0.0447390943497069
6.75560427754398,-0.0491272637496493
6.75589707091775,-0.0527101165920831
6.75620794881823,-0.0557559669410033
6.75653938524277,-0.0582779686258094
6.7568941470435,-0.0602893966000483
6.75727564798526,-0.0618050148036563
6.75768810810368,-0.0628394005493699
6.75813678556835,-0.063405374776632
6.7586283231574,-0.0635123452936014
6.75917128260017,-0.0631642827386115
6.75977801328604,-0.0623552591425225
6.76046518113622,-0.0610645409859405
6.76125703180408,-0.0592484973370587
6.76219390495558,-0.0568172716794408
6.76335978578127,-0.0535564489761595
6.7647806065316,-0.049430543777049
6.7661527354718,-0.0454126683920713
6.76748364543116,-0.0415619270637983
6.76877615628443,-0.0379088989391506
6.77003133490878,-0.0344695735181848
6.77124936446952,-0.031251846626931
6.77243000009127,-0.0282582994133183
6.77357280920639,-0.0254876066904537
6.77467729686363,-0.0229354084299823
6.77574296723826,-0.0205949568816149
6.77676934779479,-0.0184576606473945
6.77775599018129,-0.0165135679358168
6.77870245559083,-0.0147518018460384
6.77960828883559,-0.0131609495931369
6.7805368311704,-0.0116271081667132
6.78148940598596,-0.0101550539115286
6.78246794721358,-0.00874881752899275
6.78347471226087,-0.00741226555383964
6.78451236289655,-0.00614904767445207
6.78558406704554,-0.00496254655873788
6.78669363432982,-0.00385582569711065
6.78784570037102,-0.00283157509821354
6.78904598368549,-0.00189205496346418
6.79030165438092,-0.00103903665148111
6.79162188211746,-0.000273739507553911
6.79301868586557,0.00040323855000442
6.79450832341722,0.00099200241057073
6.7961137237986,0.00149346320205826
6.79776195070931,0.00188754694798635
6.79946583312255,0.00219004134251647
6.80124409079938,0.00241609129271196
6.8031209652593,0.00257973562961271
6.80512968835105,0.00269429724899583
6.80731910936443,0.00277287550253609
6.80976842640562,0.00282915529659964
6.81262770531712,0.00287923445597573
6.81628495225264,0.00294833534768254
6.82008705756847,0.00304375292883459
6.82435513814312,0.0031849783428804
6.82920986986909,0.00338280411067649
6.83339247200161,0.00357730025050328
6.83730673870365,0.00377376429730683
6.84111704319357,0.00397564361009952
6.84490653629442,0.0041858597682726
6.84872897055077,0.00440764714504064
6.85262527568039,0.00464477113648007
6.85663023504589,0.0049016443752234
6.86077571553092,0.00518350103297233
6.86509320435828,0.00549676037100957
6.86961519860148,0.00584948498810393
6.8741761688953,0.00623453609199988
6.87864526860669,0.00664431654903201
6.88307196150853,0.00708600696839168
6.8874487197926,0.0075623736782062
6.89178434950586,0.00807828992638865
6.89608204682348,0.00863872305631479
6.90034485027034,0.00924936612910338
6.90457346762081,0.00991643234394315
6.90876728492709,0.0106468237574955
6.91300641469626,0.0114647221989736
6.91730396001445,0.012387575403988
6.92168550321694,0.0134396877211888
6.92621141187453,0.0146603905403035
6.9310279831681,0.0161255161927094
6.93661736579578,0.018050614969111
6.94218904783864,0.0201838529808011
6.94567521050522,0.0215826975861512
6.94916137317179,0.0229701753256907
6.95232958013915,0.0241564876186635
6.9553074442331,0.0251394247966417
6.95823835768536,0.0259157212255018
6.96108177987922,0.0264301656490783
6.96391069223463,0.0266651129035712
6.96688291231693,0.026588104724757
6.97033316137474,0.0260821826961095
6.97423003906479,0.0250250498908863
6.97747141719372,0.0238284333634517
6.98017801934104,0.0226671051642653
6.98262753709126,0.0215287551385351
6.98495584241635,0.0203988022975057
6.98722215672141,0.0192766246841482
6.98945943950746,0.0181653279377787
6.99168940095886,0.0170688473708924
6.9939279533543,0.0159911647416241
6.99618762995369,0.014936091094463
6.9984789252438,0.0139071661730638
7.00081103012023,0.0129076428994905
7.00319235205142,0.0119404624641195
7.00563083736758,0.0110082568989543
7.00813422638321,0.0101133448804861
7.01071027555108,0.00925772366354328
7.01336688970114,0.00844308373954875
7.01611234374897,0.00767079134431933
7.01895538509064,0.00694191101973493
7.02190542945245,0.00625720342197191
7.02497277334385,0.00561713034314217
7.02816872539443,0.00502188564298505
7.0315498907891,0.00446459505007759
7.03518586335434,0.00394008926113924
7.03910723707302,0.00345157509587783
7.04335036005164,0.00300199889315827
7.04795728579255,0.00259415594983126
7.05297628566822,0.00223068334497069
7.05846243394888,0.00191404280576043
7.06447720790198,0.00164656974270583
7.07108804802732,0.00143053541133185
7.07837221591517,0.00126824832039714
7.08644180052318,0.00116243664311798
7.09353021389249,0.00113895500282311
7.10100013343745,0.0011676135246152
7.10974219575887,0.00124978218955408
7.11828429452998,0.00137822550062959
7.12637457243787,0.00154677636465369
7.13408798507174,0.00175551146077061
7.14152409060305,0.0020073852666709
7.14865239147352,0.00230123309474978
7.15520020516705,0.00261949887280166
7.16121081212058,0.0029509843290977
7.16673439331977,0.00328144634563098
7.17181748503449,0.00359355706583066
7.17650206341534,0.00386817212756394
7.1808253427771,0.00408649843885573
7.18481556604092,0.00423258781436705
7.18851829576477,0.00429632760225465
7.19195626830074,0.00427305759523454
7.1951565557068,0.00416461780839536
7.19814525375462,0.00397783265656882
7.20094708025091,0.00372270840513813
7.20358648671115,0.00341048463836286
7.20608813359839,0.00305198075993572
7.20847844452864,0.00265624019997493
7.2092356497,0.00252083926121713
7.20999285487135,0.00238829899047289
7.212269910904,0.0020182925839166
7.21454320050841,0.0016846375804465
7.21690901227457,0.00136695855369073
7.2196513716963,0.00102742412923248
7.22171110676865,0.000787980211770932
7.22377084184099,0.000558861130219041
7.2255663304528,0.000366011519963693
7.22719967347642,0.000195276260591874
7.22880213854302,3.16057497302361e-05
7.23047285124623,-0.000135322572282201
7.23234532794339,-0.000318105668100694
7.23475229679344,-0.000546340596631484
7.2387949548611,-0.000910943810117704
7.24232740718083,-0.00120590737202221
7.24546877382815,-0.00144508932756002
7.24892682018292,-0.00167803394230169
7.25252516171093,-0.00188146002017636
7.25629998526591,-0.00204777329314676
7.26045265018791,-0.00217228376932073
7.26490961967027,-0.00223803844707806
7.26932205207953,-0.00223764200789963
7.27389048884832,-0.00217520342263697
7.27794240734455,-0.00207299923939397
7.28169649685305,-0.00194344105354955
7.28533578768933,-0.00178859919209223
7.28894910538143,-0.00160767505280812
7.29259181563176,-0.00139755617869183
7.29630445047611,-0.00115238771910932
7.30012053400712,-0.000862360503158916
7.30407083917704,-0.000511329512754572
7.30773823183918,-0.000124228283274273
7.31106273501224,0.000295068056215709
7.31411310887477,0.000755656802977911
7.31695670712509,0.00126942455544121
7.31968378230181,0.00185706170088925
7.32243566902588,0.00256049896374827
7.32531549575856,0.00342409192539047
7.32848210400595,0.00451111477614585
7.33126236884033,0.00555005074731541
7.33373195859792,0.00650703738651539
7.33675496902762,0.00770076672286641
7.33894496923658,0.00859056976519071
7.34113496944553,0.00952547296234385
7.34307950347804,0.010422964890499
7.34493920373286,0.0113721124180345
7.3467318325972,0.0124039253970821
7.34846988426733,0.0135486308648259
7.3501693027276,0.0148426933700903
7.35181310541454,0.0162995414044445
7.35340400902381,0.0179461296908793
7.35493518232031,0.0197995515974445
7.35640699025503,0.021883218375611
7.35782064114607,0.0242224807613423
7.35917723431407,0.0268438109663366
7.36048081176552,0.0297819136841232
7.36173475327164,0.03307510359293
7.36294246132613,0.0367673347525606
7.3641080634332,0.0409119535120865
7.36523541060101,0.0455707003739384
7.36632840579667,0.0508165465589641
7.36739107060402,0.0567365532532484
7.36842771886445,0.0634363278072576
7.36944293571219,0.0710447924251326
7.37044182892425,0.0797224821738528
7.37143030172313,0.089673346775648
7.37241559130719,0.101164922151494
7.37340701169222,0.11456075206819
7.37441752999482,0.130382023765951
7.37545483591197,0.149197118125249
7.37649756772028,0.171027892665625
7.3775593940318,0.196503146122604
7.37866078929646,0.226514312494066
7.37983717354784,0.262488410832259
7.38100390883727,0.301609818403398
7.38198861697476,0.336404247885035
7.38283782259448,0.366713343932169
7.38360856820634,0.393441079451619
7.38433292227046,0.416844493096649
7.38503311121042,0.436833559511472
7.38572814519127,0.45305221740366
7.38643744264524,0.464820070428756
7.38718465823416,0.470943411577758
7.38800452253579,0.469242281355934
7.38885835246035,0.457323268761277
7.38973063843676,0.43402212252121
7.39063212630983,0.398049364070713
7.39157395772503,0.347968439346537
7.39217729951602,0.309767681913362
7.39278064130701,0.267623799832398
7.3932957936501,0.229412368724343
7.39373616014612,0.195935405461156
7.39412949229144,0.166070610745044
7.3944929580801,0.139050029999371
7.39483760829518,0.114385517096244
7.39517175050433,0.0917240599750852
7.39550297643604,0.0707634420407692
7.39584031833472,0.0511743674207097
7.39619940680804,0.0324287730584851
7.39663093787117,0.0128570342678716
7.39689147347259,0.00258138943125115
7.39709083183672,-0.00452866301001781
7.39729019020084,-0.0110144459207614
7.39748407294238,-0.016751852034825
7.39770090791723,-0.0225401726937068
7.39793678911859,-0.0281342323190213
7.39819430570919,-0.0334645958191302
7.39845982898921,-0.0381851541069521
7.39874077348797,-0.0424151230963641
7.39903812140356,-0.0461379327604912
7.39935324399793,-0.0493486617496816
7.39968801255532,-0.0520514000410633
7.40004481162408,-0.0542556158801761
7.40042659663658,-0.0559736399895482
7.4008369985457,-0.0572188021796021
7.40128048465535,-0.0580039019602849
7.40176259630585,-0.0583397861350466
7.40229030255167,-0.0582338281547866
7.40287276511945,-0.0576877797717973
7.40352324490046,-0.0566927302141801
7.40425877068606,-0.0552266435390916
7.40510459875257,-0.053245229619201
7.40610282850978,-0.0506589859351754
7.40734179570324,-0.0472542995500981
7.40872251181243,-0.0433643938781684
7.41005444724714,-0.039617314631255
7.41134279372033,-0.036058773096863
7.4125904691384,-0.0327095438329942
7.41379874993992,-0.02957919619238
7.41496806349639,-0.0266706698524354
7.41609841040813,-0.0239824324620575
7.41718958622323,-0.0215097034972194
7.41824129534797,-0.0192452786517399
7.41925320436356,-0.0171801635643493
7.42022495938776,-0.0153040584698287
7.42115618071993,-0.0136058657304872
7.42207159760532,-0.0120321497030772
7.42301031480893,-0.0105168811177984
7.42397377415063,-0.00906477148369812
7.4249640430516,-0.00767978437359583
7.42598354083797,-0.00636569153847761
7.42703512862074,-0.00512601938415545
7.42812222368608,-0.00396399715787649
7.42924895297241,-0.00288250247160236
7.43042036370537,-0.00188400446863255
7.43164272027895,-0.000970503130431288
7.43292393607278,-0.000143463973813308
7.43427422574259,0.000596254698413592
7.43570713736389,0.00124848748366195
7.4372412840714,0.00181387106108781
7.43886617441093,0.00228456464277969
7.44053552150905,0.00265414220403064
7.44226765819889,0.00293941337922716
7.44408318428527,0.00315530804213617
7.44600947497405,0.00331592462557813
